timestamp,emg_value
1766015871.9918458,43
1766015871.9918551,43
1766015871.991861,40
1766015871.991868,42
1766015871.991874,41
1766015871.991881,44
1766015871.991887,42
1766015871.991893,44
1766015871.9919,42
1766015871.9919062,45
1766015871.9919128,45
1766015871.991919,43
1766015871.991925,43
1766015871.991932,46
1766015871.991938,44
1766015871.9919438,46
1766015871.991951,45
1766015871.991957,44
1766015871.991963,43
1766015871.99197,44
1766015871.991976,44
1766015871.991982,42
1766015871.991988,43
1766015871.9919949,47
1766015871.992001,42
1766015871.992007,40
1766015871.9920142,43
1766015871.99202,43
1766015871.992026,41
1766015871.992032,46
1766015871.992039,46
1766015871.9920452,45
1766015871.992054,44
1766015871.992061,43
1766015871.992067,43
1766015871.992073,44
1766015871.99208,42
1766015871.992086,42
1766015871.992092,45
1766015871.992098,44
1766015871.992105,45
1766015871.9921112,46
1766015871.992117,45
1766015871.992123,46
1766015871.99213,46
1766015871.992136,48
1766015871.992142,44
1766015871.992148,45
1766015871.9921541,43
1766015871.992161,46
1766015871.992167,44
1766015871.992173,44
1766015871.992179,43
1766015871.992186,40
1766015871.992192,40
1766015871.992198,42
1766015871.992204,42
1766015871.9922109,44
1766015871.992217,42
1766015871.992223,42
1766015871.9922292,42
1766015871.992235,41
1766015871.992241,40
1766015871.992248,41
1766015871.992254,40
1766015871.992264,42
1766015871.9922712,39
1766015871.992277,37
1766015871.9922829,40
1766015871.99229,43
1766015871.992296,42
1766015871.9923022,45
1766015871.992308,43
1766015871.992314,41
1766015871.992321,44
1766015871.992327,45
1766015871.9923332,45
1766015871.992341,49
1766015871.9923468,43
1766015871.992353,44
1766015871.992359,46
1766015871.992366,47
1766015871.992372,45
1766015871.992378,43
1766015871.992384,48
1766015871.99239,47
1766015871.992396,44
1766015871.9924018,46
1766015871.992409,46
1766015871.992415,46
1766015871.9924212,47
1766015871.992427,48
1766015871.9924328,47
1766015871.99244,48
1766015871.992446,48
1766015871.9924521,47
1766015871.9924579,49
1766015871.9924638,49
1766015871.9924731,48
1766015871.992479,47
1766015871.992486,46
1766015871.992492,48
1766015871.992498,47
1766015871.992505,50
1766015871.992511,48
1766015871.9925172,47
1766015871.992523,46
1766015871.992529,48
1766015871.992536,49
1766015871.992565,45
1766015871.9925718,47
1766015871.992578,49
1766015871.992584,46
1766015871.9925902,47
1766015871.992596,48
1766015871.9926028,51
1766015871.992609,50
1766015871.992615,46
1766015871.992621,49
1766015871.9926279,48
1766015871.992634,45
1766015871.99264,46
1766015871.992647,49
1766015871.9926531,46
1766015871.9926589,49
1766015871.992665,48
1766015871.992672,48
1766015871.992678,44
1766015871.9926841,44
1766015871.992703,45
1766015871.9927092,45
1766015871.992722,46
1766015871.992728,45
1766015871.992736,46
1766015871.9927418,46
1766015871.992749,45
1766015871.992755,43
1766015871.9927611,45
1766015871.9927669,43
1766015871.992773,44
1766015871.99278,42
1766015871.992786,40
1766015871.9927921,41
1766015871.992799,44
1766015871.992805,40
1766015871.992811,44
1766015871.992817,44
1766015871.9928231,44
1766015871.99283,43
1766015871.992836,41
1766015871.992842,41
1766015871.992848,43
1766015871.992855,42
1766015871.992861,42
1766015871.992867,44
1766015871.992873,44
1766015871.99288,47
1766015871.992886,41
1766015871.9928918,45
1766015871.992898,44
1766015871.992904,40
1766015871.992911,40
1766015871.992917,37
1766015871.9929228,41
1766015871.99293,42
1766015871.992938,44
1766015871.9929442,41
1766015871.992953,39
1766015871.992959,40
1766015871.9929652,41
1766015871.992971,42
1766015871.9929779,41
1766015871.992984,42
1766015871.9929988,41
1766015871.993006,40
1766015871.993012,42
1766015871.9930182,41
1766015871.993024,40
1766015871.9930298,40
1766015871.993036,41
1766015871.993043,43
1766015871.9930491,42
1766015871.9930549,39
1766015871.993061,41
1766015871.993067,40
1766015871.993073,41
1766015871.9930801,40
1766015871.9930859,39
1766015871.993092,41
1766015871.993098,38
1766015871.993104,39
1766015871.99311,37
1766015871.9931169,42
1766015871.993123,39
1766015871.993129,42
1766015871.9931352,39
1766015871.993141,42
1766015871.9931479,39
1766015871.993154,38
1766015871.993162,41
1766015871.9931688,42
1766015871.9931772,41
1766015871.993183,45
1766015871.993189,42
1766015871.993195,42
1766015871.993202,41
1766015871.9932082,40
1766015871.993214,39
1766015871.99322,40
1766015871.993226,37
1766015871.9932318,42
1766015871.993239,41
1766015871.993245,39
1766015871.993251,40
1766015871.993257,36
1766015871.993263,42
1766015871.993269,39
1766015871.993275,38
1766015871.9932811,40
1766015871.993288,39
1766015871.993294,44
1766015871.9933,41
1766015871.9933062,41
1766015871.993313,38
1766015871.9933188,38
1766015871.993325,39
1766015871.993331,35
1766015871.9933372,34
1766015871.993344,39
1766015871.9933498,38
1766015871.993356,35
1766015871.993362,39
1766015871.9933681,38
1766015871.993377,36
1766015871.993383,37
1766015871.99339,34
1766015871.993396,39
1766015871.993402,39
1766015871.993408,38
1766015871.9934149,39
1766015871.993421,36
1766015871.993427,36
1766015871.993433,34
1766015871.99344,36
1766015871.9934459,36
1766015871.993452,34
1766015871.993458,37
1766015871.993464,36
1766015871.993471,35
1766015871.993477,33
1766015871.993483,33
1766015871.9934888,35
1766015871.9934962,33
1766015871.993502,33
1766015871.993508,33
1766015871.993514,34
1766015871.99352,30
1766015871.993526,34
1766015871.993533,34
1766015871.993539,36
1766015871.993545,35
1766015871.993551,34
1766015871.993557,33
1766015871.993563,36
1766015871.99357,36
1766015871.993576,36
1766015871.993582,36
1766015871.99359,42
1766015871.993597,37
1766015871.9936042,36
1766015871.99361,35
1766015871.9936159,38
1766015871.993622,36
1766015871.993629,36
1766015871.9936352,37
1766015871.993641,35
1766015871.993647,34
1766015871.993653,34
1766015871.99366,36
1766015871.993666,36
1766015871.993672,36
1766015871.993678,36
1766015871.993684,36
1766015871.993691,33
1766015871.993697,32
1766015871.993703,33
1766015871.993709,33
1766015871.993715,37
1766015871.993721,32
1766015871.993727,34
1766015871.993734,33
1766015871.99374,35
1766015871.9937458,33
1766015871.993752,36
1766015871.993758,35
1766015871.9937642,33
1766015871.99377,33
1766015871.9937768,31
1766015871.993783,35
1766015871.993789,35
1766015871.9937952,37
1766015871.993803,34
1766015871.993811,36
1766015871.993818,38
1766015871.993824,37
1766015871.99383,38
1766015871.993836,38
1766015871.993842,38
1766015871.993849,36
1766015871.993855,38
1766015871.9938612,37
1766015871.993867,36
1766015871.993873,39
1766015871.99388,36
1766015871.993886,38
1766015871.9938922,36
1766015871.993898,38
1766015871.993904,37
1766015871.993911,38
1766015871.993917,39
1766015871.993927,42
1766015871.993933,40
1766015871.993939,40
1766015871.993946,36
1766015871.993952,36
1766015871.993958,38
1766015871.993964,36
1766015871.99397,33
1766015871.993976,35
1766015871.993983,36
1766015871.9939892,34
1766015871.993995,35
1766015871.994001,36
1766015871.994008,36
1766015871.994016,37
1766015871.994022,37
1766015871.9940312,35
1766015871.994037,33
1766015871.9940429,33
1766015871.994049,37
1766015871.9940548,34
1766015871.9940622,35
1766015871.994068,38
1766015871.994074,39
1766015871.99408,38
1766015871.9940858,38
1766015871.994092,36
1766015871.994099,36
1766015871.994105,34
1766015871.994111,38
1766015871.994117,37
1766015871.994123,37
1766015871.994132,37
1766015871.994139,35
1766015871.994145,34
1766015871.9941509,36
1766015871.994157,36
1766015871.994163,34
1766015871.9941702,37
1766015871.994176,35
1766015871.9941819,34
1766015871.994188,35
1766015871.994194,35
1766015871.9942012,34
1766015871.994207,34
1766015871.994213,35
1766015871.994219,36
1766015871.9942248,36
1766015871.994238,33
1766015871.994244,34
1766015871.9942589,34
1766015871.994265,35
1766015871.994271,34
1766015871.9942772,33
1766015871.994284,31
1766015871.9942899,31
1766015871.994296,34
1766015871.994302,31
1766015871.994308,35
1766015871.994314,35
1766015871.9943209,34
1766015871.994327,34
1766015871.994333,31
1766015871.994339,31
1766015871.994345,31
1766015871.9943511,31
1766015871.994358,31
1766015871.994364,31
1766015871.99437,32
1766015871.994376,31
1766015871.9943821,32
1766015871.9943879,32
1766015871.9943948,31
1766015871.994401,29
1766015871.994407,30
1766015871.9944131,33
1766015871.9944189,31
1766015871.994425,32
1766015871.994431,29
1766015871.994438,32
1766015871.9944441,30
1766015871.994452,33
1766015871.9944599,33
1766015871.994467,31
1766015871.994476,32
1766015871.9944818,34
1766015871.994488,31
1766015871.994494,30
1766015871.9945002,32
1766015871.994506,28
1766015871.9945128,31
1766015871.994519,29
1766015871.994525,31
1766015871.9945312,34
1766015871.9945369,31
1766015871.994543,31
1766015871.99455,30
1766015871.994556,29
1766015871.9945621,31
1766015871.9945679,28
1766015871.994574,29
1766015871.99458,29
1766015871.9945862,29
1766015871.994593,31
1766015871.9945989,29
1766015871.994605,30
1766015871.994611,27
1766015871.994617,28
1766015871.994668,31
1766015871.994674,30
1766015871.9946811,31
1766015871.994687,31
1766015871.994693,29
1766015871.99471,31
1766015871.994743,29
1766015871.994751,30
1766015871.99476,32
1766015871.9947672,31
1766015871.994773,33
1766015871.9947798,33
1766015871.994786,29
1766015871.994792,29
1766015871.9948192,31
1766015871.994826,31
1766015871.9948318,31
1766015871.994838,31
1766015871.994845,28
1766015871.994851,27
1766015871.994857,31
1766015871.994863,30
1766015871.994869,31
1766015871.994876,31
1766015871.994882,30
1766015871.9948878,28
1766015871.994894,30
1766015871.9949,30
1766015871.9949062,31
1766015871.994913,31
1766015871.99492,29
1766015871.994926,29
1766015871.994932,31
1766015871.9949381,29
1766015871.994944,31
1766015871.9949498,31
1766015871.994956,29
1766015871.994962,32
1766015871.9949682,31
1766015871.994975,32
1766015871.994981,27
1766015871.9949892,29
1766015871.994996,28
1766015871.995002,28
1766015871.995008,31
1766015871.995014,30
1766015871.995021,29
1766015871.9950268,30
1766015871.995033,32
1766015871.995039,29
1766015871.9950452,28
1766015871.995051,29
1766015871.9950569,28
1766015871.995063,29
1766015871.995069,29
1766015871.995075,24
1766015871.995082,28
1766015871.9950879,27
1766015871.995094,27
1766015871.9951,32
1766015871.995106,27
1766015871.995112,31
1766015871.9951181,26
1766015871.9951239,29
1766015871.99513,26
1766015871.995136,26
1766015871.995142,26
1766015871.995148,28
1766015871.995154,29
1766015871.995161,28
1766015871.995167,30
1766015871.9951732,27
1766015871.995179,27
1766015871.995185,26
1766015871.9951968,31
1766015871.9952042,27
1766015871.99521,30
1766015871.9952168,32
1766015871.995223,27
1766015871.995229,27
1766015871.995235,30
1766015871.995241,29
1766015871.995248,27
1766015871.995254,31
1766015871.99526,29
1766015871.995266,29
1766015871.9952729,27
1766015871.995279,29
1766015871.995285,26
1766015871.995291,26
1766015871.9952981,28
1766015871.9953039,26
1766015871.99531,25
1766015871.995316,28
1766015871.995323,31
1766015871.9953291,31
1766015871.9953349,31
1766015871.995341,27
1766015871.995347,30
1766015871.995353,29
1766015871.995359,29
1766015871.9953651,30
1766015871.995371,25
1766015871.9953768,28
1766015871.995383,29
1766015871.995389,29
1766015871.9953952,28
1766015871.995405,26
1766015871.9954119,26
1766015871.995418,28
1766015871.995424,29
1766015871.99543,26
1766015871.995436,29
1766015871.995442,26
1766015871.995448,29
1766015871.995455,30
1766015871.9954612,26
1766015871.995467,27
1766015871.995473,29
1766015871.995479,28
1766015871.9954848,29
1766015871.995491,27
1766015871.995497,28
1766015871.9955032,27
1766015871.995509,28
1766015871.9955149,27
1766015871.995521,25
1766015871.995527,25
1766015871.995533,27
1766015871.995539,25
1766015871.9955451,28
1766015871.9955509,30
1766015871.995557,26
1766015871.995563,28
1766015871.995569,31
1766015871.9955761,27
1766015871.9955819,26
1766015871.995588,25
1766015871.995594,27
1766015871.9956,26
1766015871.995612,27
1766015871.995619,28
1766015871.995625,28
1766015871.9956312,28
1766015871.995637,26
1766015871.995643,26
1766015871.99565,26
1766015871.995656,27
1766015871.995662,27
1766015871.995668,27
1766015871.9956741,28
1766015871.99568,27
1766015871.9956858,34
1766015871.995692,25
1766015871.995698,25
1766015871.9957042,26
1766015871.99571,28
1766015871.995716,29
1766015871.995722,29
1766015871.9957278,24
1766015871.995734,26
1766015871.99574,27
1766015871.995747,28
1766015871.995753,26
1766015871.995759,28
1766015871.995765,29
1766015871.995771,28
1766015871.9957771,24
1766015871.9957829,28
1766015871.995789,27
1766015871.995795,27
1766015871.995801,28
1766015871.995807,31
1766015871.9958131,26
1766015871.995824,26
1766015871.995831,27
1766015871.9958389,25
1766015871.995845,23
1766015871.995851,26
1766015871.995857,26
1766015871.995866,25
1766015871.995872,27
1766015871.995878,29
1766015871.995884,28
1766015871.99589,28
1766015871.995896,29
1766015871.995902,27
1766015871.9959092,30
1766015871.995915,29
1766015871.995921,26
1766015871.995927,28
1766015871.9959328,25
1766015871.995939,27
1766015871.995945,28
1766015871.9959512,25
1766015871.995957,27
1766015871.9959629,25
1766015871.99597,26
1766015871.995976,27
1766015871.9959822,27
1766015871.995988,26
1766015871.995994,29
1766015871.996,28
1766015871.9960058,23
1766015871.996012,27
1766015871.996018,27
1766015871.9960241,28
1766015871.9960299,29
1766015871.996038,27
1766015871.996046,28
1766015871.996053,29
1766015871.996059,29
1766015871.9960651,25
1766015871.9960709,27
1766015871.996077,26
1766015871.996083,28
1766015871.996089,28
1766015871.996095,30
1766015871.9961011,29
1766015871.996107,27
1766015871.9961128,27
1766015871.99612,29
1766015871.996126,26
1766015871.9961321,29
1766015871.996138,29
1766015871.996144,30
1766015871.99615,29
1766015871.996156,27
1766015871.996162,30
1766015871.996168,30
1766015871.996174,29
1766015871.99618,28
1766015871.996187,29
1766015871.996193,30
1766015871.996199,32
1766015871.996205,29
1766015871.996211,29
1766015871.996217,31
1766015871.996223,29
1766015871.9962292,31
1766015871.996235,29
1766015871.9962409,30
1766015871.996253,30
1766015871.9962602,30
1766015871.996267,30
1766015871.996274,31
1766015871.99628,31
1766015871.996286,30
1766015871.996293,31
1766015871.996299,29
1766015871.996305,31
1766015871.996311,32
1766015871.996317,28
1766015871.996323,32
1766015871.996329,31
1766015871.996335,28
1766015871.996341,33
1766015871.996347,30
1766015871.996354,33
1766015871.9963598,28
1766015871.996366,30
1766015871.996372,33
1766015871.9963782,33
1766015871.996384,32
1766015871.9963899,32
1766015871.996396,32
1766015871.996402,34
1766015871.996408,32
1766015871.996414,31
1766015871.996421,29
1766015871.996427,30
1766015871.9964328,34
1766015871.996439,32
1766015871.996445,30
1766015871.9964511,31
1766015871.9964569,30
1766015871.996463,34
1766015871.9964721,28
1766015871.99648,30
1766015871.996486,33
1766015871.996493,31
1766015871.996499,31
1766015871.996505,31
1766015871.996511,28
1766015871.9965172,30
1766015871.996523,31
1766015871.9965289,32
1766015871.996535,34
1766015871.996541,31
1766015871.996547,31
1766015871.996553,33
1766015871.9965591,30
1766015871.996565,30
1766015871.9965708,32
1766015871.996577,32
1766015871.996583,33
1766015871.9965901,32
1766015871.996597,32
1766015871.9966028,32
1766015871.996609,33
1766015871.996615,30
1766015871.9966211,32
1766015871.9966269,32
1766015871.996633,33
1766015871.996639,32
1766015871.996646,33
1766015871.9966521,31
1766015871.9966578,31
1766015871.996664,30
1766015871.9966688,33
1766015871.99668,32
1766015871.996686,32
1766015871.996692,32
1766015871.9966989,32
1766015871.996705,32
1766015871.9967098,35
1766015871.996716,33
1766015871.996722,32
1766015871.9967282,35
1766015871.996733,32
1766015871.9967391,32
1766015871.9967449,35
1766015871.99675,29
1766015871.996756,30
1766015871.996762,33
1766015871.996767,32
1766015871.996773,32
1766015871.996779,31
1766015871.9967842,31
1766015871.99679,31
1766015871.996796,34
1766015871.996802,33
1766015871.9968069,32
1766015871.996813,35
1766015871.996819,34
1766015871.996824,33
1766015871.99683,35
1766015871.9968362,34
1766015871.996841,34
1766015871.9968472,35
1766015871.996855,35
1766015871.996861,36
1766015871.9968672,33
1766015871.996873,32
1766015871.9968781,31
1766015871.996886,32
1766015871.996893,34
1766015871.9968991,33
1766015871.9969049,35
1766015871.996911,31
1766015871.996916,34
1766015871.996922,35
1766015871.996928,34
1766015871.9969332,36
1766015871.996939,36
1766015871.996945,32
1766015871.99695,36
1766015871.9969559,32
1766015871.996962,30
1766015871.9969668,34
1766015871.996973,34
1766015871.996979,33
1766015871.996984,35
1766015871.99699,36
1766015871.996995,34
1766015871.997001,37
1766015871.9970071,33
1766015871.997012,35
1766015871.997018,34
1766015871.997024,36
1766015871.9970298,32
1766015871.997035,35
1766015871.997041,35
1766015871.997047,33
1766015871.997052,34
1766015871.9970582,36
1766015871.997063,34
1766015871.9970691,33
1766015871.9970748,36
1766015871.997083,33
1766015871.997089,35
1766015871.9970958,32
1766015871.997102,35
1766015871.997107,35
1766015871.997113,36
1766015871.997119,36
1766015871.9971242,33
1766015871.99713,36
1766015871.9971359,32
1766015871.997141,36
1766015871.9971468,34
1766015871.997153,35
1766015871.9971578,33
1766015871.997164,38
1766015871.99717,35
1766015871.997175,36
1766015871.997181,35
1766015871.9971871,33
1766015871.997192,37
1766015871.997198,36
1766015871.997204,39
1766015871.99721,34
1766015871.997215,34
1766015871.9972212,37
1766015871.997227,35
1766015871.997233,37
1766015871.997238,36
1766015871.997244,37
1766015871.99725,36
1766015871.9972548,35
1766015871.997261,37
1766015871.997267,38
1766015871.997272,36
1766015871.997281,35
1766015871.997288,38
1766015871.9972951,39
1766015871.997301,38
1766015871.9973068,33
1766015871.997313,38
1766015871.9973178,38
1766015871.997324,37
1766015871.99733,34
1766015871.997335,37
1766015871.997341,37
1766015871.997347,35
1766015871.997352,37
1766015871.997358,37
1766015871.997364,35
1766015871.997369,39
1766015871.997375,38
1766015871.9973812,36
1766015871.997387,37
1766015871.997392,37
1766015871.997398,39
1766015871.9974039,36
1766015871.99741,39
1766015871.9974148,39
1766015871.997421,33
1766015871.997427,34
1766015871.9974332,36
1766015871.997439,38
1766015871.9974442,37
1766015871.9974499,35
1766015871.9974558,37
1766015871.997461,36
1766015871.9974668,36
1766015871.997473,37
1766015871.997484,37
1766015871.99749,37
1766015871.997498,38
1766015871.997504,34
1766015871.99751,38
1766015871.997515,35
1766015871.997521,37
1766015871.9975271,34
1766015871.9975328,36
1766015871.997538,36
1766015871.997544,35
1766015871.99755,36
1766015871.997555,36
1766015871.997561,35
1766015871.997567,37
1766015871.9975722,33
1766015871.997578,39
1766015871.9975839,36
1766015871.99759,39
1766015871.9975948,38
1766015871.997601,37
1766015871.997607,38
1766015871.997612,37
1766015871.997618,38
1766015871.9976242,36
1766015871.99763,35
1766015871.9976351,33
1766015871.9976408,39
1766015871.997647,37
1766015871.997652,33
1766015871.997658,37
1766015871.997664,38
1766015871.99767,37
1766015871.997675,39
1766015871.997684,36
1766015871.997689,38
1766015871.997698,38
1766015871.997704,37
1766015871.99771,41
1766015871.997716,35
1766015871.9977212,40
1766015871.997727,36
1766015871.997733,39
1766015871.997739,36
1766015871.997744,38
1766015871.99775,38
1766015871.997756,36
1766015871.997761,39
1766015871.997767,38
1766015871.9977732,37
1766015871.997778,37
1766015871.9977841,40
1766015871.9977899,39
1766015871.997795,37
1766015871.997801,39
1766015871.997807,38
1766015871.997813,37
1766015871.997818,34
1766015871.997824,37
1766015871.99783,39
1766015871.997835,37
1766015871.997841,37
1766015871.997847,39
1766015871.997853,37
1766015871.997858,37
1766015871.997864,34
1766015871.99787,35
1766015871.997875,38
1766015871.997886,38
1766015871.9978921,40
1766015871.997901,37
1766015871.997907,39
1766015871.9979122,39
1766015871.997918,35
1766015871.997924,40
1766015871.9979289,40
1766015871.997935,38
1766015871.997941,39
1766015871.997946,38
1766015871.997952,37
1766015871.997958,35
1766015871.997963,33
1766015871.997969,39
1766015871.997975,42
1766015871.9979799,39
1766015871.997986,39
1766015871.997992,37
1766015871.997998,38
1766015871.998003,37
1766015871.9980092,41
1766015871.998015,37
1766015871.9980211,36
1766015871.998026,36
1766015871.9980319,40
1766015871.998038,37
1766015871.998044,37
1766015871.99805,38
1766015871.998055,39
1766015871.998061,36
1766015871.998067,38
1766015871.998073,40
1766015871.9980779,39
1766015871.998089,36
1766015871.998095,34
1766015871.998102,41
1766015871.998108,37
1766015871.998114,37
1766015871.9981198,37
1766015871.998125,36
1766015871.998132,39
1766015871.9981382,36
1766015871.998146,36
1766015871.9981508,39
1766015871.998167,33
1766015871.998173,33
1766015871.998179,39
1766015871.998185,39
1766015871.998191,37
1766015871.998196,40
1766015871.998202,38
1766015871.998208,39
1766015871.998214,37
1766015871.998219,38
1766015871.998225,35
1766015871.998231,37
1766015871.998237,38
1766015871.9982421,36
1766015871.998346,38
1766015871.998354,34
1766015871.9983602,35
1766015871.9983659,37
1766015871.998372,38
1766015871.998378,35
1766015871.998383,37
1766015871.998389,39
1766015871.998395,38
1766015871.998401,39
1766015871.9984078,36
1766015871.998415,39
1766015871.998421,38
1766015871.9984262,36
1766015871.998432,36
1766015871.998438,37
1766015871.998444,37
1766015871.9984488,35
1766015871.998455,38
1766015871.998461,35
1766015871.998467,39
1766015871.998496,36
1766015871.998503,37
1766015871.998533,39
1766015871.9985511,35
1766015871.998563,38
1766015871.998587,37
1766015871.998603,37
1766015871.99861,37
1766015871.998643,35
1766015871.99865,35
1766015871.998656,38
1766015871.998662,34
1766015871.998668,36
1766015871.998674,38
1766015871.998679,38
1766015871.9986858,35
1766015871.998691,33
1766015871.998697,35
1766015871.998703,38
1766015871.998709,35
1766015871.998715,38
1766015871.9987211,34
1766015871.998728,36
1766015871.9987352,37
1766015871.99874,34
1766015871.9987462,34
1766015871.998752,36
1766015871.9987578,34
1766015871.998764,34
1766015871.99877,39
1766015871.998775,35
1766015871.998781,34
1766015871.9987872,38
1766015871.998793,33
1766015871.998799,36
1766015871.9988039,34
1766015871.99881,36
1766015871.998816,33
1766015871.998822,36
1766015871.998828,35
1766015871.998833,33
1766015871.9988391,35
1766015871.9988449,33
1766015871.998851,35
1766015871.998857,33
1766015871.998862,36
1766015871.998868,37
1766015871.9988742,33
1766015871.99888,34
1766015871.9988859,35
1766015871.998891,35
1766015871.9988968,34
1766015871.998903,35
1766015871.998909,37
1766015871.998915,32
1766015871.9989219,36
1766015871.9989288,33
1766015871.998935,31
1766015871.998941,34
1766015871.9989471,34
1766015871.998952,33
1766015871.998958,34
1766015871.998964,33
1766015871.99897,35
1766015871.998975,32
1766015871.9989812,33
1766015871.998987,35
1766015871.998993,34
1766015871.998999,37
1766015871.9990048,31
1766015871.99901,34
1766015871.999016,34
1766015871.999022,35
1766015871.999028,32
1766015871.9990342,33
1766015871.99904,33
1766015871.9990451,31
1766015871.999051,32
1766015871.9990568,34
1766015871.999063,32
1766015871.999069,34
1766015871.999074,34
1766015871.99908,34
1766015871.9990861,33
1766015871.9990919,34
1766015871.999098,34
1766015871.999104,36
1766015871.999109,36
1766015871.9991171,34
1766015871.9991229,33
1766015871.999129,33
1766015871.999135,32
1766015871.9991412,33
1766015871.999147,36
1766015871.9991522,35
1766015871.999158,36
1766015871.9991639,32
1766015871.99917,33
1766015871.999176,35
1766015871.999181,31
1766015871.999187,33
1766015871.9991932,34
1766015871.999199,33
1766015871.999205,31
1766015871.99921,34
1766015871.999216,34
1766015871.999222,32
1766015871.999228,32
1766015871.999233,32
1766015871.999239,33
1766015871.9992452,33
1766015871.999251,31
1766015871.999257,33
1766015871.9992619,33
1766015871.999268,34
1766015871.999274,30
1766015871.999279,34
1766015871.999285,31
1766015871.999291,34
1766015871.9992971,33
1766015871.9993029,34
1766015871.999308,35
1766015871.999316,33
1766015871.999323,31
1766015871.999329,32
1766015871.9993339,33
1766015871.99934,30
1766015871.999346,31
1766015871.999352,34
1766015871.999358,32
1766015871.9993632,32
1766015871.999369,32
1766015871.999375,34
1766015871.999381,35
1766015871.9993868,34
1766015871.999392,32
1766015871.999398,32
1766015871.999404,31
1766015871.99941,32
1766015871.999416,32
1766015871.9994218,32
1766015871.999427,31
1766015871.999433,33
1766015871.999439,32
1766015871.999445,30
1766015871.9994502,32
1766015871.999456,29
1766015871.999462,34
1766015871.999468,35
1766015871.9994738,33
1766015871.999479,35
1766015871.999485,31
1766015871.999491,31
1766015871.999497,35
1766015871.9995031,33
1766015871.99951,33
1766015871.999516,32
1766015871.999522,30
1766015871.999527,32
1766015871.999533,28
1766015871.999539,31
1766015871.999545,28
1766015871.999551,29
1766015871.999557,31
1766015871.999562,31
1766015871.999568,32
1766015871.999574,30
1766015871.99958,32
1766015871.999586,31
1766015871.9995909,32
1766015871.999597,33
1766015871.999603,30
1766015871.999609,32
1766015871.999615,31
1766015871.9996212,30
1766015871.999626,31
1766015871.999632,30
1766015871.999638,32
1766015871.9996438,30
1766015871.99965,28
1766015871.999655,31
1766015871.999661,29
1766015871.999667,30
1766015871.9996731,31
1766015871.999679,29
1766015871.999685,28
1766015871.999691,33
1766015871.9996958,28
1766015871.999702,33
1766015871.999708,31
1766015871.9997141,29
1766015871.999719,27
1766015871.999725,29
1766015871.9997308,32
1766015871.999737,28
1766015871.999743,31
1766015871.9997492,30
1766015871.999755,30
1766015871.99976,31
1766015871.999766,33
1766015871.9997718,30
1766015871.999778,31
1766015871.999784,31
1766015871.9997902,31
1766015871.999796,30
1766015871.999802,30
1766015871.999807,29
1766015871.999813,32
1766015871.999819,31
1766015871.999825,30
1766015871.999831,29
1766015871.999837,25
1766015871.9998431,29
1766015871.999848,30
1766015871.999854,27
1766015871.99986,28
1766015871.999866,29
1766015871.999872,29
1766015871.999878,32
1766015871.9998841,30
1766015871.9998899,29
1766015871.999896,30
1766015871.999903,29
1766015871.9999092,27
1766015871.9999151,25
1766015871.9999208,30
1766015871.999927,29
1766015871.9999318,28
1766015871.999938,28
1766015871.999944,30
1766015871.9999502,28
1766015871.999956,26
1766015871.999962,25
1766015871.9999669,25
1766015871.999973,27
1766015871.999979,26
1766015871.999985,25
1766015871.999991,26
1766015871.999997,24
1766015872.000003,26
1766015872.000009,27
1766015872.000014,27
1766015872.00002,30
1766015872.0000262,28
1766015872.000032,24
1766015872.000038,27
1766015872.000044,29
1766015872.0000498,24
1766015872.000056,24
1766015872.000062,25
1766015872.000067,25
1766015872.000073,26
1766015872.0000792,29
1766015872.0000849,26
1766015872.0000901,28
1766015872.000096,26
1766015872.0001018,26
1766015872.000108,25
1766015872.000114,24
1766015872.000119,23
1766015872.000125,26
1766015872.0001311,28
1766015872.0001369,24
1766015872.000143,26
1766015872.000149,23
1766015872.000155,26
1766015872.00016,29
1766015872.000166,22
1766015872.0001721,28
1766015872.0001779,25
1766015872.000184,23
1766015872.0001888,24
1766015872.000195,28
1766015872.000201,25
1766015872.0002072,25
1766015872.000213,28
1766015872.0002189,27
1766015872.000224,24
1766015872.0002298,27
1766015872.000236,25
1766015872.000242,26
1766015872.000248,28
1766015872.000253,24
1766015872.0002592,22
1766015872.000265,25
1766015872.000271,25
1766015872.000277,26
1766015872.000282,27
1766015872.000288,25
1766015872.000294,24
1766015872.0003,24
1766015872.000306,25
1766015872.0003111,24
1766015872.0003169,23
1766015872.000324,22
1766015872.00033,25
1766015872.0003352,25
1766015872.000341,27
1766015872.000347,24
1766015872.000353,23
1766015872.0003588,28
1766015872.000365,26
1766015872.00037,26
1766015872.000376,27
1766015872.000382,25
1766015872.0003881,23
1766015872.000393,24
1766015872.000399,25
1766015872.000405,25
1766015872.0004108,23
1766015872.000417,24
1766015872.000423,24
1766015872.000428,23
1766015872.000434,25
1766015872.0004401,25
1766015872.0004458,25
1766015872.000452,23
1766015872.000457,26
1766015872.000463,22
1766015872.000469,23
1766015872.000475,23
1766015872.0004811,25
1766015872.0004869,27
1766015872.000493,23
1766015872.0004978,25
1766015872.000504,27
1766015872.00051,28
1766015872.0005162,27
1766015872.000522,24
1766015872.0005279,26
1766015872.000533,27
1766015872.0005388,27
1766015872.000545,22
1766015872.000551,26
1766015872.000557,23
1766015872.000563,26
1766015872.000569,22
1766015872.0005739,24
1766015872.00058,26
1766015872.000586,24
1766015872.0005918,24
1766015872.000598,24
1766015872.000604,24
1766015872.000609,23
1766015872.000615,25
1766015872.000621,22
1766015872.000627,25
1766015872.000633,23
1766015872.000639,25
1766015872.0006442,22
1766015872.00065,24
1766015872.000656,24
1766015872.000662,23
1766015872.0006669,25
1766015872.000673,21
1766015872.000679,24
1766015872.000685,26
1766015872.000691,24
1766015872.0006962,26
1766015872.000702,25
1766015872.000708,25
1766015872.000714,26
1766015872.0007198,22
1766015872.000726,24
1766015872.000732,22
1766015872.0007381,26
1766015872.000743,23
1766015872.000749,25
1766015872.0007548,24
1766015872.000761,22
1766015872.000767,23
1766015872.0007732,24
1766015872.000778,21
1766015872.000784,24
1766015872.00079,26
1766015872.0007958,26
1766015872.000802,24
1766015872.0008068,25
1766015872.000813,27
1766015872.000819,24
1766015872.0008252,25
1766015872.000831,23
1766015872.000837,26
1766015872.000843,28
1766015872.0008478,24
1766015872.000854,24
1766015872.00086,23
1766015872.000866,26
1766015872.000872,27
1766015872.000878,26
1766015872.000884,28
1766015872.000889,25
1766015872.000895,27
1766015872.0009012,29
1766015872.000907,25
1766015872.000913,30
1766015872.000919,26
1766015872.0009248,28
1766015872.001353,24
1766015872.002342,30
1766015872.003345,24
1766015872.0043578,27
1766015872.005357,28
1766015872.006387,27
1766015872.007411,25
1766015872.008401,29
1766015872.009362,27
1766015872.010336,25
1766015872.011364,28
1766015872.012393,24
1766015872.013367,24
1766015872.0143769,27
1766015872.015378,27
1766015872.016366,29
1766015872.017452,27
1766015872.018421,29
1766015872.019382,31
1766015872.02041,31
1766015872.0213912,29
1766015872.022402,28
1766015872.023391,30
1766015872.024402,26
1766015872.025422,28
1766015872.0264032,28
1766015872.0273972,25
1766015872.028437,23
1766015872.0294342,31
1766015872.030442,25
1766015872.031415,28
1766015872.032439,29
1766015872.0334349,28
1766015872.0344698,28
1766015872.035445,27
1766015872.036461,25
1766015872.037451,28
1766015872.038422,26
1766015872.0394409,27
1766015872.04046,25
1766015872.041454,28
1766015872.0424929,24
1766015872.043463,27
1766015872.0444741,26
1766015872.045483,27
1766015872.046475,24
1766015872.047476,25
1766015872.0484731,25
1766015872.049493,28
1766015872.0504751,26
1766015872.0514922,28
1766015872.052495,25
1766015872.0535,28
1766015872.054521,30
1766015872.055558,25
1766015872.056559,28
1766015872.057512,25
1766015872.058528,27
1766015872.059569,25
1766015872.060533,25
1766015872.0615418,29
1766015872.062521,25
1766015872.06352,23
1766015872.06453,30
1766015872.065523,26
1766015872.0665631,26
1766015872.067575,25
1766015872.068544,29
1766015872.069539,28
1766015872.070532,27
1766015872.071533,27
1766015872.072525,27
1766015872.0737112,29
1766015872.074571,28
1766015872.0756109,26
1766015872.076587,31
1766015872.077579,29
1766015872.0786948,31
1766015872.079584,28
1766015872.080596,27
1766015872.0816262,25
1766015872.08269,29
1766015872.083619,28
1766015872.084616,25
1766015872.085599,27
1766015872.0865788,27
1766015872.087604,25
1766015872.088591,28
1766015872.0895932,27
1766015872.090676,27
1766015872.091645,29
1766015872.092646,30
1766015872.093659,27
1766015872.0946188,29
1766015872.095613,27
1766015872.09661,29
1766015872.0976079,29
1766015872.09862,27
1766015872.099636,30
1766015872.100672,30
1766015872.1016371,28
1766015872.102614,27
1766015872.1036348,26
1766015872.10465,28
1766015872.105639,28
1766015872.1066308,31
1766015872.10764,30
1766015872.108705,30
1766015872.109666,32
1766015872.110662,30
1766015872.111667,27
1766015872.11267,29
1766015872.113655,31
1766015872.11466,29
1766015872.11566,30
1766015872.1166642,27
1766015872.1176589,28
1766015872.118687,29
1766015872.119667,32
1766015872.120683,30
1766015872.121685,29
1766015872.122692,29
1766015872.1236851,27
1766015872.12468,31
1766015872.125696,26
1766015872.126699,30
1766015872.127702,29
1766015872.1286771,31
1766015872.1297019,29
1766015872.1307101,31
1766015872.131712,30
1766015872.13273,28
1766015872.133746,29
1766015872.134748,30
1766015872.135712,28
1766015872.1367428,29
1766015872.137761,29
1766015872.138753,30
1766015872.139755,27
1766015872.140764,28
1766015872.141771,26
1766015872.1427908,30
1766015872.14376,27
1766015872.144767,28
1766015872.145727,28
1766015872.1467688,27
1766015872.147763,29
1766015872.148809,28
1766015872.149777,29
1766015872.150825,28
1766015872.1517901,28
1766015872.1527941,29
1766015872.153779,31
1766015872.1548002,27
1766015872.1558,29
1766015872.1567948,31
1766015872.15777,27
1766015872.158798,28
1766015872.1598039,26
1766015872.160792,29
1766015872.161791,29
1766015872.1628218,28
1766015872.163816,28
1766015872.164874,27
1766015872.1658251,29
1766015872.166828,27
1766015872.167818,25
1766015872.168802,29
1766015872.1698308,28
1766015872.170824,28
1766015872.171826,28
1766015872.172878,30
1766015872.173849,30
1766015872.174834,29
1766015872.175885,30
1766015872.1768541,28
1766015872.1778681,28
1766015872.1788511,29
1766015872.179839,24
1766015872.18084,28
1766015872.181851,26
1766015872.182873,29
1766015872.183924,26
1766015872.1848829,28
1766015872.185893,25
1766015872.1868951,30
1766015872.187964,24
1766015872.1889138,26
1766015872.189895,26
1766015872.190895,26
1766015872.1918871,29
1766015872.192891,27
1766015872.193909,27
1766015872.194911,28
1766015872.195914,29
1766015872.196906,28
1766015872.197921,28
1766015872.198962,27
1766015872.199935,28
1766015872.200935,29
1766015872.2019022,27
1766015872.202914,24
1766015872.203934,31
1766015872.2049742,27
1766015872.205933,25
1766015872.20695,26
1766015872.207934,26
1766015872.2089229,29
1766015872.209913,28
1766015872.210956,29
1766015872.211949,27
1766015872.212943,27
1766015872.213929,27
1766015872.214935,28
1766015872.215939,28
1766015872.217014,29
1766015872.217952,25
1766015872.219006,28
1766015872.219952,26
1766015872.220953,27
1766015872.2219572,24
1766015872.2230442,29
1766015872.223949,26
1766015872.22496,28
1766015872.226044,28
1766015872.2270348,26
1766015872.228041,26
1766015872.229044,27
1766015872.230048,27
1766015872.231039,24
1766015872.232044,26
1766015872.233058,27
1766015872.2340422,27
1766015872.235059,27
1766015872.2360508,24
1766015872.237042,28
1766015872.238042,26
1766015872.2390451,28
1766015872.240057,24
1766015872.2410629,26
1766015872.242058,24
1766015872.243062,28
1766015872.2440588,26
1766015872.245057,31
1766015872.2460558,28
1766015872.2470698,27
1766015872.2480671,29
1766015872.249063,26
1766015872.25004,26
1766015872.251064,27
1766015872.2520561,28
1766015872.253063,25
1766015872.2540631,27
1766015872.2550678,25
1766015872.256066,28
1766015872.2570639,25
1766015872.258046,24
1766015872.259061,25
1766015872.260082,25
1766015872.261072,26
1766015872.262081,25
1766015872.2631428,26
1766015872.264083,26
1766015872.265107,27
1766015872.266089,27
1766015872.2670872,24
1766015872.2680771,24
1766015872.269096,25
1766015872.2700999,27
1766015872.2711139,27
1766015872.272099,24
1766015872.27311,24
1766015872.274101,29
1766015872.275121,23
1766015872.276132,28
1766015872.277132,24
1766015872.278124,27
1766015872.2791271,23
1766015872.280141,27
1766015872.281166,24
1766015872.282135,28
1766015872.283128,24
1766015872.284128,24
1766015872.28513,24
1766015872.28614,27
1766015872.2871501,24
1766015872.2881448,25
1766015872.289149,24
1766015872.290145,26
1766015872.291138,24
1766015872.292164,26
1766015872.2931662,25
1766015872.294152,21
1766015872.295169,27
1766015872.296215,24
1766015872.297199,25
1766015872.2982368,25
1766015872.299196,23
1766015872.30019,25
1766015872.301219,22
1766015872.30221,24
1766015872.303207,26
1766015872.304266,24
1766015872.305203,28
1766015872.306208,24
1766015872.3072052,25
1766015872.308203,22
1766015872.3092248,24
1766015872.310239,22
1766015872.31121,24
1766015872.3122492,21
1766015872.313241,22
1766015872.3142421,21
1766015872.3152452,26
1766015872.3162482,27
1766015872.3172429,24
1766015872.318249,23
1766015872.319236,25
1766015872.3202639,25
1766015872.3212569,27
1766015872.3223119,29
1766015872.323286,26
1766015872.324249,26
1766015872.325264,28
1766015872.326269,26
1766015872.32728,27
1766015872.328286,27
1766015872.3292952,27
1766015872.3302999,29
1766015872.331292,26
1766015872.332278,28
1766015872.333337,26
1766015872.334359,24
1766015872.335285,29
1766015872.336339,27
1766015872.337337,27
1766015872.338339,27
1766015872.339325,25
1766015872.340331,30
1766015872.3413062,28
1766015872.342328,30
1766015872.343348,26
1766015872.3443031,28
1766015872.345313,27
1766015872.346302,29
1766015872.347302,30
1766015872.34835,26
1766015872.349335,29
1766015872.3503292,30
1766015872.351367,25
1766015872.352332,31
1766015872.353329,30
1766015872.354329,31
1766015872.35536,28
1766015872.356383,28
1766015872.357366,31
1766015872.3583438,27
1766015872.359383,29
1766015872.360381,30
1766015872.361372,29
1766015872.36235,28
1766015872.363373,30
1766015872.364376,27
1766015872.365375,29
1766015872.366368,31
1766015872.367392,28
1766015872.368381,28
1766015872.3693929,25
1766015872.37039,29
1766015872.371418,25
1766015872.372389,28
1766015872.37342,26
1766015872.374403,26
1766015872.375482,28
1766015872.376429,29
1766015872.377443,30
1766015872.378422,29
1766015872.3794281,28
1766015872.380428,28
1766015872.3814342,27
1766015872.382421,28
1766015872.383441,28
1766015872.3844538,27
1766015872.385452,28
1766015872.386453,32
1766015872.387451,26
1766015872.3884459,29
1766015872.38946,27
1766015872.3904588,32
1766015872.391433,31
1766015872.3924391,30
1766015872.393461,29
1766015872.394467,32
1766015872.395478,35
1766015872.396478,35
1766015872.3974679,33
1766015872.398465,37
1766015872.399455,34
1766015872.400461,35
1766015872.401484,36
1766015872.4024808,36
1766015872.403491,39
1766015872.404489,35
1766015872.405483,37
1766015872.4064808,36
1766015872.407495,36
1766015872.408468,41
1766015872.409491,39
1766015872.4104939,35
1766015872.411511,39
1766015872.412512,37
1766015872.4135091,40
1766015872.41453,38
1766015872.4155269,40
1766015872.416533,38
1766015872.4175239,39
1766015872.418525,40
1766015872.41954,39
1766015872.4205399,38
1766015872.421537,38
1766015872.4225411,41
1766015872.423548,39
1766015872.424553,37
1766015872.425554,37
1766015872.4265401,40
1766015872.427559,40
1766015872.428556,40
1766015872.4295628,44
1766015872.430569,42
1766015872.431568,42
1766015872.4325628,41
1766015872.433557,42
1766015872.4345758,46
1766015872.4355772,44
1766015872.436577,46
1766015872.43758,44
1766015872.438595,46
1766015872.439591,47
1766015872.440597,49
1766015872.441565,47
1766015872.4426,46
1766015872.443611,50
1766015872.444615,47
1766015872.4456,50
1766015872.446604,51
1766015872.4476202,49
1766015872.4486048,48
1766015872.449599,45
1766015872.450612,48
1766015872.451617,47
1766015872.452629,49
1766015872.453632,48
1766015872.454653,48
1766015872.4556491,48
1766015872.456647,47
1766015872.457608,44
1766015872.458644,51
1766015872.459646,45
1766015872.4606988,44
1766015872.4616802,46
1766015872.462676,44
1766015872.463669,50
1766015872.464715,47
1766015872.4656708,45
1766015872.466657,45
1766015872.467665,43
1766015872.468666,41
1766015872.469721,42
1766015872.4707599,44
1766015872.471817,42
1766015872.472749,44
1766015872.473696,44
1766015872.474676,46
1766015872.475703,45
1766015872.476712,42
1766015872.477716,41
1766015872.4787042,42
1766015872.4796958,46
1766015872.4807198,42
1766015872.4817228,46
1766015872.482713,45
1766015872.4837089,43
1766015872.484713,43
1766015872.485717,43
1766015872.48673,42
1766015872.487712,42
1766015872.488731,42
1766015872.489713,46
1766015872.4907289,43
1766015872.491717,40
1766015872.492728,43
1766015872.493709,40
1766015872.4947069,45
1766015872.495726,44
1766015872.4967308,44
1766015872.497767,42
1766015872.498732,42
1766015872.4997408,46
1766015872.500736,45
1766015872.5017338,48
1766015872.502744,46
1766015872.5037692,47
1766015872.504777,48
1766015872.50576,49
1766015872.50677,50
1766015872.507746,49
1766015872.50876,50
1766015872.509763,52
1766015872.510794,49
1766015872.51181,51
1766015872.512832,47
1766015872.513851,46
1766015872.514823,47
1766015872.515829,48
1766015872.51683,47
1766015872.517795,51
1766015872.518819,51
1766015872.5198112,53
1766015872.5208151,53
1766015872.521823,52
1766015872.522828,49
1766015872.523818,52
1766015872.5248158,52
1766015872.525834,50
1766015872.526877,53
1766015872.527839,51
1766015872.5288372,50
1766015872.529889,50
1766015872.5308301,51
1766015872.5318432,47
1766015872.53284,48
1766015872.533864,47
1766015872.534865,50
1766015872.535865,51
1766015872.536864,45
1766015872.537865,43
1766015872.538867,49
1766015872.539882,45
1766015872.540877,48
1766015872.5418649,45
1766015872.542882,48
1766015872.543901,44
1766015872.5449011,47
1766015872.545894,46
1766015872.546892,49
1766015872.547901,49
1766015872.548904,50
1766015872.549919,47
1766015872.550909,47
1766015872.5519202,47
1766015872.5529,48
1766015872.553926,46
1766015872.554925,47
1766015872.5559192,47
1766015872.556918,48
1766015872.5579069,47
1766015872.558933,48
1766015872.559937,49
1766015872.560996,48
1766015872.561913,51
1766015872.562934,46
1766015872.563948,47
1766015872.564948,42
1766015872.565963,47
1766015872.566953,47
1766015872.567987,45
1766015872.568962,47
1766015872.569967,47
1766015872.570934,42
1766015872.5719502,45
1766015872.5729659,41
1766015872.573973,46
1766015872.574977,45
1766015872.5760581,46
1766015872.5770628,47
1766015872.5780559,46
1766015872.5789702,48
1766015872.580062,45
1766015872.5810602,45
1766015872.582057,45
1766015872.583037,44
1766015872.584042,45
1766015872.5850549,47
1766015872.5860538,41
1766015872.5870452,44
1766015872.5880451,45
1766015872.589061,46
1766015872.590059,40
1766015872.591088,45
1766015872.592082,47
1766015872.593089,50
1766015872.594066,47
1766015872.595056,47
1766015872.596054,50
1766015872.597058,49
1766015872.598063,48
1766015872.599041,46
1766015872.600076,47
1766015872.601048,47
1766015872.6021278,49
1766015872.603096,50
1766015872.6041338,47
1766015872.605067,45
1766015872.606137,45
1766015872.607059,44
1766015872.6080792,46
1766015872.6090932,45
1766015872.610116,47
1766015872.611056,50
1766015872.612094,46
1766015872.6131399,49
1766015872.614065,47
1766015872.615097,50
1766015872.616086,44
1766015872.617072,45
1766015872.618164,49
1766015872.619113,47
1766015872.620148,44
1766015872.6211278,46
1766015872.622163,45
1766015872.6231449,49
1766015872.624125,45
1766015872.625164,44
1766015872.62615,43
1766015872.6271942,44
1766015872.628164,43
1766015872.629199,42
1766015872.6301749,45
1766015872.631177,42
1766015872.632184,44
1766015872.633204,42
1766015872.634183,44
1766015872.6351922,44
1766015872.636182,44
1766015872.6372302,47
1766015872.63819,49
1766015872.639227,50
1766015872.6401842,49
1766015872.64123,47
1766015872.642199,52
1766015872.6432052,53
1766015872.644213,50
1766015872.645252,54
1766015872.646173,54
1766015872.647176,58
1766015872.648216,58
1766015872.649188,58
1766015872.650262,57
1766015872.651265,61
1766015872.652237,60
1766015872.653234,61
1766015872.654297,60
1766015872.655248,58
1766015872.6562319,61
1766015872.6572511,61
1766015872.658209,56
1766015872.659269,57
1766015872.660251,61
1766015872.661265,56
1766015872.66224,57
1766015872.663264,55
1766015872.664268,58
1766015872.665285,57
1766015872.666293,57
1766015872.6672819,57
1766015872.6682408,53
1766015872.669268,55
1766015872.670302,52
1766015872.671259,52
1766015872.6723142,51
1766015872.673308,51
1766015872.674262,50
1766015872.675285,50
1766015872.6762838,52
1766015872.677293,55
1766015872.6783202,52
1766015872.679295,54
1766015872.68029,59
1766015872.6812868,60
1766015872.682275,58
1766015872.683307,55
1766015872.684306,55
1766015872.685303,56
1766015872.686379,58
1766015872.687329,55
1766015872.688342,55
1766015872.6893508,55
1766015872.690339,54
1766015872.69135,57
1766015872.6923609,52
1766015872.693345,57
1766015872.69435,52
1766015872.695358,51
1766015872.69638,54
1766015872.697349,51
1766015872.698377,55
1766015872.699324,52
1766015872.7003698,54
1766015872.701368,49
1766015872.702369,50
1766015872.7033658,49
1766015872.704381,49
1766015872.70536,49
1766015872.7063649,48
1766015872.707346,52
1766015872.708378,49
1766015872.709374,50
1766015872.7103958,52
1766015872.7113862,47
1766015872.712391,50
1766015872.713391,48
1766015872.714402,46
1766015872.71536,49
1766015872.716395,47
1766015872.7174258,48
1766015872.718394,46
1766015872.719373,46
1766015872.720435,46
1766015872.721411,47
1766015872.722454,48
1766015872.723458,47
1766015872.724434,46
1766015872.7254322,44
1766015872.726437,47
1766015872.727457,44
1766015872.7284422,46
1766015872.729435,46
1766015872.730486,50
1766015872.731515,46
1766015872.7324271,45
1766015872.7334871,45
1766015872.7344608,47
1766015872.735504,45
1766015872.736479,48
1766015872.7374809,45
1766015872.7384698,52
1766015872.73949,47
1766015872.74051,48
1766015872.741496,46
1766015872.742503,46
1766015872.743495,49
1766015872.744519,47
1766015872.745507,45
1766015872.746496,43
1766015872.747495,44
1766015872.748503,44
1766015872.749481,43
1766015872.750499,40
1766015872.7515142,45
1766015872.752511,41
1766015872.753521,44
1766015872.754505,43
1766015872.755508,43
1766015872.756514,41
1766015872.757501,41
1766015872.758515,43
1766015872.759536,43
1766015872.7605271,42
1766015872.7615411,43
1766015872.7625442,40
1766015872.7635,40
1766015872.76453,39
1766015872.765557,37
1766015872.766521,39
1766015872.767545,42
1766015872.7685509,40
1766015872.769571,39
1766015872.770578,40
1766015872.7715971,40
1766015872.7725701,40
1766015872.773587,40
1766015872.774594,40
1766015872.7756019,42
1766015872.776601,40
1766015872.777602,37
1766015872.778614,39
1766015872.7796218,35
1766015872.780603,35
1766015872.781621,37
1766015872.782623,39
1766015872.783627,33
1766015872.78461,38
1766015872.785635,37
1766015872.786638,37
1766015872.787648,36
1766015872.788627,36
1766015872.7896059,38
1766015872.790655,37
1766015872.7916522,35
1766015872.792656,39
1766015872.7936482,37
1766015872.794692,37
1766015872.795657,39
1766015872.796638,38
1766015872.797627,39
1766015872.7986681,41
1766015872.799649,39
1766015872.8006668,37
1766015872.801696,40
1766015872.802654,39
1766015872.803678,39
1766015872.8046799,42
1766015872.805685,41
1766015872.806676,41
1766015872.80767,41
1766015872.8086889,42
1766015872.809696,39
1766015872.8107038,40
1766015872.811714,42
1766015872.812703,38
1766015872.813707,39
1766015872.814684,39
1766015872.8157508,42
1766015872.816664,37
1766015872.8177228,42
1766015872.8187158,37
1766015872.819721,39
1766015872.820711,43
1766015872.821718,39
1766015872.8227232,36
1766015872.82373,38
1766015872.824691,38
1766015872.825696,39
1766015872.826716,36
1766015872.827754,37
1766015872.828702,39
1766015872.82974,38
1766015872.8307269,39
1766015872.831753,37
1766015872.8327181,34
1766015872.833756,37
1766015872.8347409,38
1766015872.835756,36
1766015872.836753,37
1766015872.837722,35
1766015872.83873,37
1766015872.839773,37
1766015872.840735,38
1766015872.841743,38
1766015872.8427782,40
1766015872.84379,37
1766015872.844773,36
1766015872.8457558,37
1766015872.846785,39
1766015872.847755,36
1766015872.848809,39
1766015872.849801,37
1766015872.850797,38
1766015872.851768,40
1766015872.8528068,39
1766015872.853778,38
1766015872.854825,39
1766015872.855841,35
1766015872.8568509,36
1766015872.857814,39
1766015872.858837,34
1766015872.8597918,37
1766015872.8608,39
1766015872.861826,38
1766015872.8627992,36
1766015872.8638122,37
1766015872.86483,36
1766015872.865844,35
1766015872.866842,35
1766015872.867863,36
1766015872.86886,36
1766015872.869898,35
1766015872.870883,37
1766015872.871895,35
1766015872.872916,37
1766015872.873895,37
1766015872.874878,35
1766015872.875884,39
1766015872.8769011,39
1766015872.877878,38
1766015872.87887,39
1766015872.879881,41
1766015872.8808992,37
1766015872.8818948,39
1766015872.882895,39
1766015872.8839018,37
1766015872.8849049,39
1766015872.885899,37
1766015872.886893,38
1766015872.887907,43
1766015872.8889248,42
1766015872.8899179,40
1766015872.890914,40
1766015872.891924,43
1766015872.89293,42
1766015872.893913,43
1766015872.8949409,45
1766015872.895933,40
1766015872.896936,44
1766015872.897944,44
1766015872.898945,44
1766015872.8999522,46
1766015872.900952,42
1766015872.9019608,43
1766015872.9029608,44
1766015872.9039629,44
1766015872.904972,45
1766015872.905969,47
1766015872.906969,41
1766015872.90798,45
1766015872.908976,45
1766015872.9099789,43
1766015872.910984,43
1766015872.911981,44
1766015872.9129841,42
1766015872.9139872,41
1766015872.9149911,43
1766015872.916084,43
1766015872.9169888,47
1766015872.917983,43
1766015872.918998,46
1766015872.920002,45
1766015872.921087,48
1766015872.922086,46
1766015872.9230878,45
1766015872.924084,44
1766015872.925087,45
1766015872.9260852,45
1766015872.927084,41
1766015872.9280791,43
1766015872.9290838,41
1766015872.9300811,46
1766015872.9310908,43
1766015872.932084,40
1766015872.933097,37
1766015872.9340868,44
1766015872.9351192,41
1766015872.93611,39
1766015872.937104,41
1766015872.938093,41
1766015872.9390872,40
1766015872.940094,43
1766015872.941094,41
1766015872.9420831,42
1766015872.943085,41
1766015872.944093,41
1766015872.945086,42
1766015872.946086,43
1766015872.9470878,40
1766015872.9480891,40
1766015872.949085,42
1766015872.9500859,41
1766015872.951096,39
1766015872.952084,40
1766015872.953103,40
1766015872.954093,40
1766015872.955094,41
1766015872.9561,42
1766015872.95711,39
1766015872.958105,39
1766015872.959111,39
1766015872.960122,40
1766015872.961111,40
1766015872.96211,40
1766015872.963118,42
1766015872.964128,42
1766015872.965125,40
1766015872.966134,42
1766015872.9671419,41
1766015872.9681332,40
1766015872.96914,43
1766015872.9701362,43
1766015872.971148,46
1766015872.972151,44
1766015872.973155,44
1766015872.97414,46
1766015872.975148,45
1766015872.976168,45
1766015872.977174,46
1766015872.9781609,43
1766015872.9791832,46
1766015872.9801679,47
1766015872.981173,47
1766015872.9821749,43
1766015872.983188,42
1766015872.9842072,47
1766015872.985182,45
1766015872.9861782,47
1766015872.987196,43
1766015872.988192,44
1766015872.9891899,44
1766015872.9902,43
1766015872.9911969,46
1766015872.992199,46
