timestamp,emg_value
1766015891.817285,30
1766015891.817297,26
1766015891.8173518,29
1766015891.817365,26
1766015891.817376,27
1766015891.817387,29
1766015891.8173969,27
1766015891.817407,33
1766015891.817417,32
1766015891.817445,34
1766015891.817457,30
1766015891.817468,32
1766015891.817478,30
1766015891.817488,29
1766015891.8174982,34
1766015891.817508,30
1766015891.817518,29
1766015891.8175292,31
1766015891.817539,33
1766015891.817549,32
1766015891.817558,33
1766015891.817568,32
1766015891.817579,33
1766015891.8175879,35
1766015891.8175979,35
1766015891.817609,33
1766015891.817618,36
1766015891.817628,33
1766015891.817638,36
1766015891.817649,34
1766015891.817659,35
1766015891.8176682,31
1766015891.817682,35
1766015891.8176918,35
1766015891.8177018,34
1766015891.817712,34
1766015891.817722,34
1766015891.817732,36
1766015891.817742,32
1766015891.8177521,34
1766015891.8177621,33
1766015891.8177722,31
1766015891.817782,33
1766015891.817792,30
1766015891.817802,34
1766015891.817812,35
1766015891.817822,35
1766015891.817832,31
1766015891.817842,33
1766015891.817852,32
1766015891.8178618,35
1766015891.8178718,35
1766015891.817882,34
1766015891.817892,34
1766015891.817902,33
1766015891.817912,31
1766015891.817922,34
1766015891.8179321,30
1766015891.817941,34
1766015891.817951,30
1766015891.817961,31
1766015891.817971,31
1766015891.817981,30
1766015891.817991,28
1766015891.8180091,32
1766015891.818021,33
1766015891.818031,31
1766015891.818041,30
1766015891.818051,29
1766015891.818061,28
1766015891.8180711,31
1766015891.81808,26
1766015891.81809,29
1766015891.8181,31
1766015891.81811,30
1766015891.81812,30
1766015891.81813,30
1766015891.818141,29
1766015891.818151,29
1766015891.818161,27
1766015891.8181708,31
1766015891.818181,29
1766015891.81819,30
1766015891.8182,27
1766015891.8182101,33
1766015891.8182201,31
1766015891.81823,29
1766015891.81824,27
1766015891.81825,30
1766015891.818259,31
1766015891.818269,31
1766015891.818279,29
1766015891.8182888,30
1766015891.8183,27
1766015891.8183098,30
1766015891.8183198,28
1766015891.8183491,30
1766015891.818362,30
1766015891.8183732,31
1766015891.8183832,28
1766015891.818393,28
1766015891.8184042,28
1766015891.818414,31
1766015891.818423,30
1766015891.818434,31
1766015891.818443,27
1766015891.818453,30
1766015891.818463,29
1766015891.818474,32
1766015891.818486,30
1766015891.818496,28
1766015891.818506,27
1766015891.818516,28
1766015891.818526,32
1766015891.81855,29
1766015891.818561,28
1766015891.818572,29
1766015891.818582,28
1766015891.818593,29
1766015891.818603,31
1766015891.818614,33
1766015891.818624,33
1766015891.818635,33
1766015891.818645,35
1766015891.818656,31
1766015891.818666,34
1766015891.818676,32
1766015891.818687,32
1766015891.818697,34
1766015891.8187132,32
1766015891.8187258,33
1766015891.818736,30
1766015891.8187468,33
1766015891.818757,30
1766015891.818767,32
1766015891.818777,32
1766015891.818788,31
1766015891.818798,31
1766015891.818808,27
1766015891.818819,29
1766015891.818829,33
1766015891.81884,29
1766015891.81885,31
1766015891.818861,30
1766015891.818871,25
1766015891.818891,27
1766015891.818914,31
1766015891.8189251,29
1766015891.818936,30
1766015891.818953,32
1766015891.818963,31
1766015891.8189728,32
1766015891.8189828,29
1766015891.8189929,30
1766015891.8190029,33
1766015891.819015,31
1766015891.8190248,30
1766015891.8190348,29
1766015891.819045,31
1766015891.819055,30
1766015891.819065,28
1766015891.819077,30
1766015891.81909,30
1766015891.8191009,32
1766015891.8191109,31
1766015891.819121,30
1766015891.819131,32
1766015891.8191411,33
1766015891.8191512,33
1766015891.8191612,31
1766015891.8191712,29
1766015891.819181,25
1766015891.81919,28
1766015891.819202,28
1766015891.819212,29
1766015891.819222,31
1766015891.819232,29
1766015891.819241,29
1766015891.819251,29
1766015891.8192608,27
1766015891.8192708,28
1766015891.8192809,31
1766015891.8192909,31
1766015891.8193011,27
1766015891.8193111,29
1766015891.8193212,24
1766015891.8193312,26
1766015891.819341,29
1766015891.819351,28
1766015891.819361,30
1766015891.819371,28
1766015891.819381,30
1766015891.819391,29
1766015891.819401,30
1766015891.819414,26
1766015891.819426,28
1766015891.819436,27
1766015891.819446,32
1766015891.819456,30
1766015891.8194728,30
1766015891.8194828,26
1766015891.8194938,24
1766015891.819505,25
1766015891.819515,29
1766015891.819525,23
1766015891.819535,28
1766015891.819545,29
1766015891.819555,23
1766015891.819565,25
1766015891.819575,25
1766015891.819585,26
1766015891.819595,28
1766015891.819604,28
1766015891.819614,25
1766015891.819624,25
1766015891.819634,25
1766015891.819644,26
1766015891.819654,27
1766015891.8196638,24
1766015891.819675,25
1766015891.819687,30
1766015891.8196962,23
1766015891.8197062,25
1766015891.8197162,27
1766015891.8197272,25
1766015891.8197372,25
1766015891.8197482,27
1766015891.8197892,27
1766015891.819802,25
1766015891.8198211,26
1766015891.8198678,22
1766015891.81988,26
1766015891.81989,26
1766015891.819902,28
1766015891.819912,25
1766015891.819922,25
1766015891.819932,29
1766015891.819942,24
1766015891.819952,24
1766015891.819963,24
1766015891.8199732,27
1766015891.819982,25
1766015891.819992,25
1766015891.820002,29
1766015891.820014,24
1766015891.8200252,23
1766015891.820034,28
1766015891.820044,26
1766015891.820054,24
1766015891.820064,24
1766015891.820074,24
1766015891.820085,27
1766015891.820095,26
1766015891.820105,27
1766015891.820114,27
1766015891.820124,26
1766015891.820134,27
1766015891.8201442,27
1766015891.8201542,26
1766015891.820182,25
1766015891.820195,24
1766015891.820207,27
1766015891.8202171,25
1766015891.8202271,25
1766015891.8202372,26
1766015891.820247,28
1766015891.820257,24
1766015891.820267,26
1766015891.820277,23
1766015891.820288,27
1766015891.820298,26
1766015891.820308,24
1766015891.820318,29
1766015891.820328,25
1766015891.820338,26
1766015891.8203478,27
1766015891.8203578,23
1766015891.820367,26
1766015891.820377,25
1766015891.820388,24
1766015891.8203971,24
1766015891.8204072,25
1766015891.820417,24
1766015891.820427,24
1766015891.820437,26
1766015891.820447,27
1766015891.820457,22
1766015891.820467,25
1766015891.820477,25
1766015891.820487,27
1766015891.8204968,23
1766015891.820508,24
1766015891.8205209,23
1766015891.820532,25
1766015891.8205419,24
1766015891.8205519,26
1766015891.820562,25
1766015891.820572,23
1766015891.820582,22
1766015891.8205922,22
1766015891.8206022,24
1766015891.8206122,25
1766015891.820622,25
1766015891.820631,27
1766015891.820642,25
1766015891.820652,22
1766015891.820661,27
1766015891.820672,25
1766015891.820694,23
1766015891.8207061,23
1766015891.820717,25
1766015891.820729,25
1766015891.82074,23
1766015891.82075,25
1766015891.8207612,25
1766015891.8207731,21
1766015891.820784,27
1766015891.8207989,22
1766015891.82081,22
1766015891.820821,26
1766015891.820832,23
1766015891.820843,26
1766015891.820854,23
1766015891.820865,25
1766015891.8208792,25
1766015891.8208919,23
1766015891.8209028,24
1766015891.820914,25
1766015891.820925,23
1766015891.820936,25
1766015891.820947,23
1766015891.820957,21
1766015891.820968,23
1766015891.8209789,25
1766015891.8209898,25
1766015891.821001,24
1766015891.8210182,23
1766015891.82103,23
1766015891.8210409,25
1766015891.821051,24
1766015891.8210618,24
1766015891.8210728,23
1766015891.821084,23
1766015891.8210938,21
1766015891.821105,23
1766015891.821116,22
1766015891.821126,24
1766015891.821137,23
1766015891.821148,23
1766015891.821158,22
1766015891.821169,25
1766015891.8211799,25
1766015891.8211908,23
1766015891.8212018,21
1766015891.821213,24
1766015891.821223,26
1766015891.821235,22
1766015891.821249,24
1766015891.8212612,24
1766015891.8212721,23
1766015891.821283,21
1766015891.821294,22
1766015891.821305,25
1766015891.821315,26
1766015891.821326,25
1766015891.821337,22
1766015891.8213482,23
1766015891.821358,27
1766015891.8213692,25
1766015891.8213801,24
1766015891.8213902,21
1766015891.8214011,22
1766015891.821412,23
1766015891.821422,23
1766015891.821433,23
1766015891.821444,20
1766015891.821455,23
1766015891.821465,21
1766015891.821476,26
1766015891.8214872,25
1766015891.8214972,25
1766015891.8215082,24
1766015891.8215191,22
1766015891.82153,22
1766015891.821541,24
1766015891.821551,23
1766015891.821562,22
1766015891.821573,23
1766015891.821584,22
1766015891.8215969,27
1766015891.82161,19
1766015891.821621,23
1766015891.821632,25
1766015891.821643,24
1766015891.821654,22
1766015891.821665,24
1766015891.821675,23
1766015891.821686,21
1766015891.821697,23
1766015891.821708,21
1766015891.821718,23
1766015891.821729,24
1766015891.8217402,26
1766015891.821751,23
1766015891.821762,22
1766015891.821772,20
1766015891.821783,21
1766015891.821794,20
1766015891.821804,22
1766015891.821815,23
1766015891.8218298,24
1766015891.821842,20
1766015891.821853,23
1766015891.821863,24
1766015891.821874,23
1766015891.8218849,20
1766015891.821895,24
1766015891.8219059,21
1766015891.8219168,25
1766015891.821928,22
1766015891.821938,25
1766015891.82195,24
1766015891.821964,20
1766015891.821976,23
1766015891.821986,22
1766015891.8219972,24
1766015891.822013,23
1766015891.822026,21
1766015891.822036,21
1766015891.822047,22
1766015891.822058,25
1766015891.822068,23
1766015891.822079,23
1766015891.82209,24
1766015891.8221,23
1766015891.822111,22
1766015891.822122,24
1766015891.8221319,23
1766015891.822143,22
1766015891.8221529,22
1766015891.822164,23
1766015891.822175,23
1766015891.822185,22
1766015891.822196,22
1766015891.822207,26
1766015891.822217,24
1766015891.822228,26
1766015891.822238,23
1766015891.822249,23
1766015891.822259,25
1766015891.82227,25
1766015891.82228,21
1766015891.822291,24
1766015891.822301,25
1766015891.822315,22
1766015891.8223271,21
1766015891.822338,24
1766015891.822349,22
1766015891.82236,23
1766015891.822371,24
1766015891.822381,22
1766015891.822392,21
1766015891.822403,23
1766015891.822413,24
1766015891.8224242,23
1766015891.822434,23
1766015891.8224452,26
1766015891.8224561,26
1766015891.8224661,25
1766015891.822477,25
1766015891.822488,23
1766015891.822499,23
1766015891.822509,24
1766015891.82252,24
1766015891.822531,22
1766015891.822541,25
1766015891.822552,22
1766015891.8225632,23
1766015891.822573,27
1766015891.8225842,21
1766015891.8225942,25
1766015891.8226051,25
1766015891.8226151,22
1766015891.822626,25
1766015891.8226361,23
1766015891.822647,28
1766015891.822659,25
1766015891.822672,24
1766015891.8226838,28
1766015891.8226938,22
1766015891.822722,24
1766015891.8227332,25
1766015891.822743,24
1766015891.822753,26
1766015891.822763,26
1766015891.822773,24
1766015891.822783,25
1766015891.822793,25
1766015891.822803,23
1766015891.822813,27
1766015891.8228228,25
1766015891.822832,25
1766015891.8228421,23
1766015891.8228521,23
1766015891.8228621,27
1766015891.8228722,25
1766015891.822882,25
1766015891.822892,27
1766015891.822902,24
1766015891.822912,21
1766015891.822922,25
1766015891.822932,25
1766015891.822942,24
1766015891.822952,27
1766015891.8229618,23
1766015891.8229718,22
1766015891.8229818,24
1766015891.8229918,28
1766015891.823002,27
1766015891.823015,26
1766015891.823026,28
1766015891.823037,26
1766015891.823047,29
1766015891.823057,27
1766015891.823067,27
1766015891.8230772,28
1766015891.8230872,23
1766015891.823097,26
1766015891.8231082,29
1766015891.823118,27
1766015891.823128,25
1766015891.823138,27
1766015891.823148,23
1766015891.823158,28
1766015891.823169,23
1766015891.823179,27
1766015891.823189,22
1766015891.823199,29
1766015891.823209,25
1766015891.82322,25
1766015891.82323,28
1766015891.82324,26
1766015891.8232498,29
1766015891.8232598,27
1766015891.8232698,29
1766015891.82328,27
1766015891.8232908,27
1766015891.823301,27
1766015891.8233118,28
1766015891.8233228,26
1766015891.823355,26
1766015891.82339,27
1766015891.823444,27
1766015891.8234508,28
1766015891.8234591,27
1766015891.8234649,26
1766015891.82347,25
1766015891.823476,25
1766015891.823482,26
1766015891.823488,28
1766015891.823493,26
1766015891.823499,28
1766015891.823505,21
1766015891.82351,26
1766015891.823516,28
1766015891.823522,27
1766015891.8235269,25
1766015891.823533,25
1766015891.823539,29
1766015891.823544,27
1766015891.82355,27
1766015891.823555,25
1766015891.823561,29
1766015891.8235662,24
1766015891.823583,25
1766015891.8236,27
1766015891.8236108,22
1766015891.823623,28
1766015891.823634,26
1766015891.823646,25
1766015891.823657,23
1766015891.823668,24
1766015891.823679,27
1766015891.82369,24
1766015891.8237162,27
1766015891.823728,23
1766015891.823738,27
1766015891.823749,26
1766015891.8237598,26
1766015891.8237708,27
1766015891.823782,28
1766015891.8237948,28
1766015891.8238049,24
1766015891.823818,28
1766015891.823829,23
1766015891.823839,25
1766015891.8238878,25
1766015891.823894,27
1766015891.8239,27
1766015891.823906,26
1766015891.823911,25
1766015891.8239172,27
1766015891.823922,27
1766015891.823927,25
1766015891.823933,24
1766015891.823939,25
1766015891.8239439,24
1766015891.823949,26
1766015891.823955,26
1766015891.82396,25
1766015891.8239648,26
1766015891.823971,24
1766015891.823976,28
1766015891.823981,28
1766015891.823987,27
1766015891.823992,24
1766015891.824,25
1766015891.8240058,27
1766015891.824011,28
1766015891.8240159,24
1766015891.824022,25
1766015891.8240268,28
1766015891.824032,28
1766015891.824039,26
1766015891.824044,26
1766015891.824049,27
1766015891.824055,25
1766015891.82406,27
1766015891.824065,27
1766015891.824071,28
1766015891.824076,27
1766015891.824081,25
1766015891.8240871,26
1766015891.824092,26
1766015891.824098,28
1766015891.8241029,30
1766015891.8241081,27
1766015891.8241138,28
1766015891.824119,26
1766015891.8241239,27
1766015891.82413,26
1766015891.8241348,28
1766015891.82414,24
1766015891.8241448,26
1766015891.824151,30
1766015891.8241558,28
1766015891.824215,28
1766015891.824229,26
1766015891.8242402,25
1766015891.824252,28
1766015891.824267,28
1766015891.824277,30
1766015891.824288,29
1766015891.824298,29
1766015891.824309,26
1766015891.824319,25
1766015891.824353,27
1766015891.824363,29
1766015891.824376,27
1766015891.8243861,27
1766015891.824397,27
1766015891.824407,29
1766015891.824417,27
1766015891.8244312,27
1766015891.8244412,29
1766015891.824451,29
1766015891.8244638,29
1766015891.824474,24
1766015891.824484,27
1766015891.8244941,29
1766015891.824505,26
1766015891.824515,26
1766015891.824526,29
1766015891.8245382,27
1766015891.8245509,29
1766015891.8245618,28
1766015891.8245718,28
1766015891.824585,26
1766015891.824596,26
1766015891.824606,27
1766015891.824616,27
1766015891.824626,26
1766015891.824658,28
1766015891.8246698,29
1766015891.8246799,29
1766015891.824691,27
1766015891.824702,27
1766015891.824716,27
1766015891.8247292,25
1766015891.824739,29
1766015891.824752,28
1766015891.8247628,26
1766015891.8247738,27
1766015891.8247838,26
1766015891.8247948,28
1766015891.824805,28
1766015891.824815,25
1766015891.824826,26
1766015891.824836,25
1766015891.824846,28
1766015891.824883,31
1766015891.824895,27
1766015891.8249059,26
1766015891.824916,29
1766015891.824926,27
1766015891.8249369,27
1766015891.8249469,28
1766015891.824957,27
1766015891.824967,24
1766015891.824995,29
1766015891.825006,28
1766015891.8250408,25
1766015891.825052,27
1766015891.8250618,25
1766015891.825075,27
1766015891.8250859,27
1766015891.825098,25
1766015891.825108,25
1766015891.825119,24
1766015891.825129,24
1766015891.825141,26
1766015891.825151,28
1766015891.825161,27
1766015891.825171,26
1766015891.825181,24
1766015891.825191,25
1766015891.8252008,25
1766015891.8252108,24
1766015891.8252218,26
1766015891.8252318,22
1766015891.825242,24
1766015891.825257,23
1766015891.8252668,24
1766015891.825296,25
1766015891.8253062,25
1766015891.8253171,24
1766015891.8253272,27
1766015891.8253381,23
1766015891.8253481,21
1766015891.8253582,24
1766015891.8253691,22
1766015891.8253791,24
1766015891.825404,26
1766015891.8254101,23
1766015891.8254158,28
1766015891.825421,24
1766015891.825427,25
1766015891.825432,22
1766015891.825438,23
1766015891.825443,25
1766015891.825448,25
1766015891.825454,23
1766015891.82546,26
1766015891.8254652,25
1766015891.82547,29
1766015891.8254762,26
1766015891.825481,24
1766015891.8254871,27
1766015891.825492,25
1766015891.8254972,27
1766015891.8255029,25
1766015891.825568,23
1766015891.825574,25
1766015891.825579,25
1766015891.825585,22
1766015891.8255901,24
1766015891.8255959,25
1766015891.825602,26
1766015891.8256068,22
1766015891.825613,25
1766015891.825618,26
1766015891.825624,24
1766015891.825629,24
1766015891.825635,21
1766015891.82564,25
1766015891.8256462,24
1766015891.825651,24
1766015891.8256562,21
1766015891.825662,25
1766015891.8256671,21
1766015891.825672,24
1766015891.825678,25
1766015891.825709,22
1766015891.825721,25
1766015891.825731,25
1766015891.825741,21
1766015891.825752,24
1766015891.825762,23
1766015891.825773,23
1766015891.825783,26
1766015891.825793,22
1766015891.825804,24
1766015891.825814,25
1766015891.8258371,23
1766015891.825848,24
1766015891.825859,25
1766015891.825869,24
1766015891.825879,25
1766015891.82589,23
1766015891.8259,21
1766015891.82591,22
1766015891.825921,23
1766015891.825931,23
1766015891.825941,21
1766015891.8259509,23
1766015891.8259609,25
1766015891.825971,25
1766015891.8259819,19
1766015891.8259919,23
1766015891.826002,24
1766015891.8260329,24
1766015891.826047,23
1766015891.826058,26
1766015891.826068,23
1766015891.826093,22
1766015891.8261068,24
1766015891.826118,24
1766015891.8261278,22
1766015891.826138,26
1766015891.826148,22
1766015891.826158,22
1766015891.826168,23
1766015891.826178,23
1766015891.826189,22
1766015891.826199,25
1766015891.826209,23
1766015891.826219,26
1766015891.826229,22
1766015891.8262389,22
1766015891.826258,21
1766015891.826281,20
1766015891.826287,24
1766015891.8263009,24
1766015891.826307,23
1766015891.8263118,23
1766015891.826317,23
1766015891.826339,22
1766015891.826356,23
1766015891.826367,22
1766015891.826377,21
1766015891.826387,25
1766015891.826441,23
1766015891.826462,22
1766015891.826473,23
1766015891.826483,23
1766015891.826553,23
1766015891.826568,21
1766015891.8265789,25
1766015891.8267012,21
1766015891.826723,23
1766015891.826773,22
1766015891.826784,21
1766015891.826823,19
1766015891.826842,25
1766015891.826848,24
1766015891.826869,26
1766015891.826878,26
1766015891.826883,19
1766015891.826889,24
1766015891.826894,23
1766015891.8269,25
1766015891.826907,20
1766015891.826913,21
1766015891.8269188,25
1766015891.826924,22
1766015891.8269289,24
1766015891.826935,25
1766015891.8269398,22
1766015891.826945,19
1766015891.826965,22
1766015891.827019,21
1766015891.82703,25
1766015891.8270888,23
1766015891.827116,24
1766015891.827126,24
1766015891.827137,24
1766015891.827147,25
1766015891.8271732,23
1766015891.827185,21
1766015891.827206,22
1766015891.8272169,22
1766015891.8272278,24
1766015891.827282,21
1766015891.827293,20
1766015891.827304,26
1766015891.827324,23
1766015891.827335,24
1766015891.8273458,23
1766015891.8273568,25
1766015891.8273668,23
1766015891.827378,25
1766015891.827391,22
1766015891.827403,24
1766015891.827414,22
1766015891.827425,24
1766015891.827435,22
1766015891.827447,22
1766015891.8274891,23
1766015891.827501,20
1766015891.827512,25
1766015891.8275259,24
1766015891.8275368,23
1766015891.8275468,20
1766015891.8275578,22
1766015891.8275788,23
1766015891.827585,23
1766015891.82759,23
1766015891.827596,23
1766015891.827601,21
1766015891.827606,20
1766015891.827611,24
1766015891.827616,23
1766015891.8276322,21
1766015891.827649,25
1766015891.8276548,23
1766015891.82766,24
1766015891.8276649,23
1766015891.827671,22
1766015891.8276758,21
1766015891.827681,24
1766015891.8276858,24
1766015891.827692,23
1766015891.8276968,25
1766015891.827702,20
1766015891.8277068,25
1766015891.827713,25
1766015891.8277178,20
1766015891.827723,22
1766015891.827729,25
1766015891.827734,24
1766015891.8277388,22
1766015891.827744,24
1766015891.82775,22
1766015891.827755,22
1766015891.8277602,21
1766015891.827766,23
1766015891.827771,21
1766015891.827776,22
1766015891.827782,25
1766015891.827787,23
1766015891.827793,24
1766015891.8277981,24
1766015891.827803,24
1766015891.827808,24
1766015891.8278131,24
1766015891.827819,23
1766015891.827824,21
1766015891.82783,23
1766015891.8278348,22
1766015891.82784,24
1766015891.8278568,23
1766015891.8279428,25
1766015891.827949,22
1766015891.8279738,19
1766015891.827987,22
1766015891.827998,23
1766015891.828009,22
1766015891.82811,20
1766015891.829103,26
1766015891.8300958,22
1766015891.831095,20
1766015891.832099,24
1766015891.8331149,20
1766015891.834143,23
1766015891.8351629,21
1766015891.836187,26
1766015891.837152,25
1766015891.838113,21
1766015891.839117,23
1766015891.840141,22
1766015891.841134,20
1766015891.8421319,23
1766015891.843147,23
1766015891.844189,22
1766015891.8452039,22
1766015891.8465998,22
1766015891.847219,21
1766015891.8481762,21
1766015891.849152,23
1766015891.850173,23
1766015891.851166,26
1766015891.8521569,24
1766015891.853167,24
1766015891.854152,23
1766015891.85515,23
1766015891.856159,22
1766015891.857186,21
1766015891.858156,24
1766015891.859168,23
1766015891.86017,23
1766015891.861248,23
1766015891.8622851,26
1766015891.86336,25
1766015891.8643,26
1766015891.8652139,24
1766015891.866427,24
1766015891.86725,24
1766015891.868232,23
1766015891.86928,22
1766015891.870239,22
1766015891.871213,22
1766015891.8722172,24
1766015891.873214,23
1766015891.8742158,22
1766015891.8752089,21
1766015891.87621,20
1766015891.877215,23
1766015891.8782232,23
1766015891.879234,23
1766015891.8802419,24
1766015891.881257,26
1766015891.88225,25
1766015891.883241,24
1766015891.8842251,22
1766015891.885236,25
1766015891.886276,26
1766015891.887423,23
1766015891.8887522,24
1766015891.889258,21
1766015891.890399,25
1766015891.8912761,25
1766015891.89228,23
1766015891.893301,24
1766015891.894281,24
1766015891.8952918,22
1766015891.89635,23
1766015891.897349,26
1766015891.898318,21
1766015891.899334,23
1766015891.900328,18
1766015891.901304,23
1766015891.9022982,25
1766015891.903299,25
1766015891.904314,19
1766015891.905312,21
1766015891.906315,22
1766015891.907316,21
1766015891.9083278,21
1766015891.909333,25
1766015891.910339,23
1766015891.9113421,21
1766015891.912339,24
1766015891.9133399,25
1766015891.914324,20
1766015891.915321,23
1766015891.9163258,23
1766015891.917323,22
1766015891.918325,22
1766015891.919334,24
1766015891.92034,21
1766015891.921356,24
1766015891.922355,22
1766015891.9233549,24
1766015891.92434,22
1766015891.925341,22
1766015891.926365,24
1766015891.927371,26
1766015891.928376,23
1766015891.9293911,24
1766015891.9303832,25
1766015891.9313731,23
1766015891.932385,23
1766015891.933389,23
1766015891.934401,21
1766015891.935403,26
1766015891.936408,25
1766015891.937409,23
1766015891.938398,22
1766015891.939426,22
1766015891.940408,19
1766015891.941409,23
1766015891.942442,23
1766015891.943419,23
1766015891.944418,23
1766015891.945417,22
1766015891.94642,25
1766015891.94742,23
1766015891.948431,22
1766015891.949435,25
1766015891.950449,24
1766015891.951444,25
1766015891.952425,22
1766015891.9534469,22
1766015891.954435,21
1766015891.955464,24
1766015891.956455,24
1766015891.957454,23
1766015891.958451,24
1766015891.959449,26
1766015891.9604511,24
1766015891.961461,27
1766015891.962442,23
1766015891.963448,26
1766015891.964459,22
1766015891.965489,24
1766015891.966503,26
1766015891.967496,24
1766015891.968493,23
1766015891.96948,23
1766015891.9704762,26
1766015891.971482,24
1766015891.97248,23
1766015891.9734871,23
1766015891.974484,21
1766015891.9754891,23
1766015891.976494,25
1766015891.977484,23
1766015891.978492,22
1766015891.9795442,23
1766015891.980493,25
1766015891.9815,24
1766015891.982523,23
1766015891.9835498,22
1766015891.984525,24
1766015891.985524,24
1766015891.9865339,25
1766015891.987547,23
1766015891.988529,23
1766015891.989525,24
1766015891.990531,24
1766015891.991585,24
1766015891.992531,23
1766015891.993572,27
1766015891.994546,24
1766015891.99558,26
1766015891.996547,22
1766015891.997588,24
1766015891.998537,24
1766015891.999564,23
1766015892.000604,24
1766015892.0015738,25
1766015892.002559,24
1766015892.003572,25
1766015892.00458,27
1766015892.005625,21
1766015892.006578,24
1766015892.007639,25
1766015892.0086432,24
1766015892.009634,21
1766015892.0105789,24
1766015892.011588,24
1766015892.012587,26
1766015892.01364,22
1766015892.014654,22
1766015892.015672,26
1766015892.0166411,24
1766015892.017743,25
1766015892.018734,25
1766015892.019697,24
1766015892.0206609,26
1766015892.0216892,24
1766015892.0227158,21
1766015892.023703,22
1766015892.024711,23
1766015892.025686,23
1766015892.026674,23
1766015892.027665,26
1766015892.0286772,27
1766015892.029697,21
1766015892.030693,21
1766015892.031685,23
1766015892.032653,24
1766015892.0336618,27
1766015892.034678,23
1766015892.0356731,22
1766015892.0367181,27
1766015892.037686,25
1766015892.038701,26
1766015892.0396779,24
1766015892.040684,24
1766015892.041687,29
1766015892.042686,24
1766015892.043686,27
1766015892.044704,25
1766015892.045721,25
1766015892.0467079,24
1766015892.0477061,24
1766015892.048696,25
1766015892.0497038,30
1766015892.050702,28
1766015892.051698,28
1766015892.052701,29
1766015892.053704,29
1766015892.0547452,29
1766015892.0557141,28
1766015892.056715,29
1766015892.057725,30
1766015892.058731,31
1766015892.059728,30
1766015892.0607412,27
1766015892.0617568,29
1766015892.062788,29
1766015892.063757,27
1766015892.0647528,30
1766015892.065757,28
1766015892.066747,28
1766015892.067741,29
1766015892.068765,32
1766015892.069767,29
1766015892.07081,27
1766015892.071759,29
1766015892.072788,31
1766015892.0737762,30
1766015892.074792,28
1766015892.0757608,28
1766015892.0768,27
1766015892.0777972,28
1766015892.0788,28
1766015892.079815,30
1766015892.080797,32
1766015892.081802,33
1766015892.0828202,33
1766015892.0838242,29
1766015892.084813,29
1766015892.085844,34
1766015892.0868201,30
1766015892.087807,27
1766015892.088812,29
1766015892.089808,32
1766015892.090857,27
1766015892.091852,26
1766015892.0928159,29
1766015892.0938408,28
1766015892.0948339,31
1766015892.095881,31
1766015892.096877,30
1766015892.097862,31
1766015892.09886,29
1766015892.0998569,28
1766015892.1008599,26
1766015892.101836,29
1766015892.1028879,28
1766015892.103876,32
1766015892.104875,30
1766015892.105867,32
1766015892.106872,28
1766015892.107871,29
1766015892.1088672,31
1766015892.109867,30
1766015892.110892,31
1766015892.1118941,30
1766015892.1129012,35
1766015892.11389,29
1766015892.114897,30
1766015892.115907,29
1766015892.116909,33
1766015892.117886,31
1766015892.1189198,28
1766015892.119921,29
1766015892.1209338,31
1766015892.1219058,32
1766015892.123018,30
1766015892.123918,32
1766015892.124933,30
1766015892.125918,30
1766015892.1270242,32
1766015892.128012,33
1766015892.1290162,31
1766015892.130014,31
1766015892.13101,30
1766015892.1320362,28
1766015892.133016,31
1766015892.1340039,30
1766015892.135006,30
1766015892.13602,30
1766015892.1370199,29
1766015892.138029,32
1766015892.139014,31
1766015892.140023,30
1766015892.141031,31
1766015892.1420329,32
1766015892.143019,32
1766015892.144007,33
1766015892.145015,33
1766015892.146069,31
1766015892.147017,34
1766015892.148014,33
1766015892.149038,31
1766015892.150016,34
1766015892.151019,32
1766015892.15203,32
1766015892.1530309,34
1766015892.154041,34
1766015892.155042,31
1766015892.156063,32
1766015892.157034,33
1766015892.158031,32
1766015892.159033,34
1766015892.160057,31
1766015892.161101,32
1766015892.162096,31
1766015892.163038,34
1766015892.164059,34
1766015892.165051,33
1766015892.166071,29
1766015892.167041,33
1766015892.1680481,33
1766015892.169046,33
1766015892.170069,32
1766015892.171079,34
1766015892.172126,32
1766015892.173047,36
1766015892.1741161,30
1766015892.175065,35
1766015892.176102,33
1766015892.177095,32
1766015892.17807,35
1766015892.179086,36
1766015892.180109,31
1766015892.181092,33
1766015892.182121,34
1766015892.183103,31
1766015892.184094,34
1766015892.185081,35
1766015892.186112,36
1766015892.187128,35
1766015892.1881201,36
1766015892.189118,31
1766015892.190141,33
1766015892.191116,36
1766015892.192124,35
1766015892.1931431,33
1766015892.19415,31
1766015892.195155,32
1766015892.1962318,32
1766015892.197152,36
1766015892.1981509,30
1766015892.199157,34
1766015892.2001579,32
1766015892.2011452,32
1766015892.2021601,31
1766015892.2031481,34
1766015892.204166,31
1766015892.205163,35
1766015892.2061388,35
1766015892.207158,33
1766015892.208166,30
1766015892.209179,34
1766015892.210176,36
1766015892.211159,32
1766015892.21215,31
1766015892.2131772,31
1766015892.214175,32
1766015892.215175,30
1766015892.216178,32
1766015892.217201,33
1766015892.2182028,32
1766015892.219195,31
1766015892.220182,32
1766015892.221191,32
1766015892.222198,31
1766015892.2232,32
1766015892.2242072,34
1766015892.2252128,31
1766015892.226225,38
1766015892.227215,32
1766015892.228213,35
1766015892.2292202,34
1766015892.2302349,32
1766015892.231238,33
1766015892.2322319,33
1766015892.233341,35
1766015892.23426,31
1766015892.2352378,31
1766015892.2362251,31
1766015892.237231,32
1766015892.238235,34
1766015892.239268,32
1766015892.240246,32
1766015892.241243,33
1766015892.24226,35
1766015892.243268,34
1766015892.244264,34
1766015892.245266,31
1766015892.246272,32
1766015892.2472908,33
1766015892.248281,38
1766015892.249303,35
1766015892.250334,34
1766015892.2513,35
1766015892.252297,37
1766015892.2532961,36
1766015892.25431,35
1766015892.255303,36
1766015892.256309,36
1766015892.25731,36
1766015892.2583098,36
1766015892.259347,37
1766015892.260304,39
1766015892.2613142,34
1766015892.262314,33
1766015892.263319,37
1766015892.2643352,35
1766015892.265352,36
1766015892.266318,40
1766015892.267353,36
1766015892.268336,36
1766015892.269334,36
1766015892.2703412,38
1766015892.271358,36
1766015892.272373,38
1766015892.27335,36
1766015892.274334,39
1766015892.2753458,36
1766015892.2763672,39
1766015892.277355,38
1766015892.278368,37
1766015892.279383,37
1766015892.280372,35
1766015892.2813718,40
1766015892.2823958,41
1766015892.283384,39
1766015892.284399,38
1766015892.2854111,39
1766015892.286447,39
1766015892.2874188,41
1766015892.288393,42
1766015892.289421,40
1766015892.290396,40
1766015892.2913952,40
1766015892.292418,44
1766015892.2934139,41
1766015892.29441,41
1766015892.295425,44
1766015892.296413,44
1766015892.297434,36
1766015892.298414,40
1766015892.299412,40
1766015892.300416,36
1766015892.301446,39
1766015892.302433,39
1766015892.303443,40
1766015892.304436,40
1766015892.305452,38
1766015892.306453,36
1766015892.3074849,38
1766015892.30848,37
1766015892.3094778,39
1766015892.310459,39
1766015892.3114681,41
1766015892.312489,43
1766015892.313465,42
1766015892.3144698,43
1766015892.315479,42
1766015892.316471,44
1766015892.317489,45
1766015892.318492,42
1766015892.3194802,37
1766015892.320481,37
1766015892.3215392,40
1766015892.322526,42
1766015892.323508,41
1766015892.324506,43
1766015892.325488,43
1766015892.3265321,39
1766015892.327517,42
1766015892.328502,42
1766015892.329505,37
1766015892.330529,39
1766015892.331519,41
1766015892.332512,41
1766015892.33356,39
1766015892.334524,41
1766015892.3355641,40
1766015892.336558,40
1766015892.337549,41
1766015892.3385332,44
1766015892.339531,40
1766015892.340597,41
1766015892.3415391,40
1766015892.342592,42
1766015892.343552,36
1766015892.344589,40
1766015892.345568,40
1766015892.346595,39
1766015892.3475652,40
1766015892.348576,39
1766015892.34956,38
1766015892.350571,41
1766015892.351578,40
1766015892.3525708,40
1766015892.353645,40
1766015892.354589,38
1766015892.355595,41
1766015892.3566,40
1766015892.357603,39
1766015892.3585951,39
1766015892.359596,38
1766015892.3606231,40
1766015892.3616278,38
1766015892.36263,40
1766015892.36362,40
1766015892.364641,39
1766015892.365626,38
1766015892.366611,38
1766015892.367627,39
1766015892.3686342,37
1766015892.369643,36
1766015892.370643,41
1766015892.3716538,36
1766015892.372659,38
1766015892.373646,39
1766015892.374627,38
1766015892.375673,38
1766015892.376648,38
1766015892.3776472,41
1766015892.378664,40
1766015892.379668,36
1766015892.380678,38
1766015892.381669,38
1766015892.382646,37
1766015892.383682,36
1766015892.384675,37
1766015892.3856661,35
1766015892.38667,37
1766015892.3876932,36
1766015892.388681,37
1766015892.3896809,39
1766015892.390701,36
1766015892.39169,38
1766015892.392694,36
1766015892.3937678,39
1766015892.394707,33
1766015892.3957682,37
1766015892.396692,36
1766015892.3977149,37
1766015892.398714,36
1766015892.3997052,36
1766015892.4006982,35
1766015892.4017322,35
1766015892.402715,40
1766015892.4037278,39
1766015892.404736,39
1766015892.405744,38
1766015892.406744,39
1766015892.407721,37
1766015892.4087439,39
1766015892.409739,40
1766015892.410743,41
1766015892.411755,42
1766015892.4127538,37
1766015892.413759,40
1766015892.414824,40
1766015892.415751,41
1766015892.416773,37
1766015892.417779,38
1766015892.418761,42
1766015892.4197602,41
1766015892.4207659,39
1766015892.42179,38
1766015892.4227798,39
1766015892.4237912,36
1766015892.42476,41
1766015892.425798,37
1766015892.426802,36
1766015892.427795,38
1766015892.428811,39
1766015892.429812,39
1766015892.430793,41
1766015892.431808,38
1766015892.432818,39
1766015892.43382,36
1766015892.4348211,36
1766015892.43583,38
1766015892.436844,40
1766015892.437846,35
1766015892.4388638,35
1766015892.4398642,36
1766015892.440825,38
1766015892.441876,37
1766015892.442862,39
1766015892.443862,36
1766015892.444843,37
1766015892.4458492,37
1766015892.4468741,36
1766015892.4478762,33
1766015892.448864,38
1766015892.449847,36
1766015892.450895,36
1766015892.4518778,40
1766015892.4528792,35
1766015892.453871,39
1766015892.454881,35
1766015892.455929,38
1766015892.456938,34
1766015892.457929,39
1766015892.4588952,40
1766015892.459931,40
1766015892.4609358,40
1766015892.461946,40
1766015892.4629319,41
1766015892.463934,43
1766015892.464915,39
1766015892.4658968,42
1766015892.466906,42
1766015892.467922,45
1766015892.4689212,44
1766015892.469922,45
1766015892.4709172,45
1766015892.471932,42
1766015892.472932,42
1766015892.473962,47
1766015892.4749088,44
1766015892.476013,42
1766015892.476917,42
1766015892.4779909,43
1766015892.4789271,41
1766015892.48,40
1766015892.481008,43
1766015892.481997,40
1766015892.482993,41
1766015892.484,39
1766015892.484994,42
1766015892.486001,39
1766015892.4870021,39
1766015892.488022,39
1766015892.4890199,38
1766015892.490002,38
1766015892.490999,37
1766015892.492003,38
1766015892.492998,41
1766015892.4940002,38
1766015892.4950101,37
1766015892.496035,38
1766015892.4970381,37
1766015892.498046,36
1766015892.499033,38
1766015892.5000079,36
1766015892.501004,37
1766015892.502014,36
1766015892.5030148,36
1766015892.504012,34
1766015892.505044,35
1766015892.506021,35
1766015892.5070138,35
1766015892.5081038,37
1766015892.509015,37
1766015892.5100548,35
1766015892.5110369,35
1766015892.512037,33
1766015892.5130482,36
1766015892.514049,37
1766015892.5150511,35
1766015892.516026,34
1766015892.517063,33
1766015892.518048,33
1766015892.519053,34
1766015892.520073,36
1766015892.521078,33
1766015892.52208,33
1766015892.523065,34
1766015892.524072,32
1766015892.525075,32
1766015892.5260959,31
1766015892.527086,33
1766015892.528069,33
1766015892.529067,34
1766015892.5300548,33
1766015892.531064,29
1766015892.532065,33
1766015892.533081,32
1766015892.534078,34
1766015892.535084,32
1766015892.536094,33
1766015892.5371032,34
1766015892.5381918,35
1766015892.539126,35
1766015892.5401258,31
1766015892.541108,35
1766015892.5421388,36
1766015892.5431528,35
1766015892.5441558,37
1766015892.545165,34
1766015892.5462132,33
1766015892.547146,37
1766015892.548147,35
1766015892.549123,37
1766015892.550143,36
1766015892.55114,41
1766015892.5521522,36
1766015892.553163,38
1766015892.554155,38
1766015892.555151,36
1766015892.5561469,36
1766015892.557148,37
1766015892.558174,37
1766015892.559165,37
1766015892.560149,38
1766015892.5611799,35
1766015892.562172,37
1766015892.5631711,37
1766015892.564178,34
1766015892.565245,37
1766015892.566196,35
1766015892.567185,36
1766015892.56818,33
1766015892.5691872,34
1766015892.570233,34
1766015892.5712252,35
1766015892.5722392,37
1766015892.5732028,35
1766015892.57423,35
1766015892.575239,36
1766015892.576214,36
1766015892.5772212,34
1766015892.57823,35
1766015892.5792499,38
1766015892.580241,38
1766015892.581234,35
1766015892.582252,34
1766015892.583264,37
1766015892.58426,38
1766015892.585251,35
1766015892.586262,35
1766015892.5872571,35
1766015892.588301,34
1766015892.5892532,37
1766015892.590258,35
1766015892.591306,36
1766015892.5922759,34
1766015892.593259,34
1766015892.5943701,36
1766015892.5953212,33
1766015892.596364,34
1766015892.5973399,36
1766015892.598337,35
1766015892.599294,34
1766015892.6002939,35
1766015892.601307,33
1766015892.602368,35
1766015892.603356,37
1766015892.604353,37
1766015892.6053681,37
1766015892.606355,33
1766015892.607323,37
1766015892.60836,32
1766015892.609374,38
1766015892.6104221,36
1766015892.611398,37
1766015892.612424,35
1766015892.6133802,37
1766015892.6144269,35
1766015892.6153522,37
1766015892.616409,38
1766015892.617431,33
1766015892.61843,38
1766015892.619393,33
1766015892.620424,36
1766015892.621374,34
1766015892.6224241,33
1766015892.6233878,35
1766015892.624386,37
1766015892.6254468,33
1766015892.6263978,34
1766015892.627413,37
1766015892.6283991,35
1766015892.62943,35
1766015892.630422,34
1766015892.6314418,32
1766015892.632372,36
1766015892.633468,35
1766015892.6344168,34
1766015892.6354501,33
1766015892.636447,36
1766015892.637446,34
1766015892.638456,32
1766015892.639489,33
1766015892.640467,31
1766015892.641501,34
1766015892.642478,35
1766015892.643496,34
1766015892.64446,31
1766015892.6454809,34
1766015892.646475,32
1766015892.6474822,30
1766015892.648486,32
1766015892.649442,32
1766015892.650454,30
1766015892.651526,33
1766015892.6524942,33
1766015892.6535192,32
1766015892.6544662,35
1766015892.655516,34
1766015892.656512,35
1766015892.657453,34
1766015892.6585028,33
1766015892.65953,35
1766015892.660511,34
1766015892.661509,29
1766015892.6625228,32
1766015892.663535,32
1766015892.6645272,33
1766015892.665559,32
1766015892.666569,32
1766015892.667572,33
1766015892.668554,33
1766015892.669533,33
1766015892.670539,31
1766015892.6715572,33
1766015892.672557,30
1766015892.673549,32
1766015892.674578,32
1766015892.675628,31
1766015892.676595,33
1766015892.6775732,36
1766015892.678598,34
1766015892.6795552,32
1766015892.680575,33
1766015892.681534,30
1766015892.6825862,33
1766015892.6836429,33
1766015892.684605,29
1766015892.685581,29
1766015892.686584,32
1766015892.687604,28
1766015892.6886091,32
1766015892.6896179,31
1766015892.690637,32
1766015892.691618,31
1766015892.69264,35
1766015892.6936362,32
1766015892.694622,33
1766015892.695627,32
1766015892.6966531,33
1766015892.69764,32
1766015892.698664,30
1766015892.6996312,31
1766015892.7006989,33
1766015892.7016299,31
1766015892.702633,29
1766015892.703635,29
1766015892.7046568,31
1766015892.705663,28
1766015892.7066638,31
1766015892.7076511,35
1766015892.708651,33
1766015892.7096908,34
1766015892.7106612,32
1766015892.711663,31
1766015892.7126698,34
1766015892.713675,31
1766015892.714686,33
1766015892.715656,33
1766015892.716672,34
1766015892.717694,30
1766015892.718685,33
1766015892.7196648,30
1766015892.720703,32
1766015892.7217028,28
1766015892.7227032,33
1766015892.723701,29
1766015892.724658,29
1766015892.725733,30
1766015892.7267132,31
1766015892.727711,33
1766015892.728707,35
1766015892.729721,34
1766015892.730714,34
1766015892.7317178,29
1766015892.732749,32
1766015892.7337449,33
1766015892.734737,31
1766015892.735743,34
1766015892.7367392,33
1766015892.73775,30
1766015892.7387352,34
1766015892.7397592,31
1766015892.740716,32
1766015892.741801,32
1766015892.7427552,31
1766015892.743774,31
1766015892.744759,30
1766015892.745758,32
1766015892.7467678,31
1766015892.747776,29
1766015892.748805,29
1766015892.749745,33
1766015892.7508101,33
1766015892.751798,34
1766015892.752786,34
1766015892.753792,32
1766015892.7548,30
1766015892.755796,30
1766015892.756803,33
1766015892.757758,35
1766015892.758794,36
1766015892.759818,36
1766015892.7608051,35
1766015892.761821,34
1766015892.762815,36
1766015892.7638211,34
1766015892.764843,33
1766015892.765785,33
1766015892.7668211,35
1766015892.767827,33
1766015892.768821,35
1766015892.769825,34
1766015892.770826,33
1766015892.77184,34
1766015892.772844,35
1766015892.773864,36
1766015892.774834,35
1766015892.775894,34
1766015892.7768588,34
1766015892.777844,35
1766015892.7788422,34
1766015892.779883,33
1766015892.780859,35
1766015892.781866,34
1766015892.782837,32
1766015892.783844,31
1766015892.784843,32
1766015892.785888,32
1766015892.786883,32
1766015892.787885,32
1766015892.7888918,31
1766015892.789891,31
1766015892.790872,34
1766015892.791893,32
1766015892.7929091,30
1766015892.7938921,31
1766015892.794869,30
1766015892.795914,33
1766015892.7968829,34
1766015892.797919,35
1766015892.798911,31
1766015892.799912,34
1766015892.800929,34
1766015892.801926,34
1766015892.8029282,35
1766015892.803914,36
1766015892.8049312,32
1766015892.8059342,31
1766015892.806962,32
1766015892.807928,37
1766015892.80895,36
1766015892.809935,34
1766015892.810951,32
1766015892.8119419,33
1766015892.813056,35
1766015892.8139598,33
1766015892.8149602,35
1766015892.816035,32
1766015892.817059,33
1766015892.818045,34
