timestamp,emg_value
1766015898.0752482,47
1766015898.075268,48
1766015898.0752819,45
1766015898.075296,45
1766015898.075309,46
1766015898.0753222,46
1766015898.075336,47
1766015898.07535,45
1766015898.0753632,45
1766015898.075377,47
1766015898.0753899,47
1766015898.075404,46
1766015898.075417,44
1766015898.07543,47
1766015898.075444,45
1766015898.075458,43
1766015898.0754712,43
1766015898.075485,44
1766015898.0754979,43
1766015898.075514,44
1766015898.075528,45
1766015898.075541,44
1766015898.075555,43
1766015898.0755682,42
1766015898.07558,46
1766015898.075594,44
1766015898.075607,43
1766015898.0756202,43
1766015898.0756328,44
1766015898.075646,42
1766015898.075659,43
1766015898.0756721,43
1766015898.075695,42
1766015898.0757089,42
1766015898.075722,38
1766015898.075735,41
1766015898.0757482,43
1766015898.0757608,43
1766015898.075774,39
1766015898.075787,40
1766015898.0758002,40
1766015898.0758138,42
1766015898.075827,41
1766015898.07584,41
1766015898.075854,41
1766015898.075868,45
1766015898.075881,42
1766015898.075894,45
1766015898.075907,47
1766015898.0759208,45
1766015898.075936,41
1766015898.075952,42
1766015898.075965,46
1766015898.075979,45
1766015898.075992,43
1766015898.0760052,43
1766015898.0760179,46
1766015898.076032,43
1766015898.0760472,44
1766015898.0760598,40
1766015898.076073,44
1766015898.076088,40
1766015898.076101,43
1766015898.076115,41
1766015898.0761302,41
1766015898.07615,41
1766015898.076163,39
1766015898.076176,44
1766015898.076189,42
1766015898.076202,42
1766015898.076214,40
1766015898.0762272,44
1766015898.0762398,43
1766015898.076253,40
1766015898.076268,41
1766015898.076281,43
1766015898.076294,42
1766015898.076313,44
1766015898.076326,40
1766015898.07634,41
1766015898.076353,38
1766015898.0763679,41
1766015898.076381,40
1766015898.076394,39
1766015898.076406,39
1766015898.076419,40
1766015898.076432,43
1766015898.0764449,40
1766015898.076458,42
1766015898.076471,40
1766015898.0764859,42
1766015898.076499,42
1766015898.076513,40
1766015898.076528,39
1766015898.076541,40
1766015898.076556,39
1766015898.076571,40
1766015898.076593,41
1766015898.076606,36
1766015898.07662,43
1766015898.076633,40
1766015898.0766468,39
1766015898.07666,43
1766015898.076673,39
1766015898.076687,44
1766015898.076701,38
1766015898.076715,39
1766015898.076729,42
1766015898.076743,40
1766015898.0767622,40
1766015898.076778,41
1766015898.076792,38
1766015898.076807,41
1766015898.07682,38
1766015898.0768352,44
1766015898.076848,41
1766015898.0768619,41
1766015898.076876,38
1766015898.076889,38
1766015898.0769038,40
1766015898.076919,39
1766015898.0769339,40
1766015898.076947,42
1766015898.0769632,43
1766015898.076976,42
1766015898.076989,41
1766015898.0770009,38
1766015898.077015,42
1766015898.07703,39
1766015898.077046,36
1766015898.07706,43
1766015898.0770729,41
1766015898.077086,39
1766015898.077101,43
1766015898.0771148,40
1766015898.077131,37
1766015898.077145,43
1766015898.07716,42
1766015898.0771751,42
1766015898.0771892,39
1766015898.077203,38
1766015898.077216,38
1766015898.077229,40
1766015898.0772421,35
1766015898.077256,39
1766015898.07727,36
1766015898.077286,37
1766015898.0773,37
1766015898.077313,40
1766015898.077328,36
1766015898.077344,39
1766015898.077358,39
1766015898.077371,33
1766015898.077384,37
1766015898.077397,36
1766015898.07741,35
1766015898.077423,39
1766015898.077436,40
1766015898.0774488,36
1766015898.077462,36
1766015898.077476,40
1766015898.0774899,38
1766015898.077506,41
1766015898.0775218,42
1766015898.077536,38
1766015898.0775511,38
1766015898.077564,41
1766015898.077579,40
1766015898.077593,39
1766015898.077607,39
1766015898.07762,39
1766015898.077634,39
1766015898.0776489,37
1766015898.077663,35
1766015898.077677,35
1766015898.0776918,35
1766015898.077705,35
1766015898.077718,38
1766015898.0777311,38
1766015898.077745,38
1766015898.077759,33
1766015898.077773,36
1766015898.077785,35
1766015898.077798,34
1766015898.077811,33
1766015898.077825,36
1766015898.0778391,34
1766015898.077852,32
1766015898.077866,34
1766015898.0778801,33
1766015898.077893,34
1766015898.077906,37
1766015898.07792,32
1766015898.0779321,31
1766015898.077945,31
1766015898.077963,36
1766015898.077976,37
1766015898.0779898,34
1766015898.078003,34
1766015898.078016,34
1766015898.078031,34
1766015898.078044,34
1766015898.0780559,35
1766015898.07807,35
1766015898.078082,36
1766015898.0780952,34
1766015898.0781078,34
1766015898.078122,35
1766015898.078136,34
1766015898.078151,36
1766015898.078167,38
1766015898.078182,37
1766015898.0781949,36
1766015898.078208,33
1766015898.078221,34
1766015898.0782368,38
1766015898.078252,34
1766015898.0782652,34
1766015898.078277,34
1766015898.07829,33
1766015898.078305,35
1766015898.078318,34
1766015898.078331,34
1766015898.078343,36
1766015898.078357,38
1766015898.0783691,38
1766015898.078382,34
1766015898.078398,33
1766015898.078412,33
1766015898.0784252,34
1766015898.0784378,33
1766015898.078451,38
1766015898.078466,34
1766015898.078482,37
1766015898.078497,33
1766015898.07851,35
1766015898.078523,35
1766015898.078536,35
1766015898.078549,37
1766015898.078562,33
1766015898.0785751,34
1766015898.078588,36
1766015898.078603,35
1766015898.0786161,37
1766015898.078629,34
1766015898.078642,35
1766015898.078655,32
1766015898.078669,34
1766015898.078683,34
1766015898.0786948,36
1766015898.078708,36
1766015898.078721,37
1766015898.0787358,36
1766015898.07875,36
1766015898.078764,35
1766015898.0787761,38
1766015898.0787892,34
1766015898.0788019,36
1766015898.078815,38
1766015898.07883,39
1766015898.078846,39
1766015898.078859,36
1766015898.078872,34
1766015898.0788858,34
1766015898.0788999,38
1766015898.0789142,32
1766015898.078929,35
1766015898.078942,32
1766015898.078957,36
1766015898.0789719,37
1766015898.078985,35
1766015898.078998,32
1766015898.079011,31
1766015898.079027,34
1766015898.079042,32
1766015898.079055,32
1766015898.0790699,35
1766015898.079084,34
1766015898.079099,34
1766015898.079112,35
1766015898.079127,30
1766015898.0791402,30
1766015898.0791528,32
1766015898.079167,33
1766015898.0791821,31
1766015898.0791948,31
1766015898.079208,33
1766015898.079221,31
1766015898.079233,34
1766015898.079247,31
1766015898.0792608,31
1766015898.079274,30
1766015898.0792892,30
1766015898.079304,32
1766015898.079317,32
1766015898.0793312,31
1766015898.079345,30
1766015898.0793579,31
1766015898.079371,28
1766015898.079384,28
1766015898.079396,31
1766015898.079409,30
1766015898.079423,31
1766015898.079437,30
1766015898.0794501,29
1766015898.079465,28
1766015898.079479,31
1766015898.079492,31
1766015898.079505,30
1766015898.079519,30
1766015898.079534,32
1766015898.079547,30
1766015898.079562,28
1766015898.079575,29
1766015898.0795882,31
1766015898.079603,30
1766015898.079617,31
1766015898.0796318,29
1766015898.0796459,30
1766015898.079659,35
1766015898.079672,31
1766015898.0796852,31
1766015898.0797,31
1766015898.079713,28
1766015898.0797272,29
1766015898.079743,33
1766015898.079756,30
1766015898.0797691,30
1766015898.0797818,31
1766015898.079795,30
1766015898.079808,29
1766015898.079824,30
1766015898.0798368,31
1766015898.079851,31
1766015898.079864,30
1766015898.0798771,28
1766015898.07989,32
1766015898.079902,34
1766015898.079916,30
1766015898.07993,30
1766015898.079946,30
1766015898.07996,30
1766015898.0799732,31
1766015898.0799859,30
1766015898.079999,29
1766015898.080012,31
1766015898.080024,30
1766015898.080037,30
1766015898.08005,28
1766015898.0800629,29
1766015898.0800781,29
1766015898.0800908,30
1766015898.080106,30
1766015898.08012,29
1766015898.0801332,29
1766015898.0801458,32
1766015898.080161,32
1766015898.0801752,28
1766015898.080192,30
1766015898.080205,29
1766015898.08022,29
1766015898.080235,30
1766015898.080248,33
1766015898.080262,31
1766015898.080277,32
1766015898.0802932,31
1766015898.080307,32
1766015898.08032,33
1766015898.0803359,32
1766015898.080352,34
1766015898.0803661,34
1766015898.080381,33
1766015898.080395,33
1766015898.080408,32
1766015898.08042,33
1766015898.080435,32
1766015898.080448,34
1766015898.080461,28
1766015898.0804741,33
1766015898.080489,34
1766015898.080502,31
1766015898.0805151,32
1766015898.0805278,31
1766015898.080541,30
1766015898.080555,31
1766015898.0805702,31
1766015898.0805812,31
1766015898.0805938,29
1766015898.080608,30
1766015898.080619,32
1766015898.080634,31
1766015898.080647,31
1766015898.0806599,32
1766015898.080673,29
1766015898.080686,31
1766015898.080697,30
1766015898.080708,30
1766015898.08072,31
1766015898.080731,30
1766015898.080742,29
1766015898.0807538,31
1766015898.080766,30
1766015898.080778,31
1766015898.080789,29
1766015898.080801,30
1766015898.080812,31
1766015898.0808241,32
1766015898.080835,32
1766015898.080847,32
1766015898.0808582,33
1766015898.0808692,29
1766015898.0808802,32
1766015898.0808918,31
1766015898.0809028,31
1766015898.080915,29
1766015898.080926,30
1766015898.080937,32
1766015898.0809479,32
1766015898.08096,33
1766015898.081023,30
1766015898.081038,26
1766015898.0810502,31
1766015898.0810611,28
1766015898.0811038,32
1766015898.081119,28
1766015898.081131,28
1766015898.0811431,34
1766015898.081155,28
1766015898.0811672,31
1766015898.0811782,28
1766015898.0811899,30
1766015898.0812008,28
1766015898.081213,29
1766015898.081224,27
1766015898.081236,31
1766015898.081248,29
1766015898.08126,29
1766015898.081271,29
1766015898.0812821,26
1766015898.081295,30
1766015898.0813062,28
1766015898.081318,28
1766015898.0813289,30
1766015898.081341,29
1766015898.081352,30
1766015898.081364,28
1766015898.081376,30
1766015898.081388,31
1766015898.0814002,31
1766015898.0814111,26
1766015898.081423,29
1766015898.081434,28
1766015898.081446,29
1766015898.081457,27
1766015898.0814679,30
1766015898.081495,28
1766015898.081507,27
1766015898.081522,26
1766015898.081534,25
1766015898.0815449,28
1766015898.081557,27
1766015898.081568,30
1766015898.08158,31
1766015898.0815911,26
1766015898.081603,26
1766015898.081614,26
1766015898.081625,27
1766015898.0816371,27
1766015898.0816488,28
1766015898.0816598,28
1766015898.081671,25
1766015898.081683,25
1766015898.081727,29
1766015898.081741,24
1766015898.0817542,28
1766015898.081766,27
1766015898.081779,24
1766015898.08179,27
1766015898.081802,26
1766015898.081813,26
1766015898.081825,28
1766015898.081836,27
1766015898.0818481,27
1766015898.08186,28
1766015898.081871,30
1766015898.081883,29
1766015898.081894,28
1766015898.081909,25
1766015898.081921,26
1766015898.081933,24
1766015898.0819452,27
1766015898.0819578,27
1766015898.0819688,26
1766015898.08198,27
1766015898.081992,25
1766015898.082004,27
1766015898.082015,26
1766015898.082026,26
1766015898.082037,25
1766015898.0820491,24
1766015898.082061,25
1766015898.082072,24
1766015898.082083,26
1766015898.0820951,24
1766015898.082106,25
1766015898.0821178,26
1766015898.082129,27
1766015898.082141,24
1766015898.082152,25
1766015898.082164,26
1766015898.082175,28
1766015898.082187,24
1766015898.082198,24
1766015898.082209,25
1766015898.082221,25
1766015898.0822332,26
1766015898.0822442,24
1766015898.0822558,26
1766015898.0822668,24
1766015898.082279,25
1766015898.082304,25
1766015898.082318,23
1766015898.0823302,25
1766015898.082342,24
1766015898.0823529,23
1766015898.082365,23
1766015898.082376,25
1766015898.082388,27
1766015898.082399,24
1766015898.08241,27
1766015898.082421,20
1766015898.082433,23
1766015898.0824451,25
1766015898.082456,26
1766015898.082467,26
1766015898.082479,24
1766015898.082491,24
1766015898.082502,22
1766015898.08254,23
1766015898.082554,23
1766015898.0825658,26
1766015898.082577,24
1766015898.082589,23
1766015898.082601,23
1766015898.082612,21
1766015898.082623,26
1766015898.082635,22
1766015898.082647,23
1766015898.082658,20
1766015898.08267,22
1766015898.0826812,22
1766015898.082693,22
1766015898.082708,24
1766015898.082719,25
1766015898.082731,23
1766015898.082743,23
1766015898.0827541,24
1766015898.082765,23
1766015898.082777,21
1766015898.082788,23
1766015898.0828001,25
1766015898.0828109,22
1766015898.0828228,23
1766015898.082834,23
1766015898.082846,23
1766015898.082857,21
1766015898.082869,22
1766015898.08288,21
1766015898.082891,23
1766015898.0829031,24
1766015898.082915,25
1766015898.082926,23
1766015898.0829382,25
1766015898.0829499,21
1766015898.0829608,22
1766015898.082973,25
1766015898.082984,24
1766015898.082996,23
1766015898.0830069,25
1766015898.083019,22
1766015898.08303,24
1766015898.0830421,23
1766015898.083053,26
1766015898.083065,22
1766015898.0830772,27
1766015898.083092,25
1766015898.083104,22
1766015898.083115,25
1766015898.083127,24
1766015898.083138,24
1766015898.0831501,22
1766015898.083161,23
1766015898.083173,23
1766015898.0831869,23
1766015898.083199,23
1766015898.08321,26
1766015898.083222,22
1766015898.083234,25
1766015898.083246,23
1766015898.0832572,24
1766015898.0832682,23
1766015898.0832798,24
1766015898.0832908,21
1766015898.083303,23
1766015898.083315,21
1766015898.0833259,22
1766015898.083339,21
1766015898.08335,23
1766015898.083362,22
1766015898.083374,23
1766015898.0833862,23
1766015898.0833979,25
1766015898.0834088,23
1766015898.0834198,22
1766015898.083432,21
1766015898.083443,22
1766015898.083455,24
1766015898.0834692,23
1766015898.083483,22
1766015898.083495,23
1766015898.0835059,24
1766015898.083518,25
1766015898.083529,23
1766015898.083541,26
1766015898.083552,24
1766015898.083564,22
1766015898.083575,23
1766015898.0835872,21
1766015898.0835981,24
1766015898.083609,24
1766015898.083621,22
1766015898.083633,24
1766015898.083644,23
1766015898.0836549,19
1766015898.083667,21
1766015898.083678,25
1766015898.083689,23
1766015898.083701,23
1766015898.083713,22
1766015898.083724,23
1766015898.083735,24
1766015898.0837471,25
1766015898.083759,24
1766015898.08377,22
1766015898.083781,26
1766015898.083793,23
1766015898.083806,21
1766015898.083818,23
1766015898.083829,23
1766015898.083841,22
1766015898.0838552,21
1766015898.0838661,22
1766015898.0838778,23
1766015898.083889,26
1766015898.083901,22
1766015898.083912,22
1766015898.083924,22
1766015898.083935,25
1766015898.083947,23
1766015898.083959,23
1766015898.08397,24
1766015898.083982,25
1766015898.0839942,24
1766015898.084005,25
1766015898.084016,22
1766015898.084029,24
1766015898.08404,24
1766015898.084052,23
1766015898.084064,20
1766015898.084075,25
1766015898.084086,21
1766015898.084098,25
1766015898.084109,24
1766015898.0841222,24
1766015898.0841331,23
1766015898.0841448,22
1766015898.0841558,21
1766015898.084167,21
1766015898.084179,22
1766015898.08419,24
1766015898.084202,22
1766015898.084213,23
1766015898.0842261,25
1766015898.084238,25
1766015898.0842502,22
1766015898.0842612,24
1766015898.0842729,20
1766015898.084285,23
1766015898.084297,22
1766015898.084308,22
1766015898.08432,23
1766015898.084331,24
1766015898.084342,25
1766015898.0843542,23
1766015898.0843651,25
1766015898.084377,21
1766015898.084388,22
1766015898.084399,23
1766015898.084409,23
1766015898.0844202,24
1766015898.08443,23
1766015898.08444,25
1766015898.08445,24
1766015898.08446,20
1766015898.08447,23
1766015898.08448,22
1766015898.084491,24
1766015898.084501,21
1766015898.084511,23
1766015898.084521,24
1766015898.0845308,19
1766015898.084542,24
1766015898.084552,23
1766015898.0845618,23
1766015898.0845718,23
1766015898.084584,21
1766015898.084594,24
1766015898.0846038,25
1766015898.0846138,23
1766015898.084625,21
1766015898.0846348,22
1766015898.084646,22
1766015898.0846562,24
1766015898.084666,22
1766015898.084676,25
1766015898.084687,21
1766015898.0846982,23
1766015898.0847082,21
1766015898.084718,25
1766015898.084728,23
1766015898.084738,22
1766015898.084749,24
1766015898.084759,24
1766015898.084769,22
1766015898.084779,23
1766015898.084789,22
1766015898.084799,23
1766015898.084809,22
1766015898.0848188,25
1766015898.0848289,24
1766015898.0848389,22
1766015898.0848498,24
1766015898.0848808,22
1766015898.084898,22
1766015898.084909,23
1766015898.0849202,21
1766015898.08493,23
1766015898.0849438,23
1766015898.084955,25
1766015898.084966,24
1766015898.0849762,20
1766015898.0849862,23
1766015898.0849972,22
1766015898.0850072,20
1766015898.0850172,24
1766015898.0850282,21
1766015898.0850382,20
1766015898.085048,24
1766015898.085058,21
1766015898.085069,21
1766015898.085079,25
1766015898.085092,22
1766015898.085102,23
1766015898.085112,22
1766015898.085122,22
1766015898.0851321,24
1766015898.085142,22
1766015898.085153,24
1766015898.085163,21
1766015898.085173,23
1766015898.085184,23
1766015898.0851939,23
1766015898.085204,25
1766015898.085214,24
1766015898.085224,22
1766015898.0852349,24
1766015898.085245,24
1766015898.085255,23
1766015898.0852659,22
1766015898.085276,22
1766015898.085288,22
1766015898.0852978,23
1766015898.0853078,22
1766015898.0853179,24
1766015898.0853279,23
1766015898.0853388,21
1766015898.085349,22
1766015898.085359,20
1766015898.08537,23
1766015898.08538,26
1766015898.08539,21
1766015898.0854,22
1766015898.085411,24
1766015898.085421,21
1766015898.085432,23
1766015898.085442,24
1766015898.085452,22
1766015898.085463,20
1766015898.085473,24
1766015898.085483,19
1766015898.085494,21
1766015898.085504,20
1766015898.085515,23
1766015898.085525,22
1766015898.085535,22
1766015898.085546,20
1766015898.085556,25
1766015898.085567,25
1766015898.085577,20
1766015898.085588,23
1766015898.085598,24
1766015898.085608,24
1766015898.08562,24
1766015898.085633,21
1766015898.085644,25
1766015898.085654,22
1766015898.085665,27
1766015898.085675,22
1766015898.085685,23
1766015898.085695,21
1766015898.085706,22
1766015898.085716,24
1766015898.085726,22
1766015898.085736,26
1766015898.0857458,19
1766015898.085757,22
1766015898.085767,25
1766015898.0857768,22
1766015898.0857868,20
1766015898.0857978,22
1766015898.085809,25
1766015898.08582,22
1766015898.08583,23
1766015898.08584,22
1766015898.08585,25
1766015898.08586,21
1766015898.08587,23
1766015898.08588,20
1766015898.08589,23
1766015898.0859,20
1766015898.08591,21
1766015898.08592,22
1766015898.0859299,24
1766015898.08594,22
1766015898.085957,22
1766015898.0859678,24
1766015898.085978,20
1766015898.085988,24
1766015898.085998,22
1766015898.086009,24
1766015898.086019,22
1766015898.086029,23
1766015898.086039,23
1766015898.086049,20
1766015898.086058,25
1766015898.086069,18
1766015898.086079,21
1766015898.086089,25
1766015898.086099,23
1766015898.086109,22
1766015898.086119,23
1766015898.08613,25
1766015898.08614,21
1766015898.086151,26
1766015898.086161,22
1766015898.086171,22
1766015898.0861819,22
1766015898.0861921,21
1766015898.0862021,24
1766015898.0862122,21
1766015898.0862222,23
1766015898.086232,19
1766015898.086242,25
1766015898.086252,21
1766015898.086262,22
1766015898.086272,24
1766015898.086283,23
1766015898.086294,24
1766015898.086303,26
1766015898.086313,25
1766015898.086324,24
1766015898.086334,22
1766015898.086427,24
1766015898.0864441,23
1766015898.086457,23
1766015898.08647,24
1766015898.086483,21
1766015898.086496,22
1766015898.086509,24
1766015898.0865211,23
1766015898.0865338,23
1766015898.086547,24
1766015898.086559,22
1766015898.086572,23
1766015898.086585,26
1766015898.0865972,20
1766015898.0866098,23
1766015898.086623,28
1766015898.086636,19
1766015898.0866492,22
1766015898.0866618,23
1766015898.086675,23
1766015898.086688,27
1766015898.0867012,19
1766015898.086713,24
1766015898.086726,21
1766015898.0867388,23
1766015898.086752,24
1766015898.086764,23
1766015898.086777,25
1766015898.0867898,24
1766015898.086803,24
1766015898.086816,24
1766015898.086829,23
1766015898.086841,23
1766015898.086854,23
1766015898.0868669,25
1766015898.08688,25
1766015898.0868921,25
1766015898.086905,24
1766015898.0869179,22
1766015898.086931,25
1766015898.086944,24
1766015898.086957,23
1766015898.08697,22
1766015898.086983,24
1766015898.086996,22
1766015898.087009,28
1766015898.087021,26
1766015898.0870342,26
1766015898.0870469,23
1766015898.08706,21
1766015898.087072,25
1766015898.087085,22
1766015898.0870981,23
1766015898.0871098,23
1766015898.087123,23
1766015898.087136,24
1766015898.087148,22
1766015898.087161,25
1766015898.087174,25
1766015898.0871859,25
1766015898.087199,25
1766015898.087212,24
1766015898.087224,25
1766015898.0872371,27
1766015898.08725,23
1766015898.087262,25
1766015898.087275,23
1766015898.0872881,25
1766015898.087301,25
1766015898.087313,21
1766015898.087326,23
1766015898.087339,24
1766015898.087352,25
1766015898.0873642,23
1766015898.0873768,24
1766015898.08739,25
1766015898.0874019,25
1766015898.087415,25
1766015898.087428,24
1766015898.087441,24
1766015898.087453,26
1766015898.087466,27
1766015898.087479,26
1766015898.087491,26
1766015898.087504,24
1766015898.087517,25
1766015898.087529,28
1766015898.087542,25
1766015898.0875552,28
1766015898.087569,26
1766015898.0875819,25
1766015898.087598,22
1766015898.08761,24
1766015898.087623,24
1766015898.087636,24
1766015898.087648,26
1766015898.087661,23
1766015898.0876741,27
1766015898.0876858,27
1766015898.087699,26
1766015898.0877109,25
1766015898.087724,26
1766015898.087737,24
1766015898.087749,25
1766015898.0877619,23
1766015898.087775,23
1766015898.087788,22
1766015898.0878,26
1766015898.0878131,23
1766015898.0878248,22
1766015898.087838,24
1766015898.087851,28
1766015898.0878642,24
1766015898.087876,23
1766015898.087889,24
1766015898.0879009,24
1766015898.087914,24
1766015898.087927,24
1766015898.087939,26
1766015898.087952,23
1766015898.087965,25
1766015898.087977,25
1766015898.08799,25
1766015898.088004,27
1766015898.088017,23
1766015898.0880299,25
1766015898.088042,25
1766015898.0880551,22
1766015898.088068,26
1766015898.08808,24
1766015898.088093,21
1766015898.088105,25
1766015898.088118,25
1766015898.0881312,25
1766015898.088143,27
1766015898.088156,25
1766015898.0881689,27
1766015898.088181,23
1766015898.0881941,19
1766015898.088207,26
1766015898.08822,24
1766015898.088232,24
1766015898.088245,28
1766015898.088258,23
1766015898.0882711,26
1766015898.0882828,23
1766015898.088296,22
1766015898.088309,26
1766015898.088321,25
1766015898.088334,26
1766015898.088347,31
1766015898.0883598,24
1766015898.088373,24
1766015898.088385,24
1766015898.088398,26
1766015898.0884109,26
1766015898.088423,23
1766015898.088436,21
1766015898.088449,24
1766015898.0884612,23
1766015898.088474,25
1766015898.088487,29
1766015898.0884988,21
1766015898.088512,24
1766015898.088525,25
1766015898.088537,23
1766015898.0885499,23
1766015898.088563,22
1766015898.088575,26
1766015898.088588,25
1766015898.088601,26
1766015898.088613,25
1766015898.088626,26
1766015898.088639,28
1766015898.0886521,25
1766015898.088664,24
1766015898.0886772,25
1766015898.0886889,20
1766015898.088702,22
1766015898.088715,25
1766015898.088728,23
1766015898.088741,23
1766015898.088753,23
1766015898.0887659,24
1766015898.088779,22
1766015898.0887911,26
1766015898.088804,23
1766015898.088817,24
1766015898.088829,24
1766015898.0890398,24
1766015898.090049,25
1766015898.0911412,22
1766015898.092025,21
1766015898.093045,24
1766015898.094041,23
1766015898.095084,25
1766015898.096003,23
1766015898.097026,24
1766015898.098016,27
1766015898.099019,24
1766015898.100039,26
1766015898.101043,23
1766015898.102039,22
1766015898.10301,25
1766015898.1040251,20
1766015898.1050649,23
1766015898.1060421,22
1766015898.1070259,27
1766015898.1080372,23
1766015898.109042,25
1766015898.1100302,24
1766015898.11103,24
1766015898.1120389,22
1766015898.113044,25
1766015898.114057,25
1766015898.115055,24
1766015898.1160681,24
1766015898.117035,25
1766015898.1181319,19
1766015898.119055,25
1766015898.120058,22
1766015898.1210508,21
1766015898.1221251,23
1766015898.1230562,20
1766015898.124068,24
1766015898.1250958,22
1766015898.1260931,21
1766015898.127093,22
1766015898.128074,23
1766015898.1290932,21
1766015898.130093,23
1766015898.131105,23
1766015898.13215,22
1766015898.1331,22
1766015898.1341178,21
1766015898.135102,22
1766015898.136091,22
1766015898.1371908,20
1766015898.138112,20
1766015898.139127,22
1766015898.1401112,19
1766015898.141114,24
1766015898.142117,23
1766015898.1431181,19
1766015898.144203,23
1766015898.145201,23
1766015898.146147,22
1766015898.147174,24
1766015898.148163,23
1766015898.149156,21
1766015898.1501179,20
1766015898.15115,22
1766015898.152182,19
1766015898.153162,23
1766015898.154173,23
1766015898.1551921,21
1766015898.1562119,21
1766015898.157176,24
1766015898.158245,23
1766015898.159271,25
1766015898.1602402,22
1766015898.161243,22
1766015898.162195,23
1766015898.163185,25
1766015898.164254,25
1766015898.165199,22
1766015898.166199,23
1766015898.1671848,25
1766015898.168232,23
1766015898.169185,23
1766015898.170182,25
1766015898.171187,23
1766015898.172208,24
1766015898.173198,23
1766015898.174217,24
1766015898.1752372,23
1766015898.1763241,27
1766015898.177233,21
1766015898.17822,22
1766015898.1792388,23
1766015898.180213,23
1766015898.1812348,22
1766015898.182247,25
1766015898.183251,22
1766015898.1842382,23
1766015898.1852212,22
1766015898.18624,26
1766015898.187249,23
1766015898.1882508,24
1766015898.1892412,24
1766015898.19027,27
1766015898.191252,23
1766015898.192257,20
1766015898.1932778,22
1766015898.194271,25
1766015898.195283,23
1766015898.1962812,23
1766015898.1972532,24
1766015898.1982641,26
1766015898.199292,25
1766015898.200274,26
1766015898.201358,23
1766015898.202306,21
1766015898.203348,25
1766015898.2043352,27
1766015898.205345,25
1766015898.2062988,24
1766015898.2073019,22
1766015898.2083158,24
1766015898.209339,23
1766015898.210314,22
1766015898.211322,27
1766015898.212312,23
1766015898.213312,26
1766015898.214337,26
1766015898.215348,23
1766015898.216355,23
1766015898.217338,24
1766015898.2183301,24
1766015898.219327,27
1766015898.22036,25
1766015898.221322,24
1766015898.2223501,24
1766015898.223395,23
1766015898.224381,22
1766015898.225379,25
1766015898.226384,22
1766015898.2273788,22
1766015898.228391,24
1766015898.2293901,25
1766015898.230391,25
1766015898.23141,23
1766015898.2323468,25
1766015898.233352,21
1766015898.234354,21
1766015898.235411,21
1766015898.236404,24
1766015898.237414,24
1766015898.238424,24
1766015898.239413,22
1766015898.240417,22
1766015898.2414248,24
1766015898.2424252,22
1766015898.243436,22
1766015898.244411,26
1766015898.245447,23
1766015898.246424,25
1766015898.2474408,26
1766015898.248449,30
1766015898.249425,28
1766015898.250437,24
1766015898.2515001,28
1766015898.252476,28
1766015898.253481,28
1766015898.2544892,29
1766015898.255457,32
1766015898.2564962,32
1766015898.25749,28
1766015898.258483,32
1766015898.259454,30
1766015898.260482,32
1766015898.261464,33
1766015898.262481,34
1766015898.263477,32
1766015898.264459,33
1766015898.2654688,33
1766015898.2664719,35
1766015898.267477,37
1766015898.268481,36
1766015898.2694862,37
1766015898.2704709,35
1766015898.27149,36
1766015898.272476,36
1766015898.273481,39
1766015898.274466,35
1766015898.2755,35
1766015898.276531,34
1766015898.2774909,35
1766015898.278513,37
1766015898.279546,36
1766015898.280542,36
1766015898.281554,37
1766015898.282561,36
1766015898.283543,34
1766015898.284561,35
1766015898.285623,33
1766015898.2866309,37
1766015898.287605,36
1766015898.2885902,33
1766015898.289576,35
1766015898.290593,36
1766015898.29159,34
1766015898.292623,33
1766015898.293707,34
1766015898.294612,34
1766015898.2956212,36
1766015898.296617,35
1766015898.297611,37
1766015898.298626,37
1766015898.2995682,36
1766015898.300627,36
1766015898.301703,31
1766015898.3026628,31
1766015898.303617,35
1766015898.304617,32
1766015898.305616,29
1766015898.3066208,34
1766015898.307598,32
1766015898.308619,33
1766015898.309613,35
1766015898.310644,35
1766015898.311643,37
1766015898.312613,34
1766015898.313609,36
1766015898.314653,34
1766015898.315626,32
1766015898.31666,35
1766015898.317662,31
1766015898.318632,34
1766015898.31967,31
1766015898.320652,35
1766015898.3216488,31
1766015898.322658,31
1766015898.3236532,32
1766015898.324657,34
1766015898.325674,33
1766015898.326677,32
1766015898.3276958,35
1766015898.328705,34
1766015898.329696,33
1766015898.330688,36
1766015898.3317,34
1766015898.3326888,37
1766015898.333688,32
1766015898.3347,34
1766015898.335706,33
1766015898.3367019,33
1766015898.337708,37
1766015898.338729,31
1766015898.339686,31
1766015898.340704,32
1766015898.341732,30
1766015898.342722,34
1766015898.343731,30
1766015898.3447502,34
1766015898.3457222,36
1766015898.3467252,32
1766015898.347723,35
1766015898.348722,31
1766015898.349744,34
1766015898.35076,35
1766015898.351742,33
1766015898.352736,37
1766015898.3537621,34
1766015898.354742,35
1766015898.355765,35
1766015898.356761,33
1766015898.3577821,37
1766015898.358773,38
1766015898.359753,36
1766015898.360776,36
1766015898.3617501,39
1766015898.362755,42
1766015898.3637671,41
1766015898.364786,39
1766015898.365797,40
1766015898.366793,39
1766015898.367763,41
1766015898.368799,38
1766015898.369793,38
1766015898.370794,39
1766015898.371799,39
1766015898.3728142,38
1766015898.373787,43
1766015898.374791,39
1766015898.375797,37
1766015898.376821,39
1766015898.37781,42
1766015898.378818,41
1766015898.379821,38
1766015898.3808188,41
1766015898.381836,40
1766015898.382834,39
1766015898.383797,40
1766015898.38483,42
1766015898.3858109,42
1766015898.3868139,40
1766015898.3878322,41
1766015898.388834,43
1766015898.3898199,41
1766015898.390823,42
1766015898.391832,42
1766015898.3928478,41
1766015898.3938391,39
1766015898.394845,44
1766015898.395871,40
1766015898.396868,42
1766015898.39792,43
1766015898.3988879,43
1766015898.3998861,44
1766015898.400873,41
1766015898.401943,41
1766015898.4030678,46
1766015898.403889,44
1766015898.404858,42
1766015898.405868,44
1766015898.406864,46
1766015898.407864,41
1766015898.408871,45
1766015898.4098969,43
1766015898.41088,44
1766015898.411891,39
1766015898.412884,42
1766015898.4138649,46
1766015898.414877,46
1766015898.415908,44
1766015898.4169118,46
1766015898.4179132,47
1766015898.418911,44
1766015898.419929,45
1766015898.4208908,45
1766015898.4219038,41
1766015898.422922,43
1766015898.423907,45
1766015898.4249222,43
1766015898.4259148,43
1766015898.42691,44
1766015898.427915,46
1766015898.4289138,43
1766015898.429934,42
1766015898.431024,42
1766015898.432021,41
1766015898.433024,41
1766015898.4340858,42
1766015898.435072,41
1766015898.4360309,40
1766015898.437012,41
1766015898.438005,43
1766015898.439007,42
1766015898.44001,42
1766015898.441032,43
1766015898.442066,47
1766015898.443053,43
1766015898.4440162,46
1766015898.445001,48
1766015898.446017,47
1766015898.4470038,49
1766015898.448017,49
1766015898.44902,47
1766015898.450009,47
1766015898.451015,43
1766015898.452019,46
1766015898.453044,46
1766015898.453992,46
1766015898.4549918,43
1766015898.4560032,43
1766015898.457011,46
1766015898.4580202,46
1766015898.459032,44
1766015898.460074,45
1766015898.461035,43
1766015898.4620008,45
1766015898.463003,43
1766015898.464014,42
1766015898.465037,45
1766015898.466037,42
1766015898.467069,44
1766015898.4680781,45
1766015898.4690812,44
1766015898.470025,42
1766015898.471072,44
1766015898.472074,42
1766015898.4730618,43
1766015898.474077,42
1766015898.475105,42
1766015898.476099,45
1766015898.477097,45
1766015898.478094,44
1766015898.479087,46
1766015898.4800792,44
1766015898.481081,44
1766015898.4820962,44
1766015898.483069,41
1766015898.484117,44
1766015898.485087,39
1766015898.486103,42
1766015898.4870882,45
1766015898.4880939,45
1766015898.4890811,45
1766015898.490088,49
1766015898.4911091,47
1766015898.4921548,49
1766015898.49313,49
1766015898.4941099,49
1766015898.4951098,45
1766015898.496127,47
1766015898.497102,46
1766015898.4981298,47
1766015898.4991229,46
1766015898.500115,45
1766015898.501146,47
1766015898.502134,46
1766015898.503146,45
1766015898.504144,45
1766015898.50514,47
1766015898.506148,46
1766015898.507156,45
1766015898.508173,47
1766015898.509174,46
1766015898.5101771,43
1766015898.5112262,44
1766015898.5121899,46
1766015898.513172,44
1766015898.514168,45
1766015898.51518,43
1766015898.516193,43
1766015898.517195,47
1766015898.518194,49
1766015898.5191932,47
1766015898.520206,49
1766015898.521198,51
1766015898.522222,51
1766015898.5231948,48
1766015898.5241852,49
1766015898.525207,51
1766015898.526207,52
1766015898.5272331,50
1766015898.5282261,50
1766015898.529224,51
1766015898.530238,51
1766015898.53124,48
1766015898.532236,47
1766015898.533237,50
1766015898.534233,48
1766015898.535264,51
1766015898.536273,50
1766015898.53728,49
1766015898.538249,48
1766015898.539243,50
1766015898.540252,50
1766015898.541276,46
1766015898.5422919,51
1766015898.543276,49
1766015898.544265,47
1766015898.545246,46
1766015898.546249,47
1766015898.5472572,45
1766015898.548255,47
1766015898.549271,49
1766015898.5503209,48
1766015898.551293,50
1766015898.5522938,46
1766015898.5532959,48
1766015898.5542872,45
1766015898.555302,46
1766015898.556284,44
1766015898.557299,48
1766015898.558305,44
1766015898.55932,49
1766015898.560317,46
1766015898.561331,46
1766015898.5623271,46
1766015898.563317,46
1766015898.564332,49
1766015898.565323,49
1766015898.5663402,48
1766015898.567343,49
1766015898.568319,49
1766015898.5693371,48
1766015898.5703402,46
1766015898.5713432,50
1766015898.57233,47
1766015898.5733309,49
1766015898.5743392,49
1766015898.575406,48
1766015898.576362,47
1766015898.577348,48
1766015898.578343,48
1766015898.57936,49
1766015898.58037,49
1766015898.581399,48
1766015898.582363,53
1766015898.583372,49
1766015898.58443,52
1766015898.585442,52
1766015898.58639,49
1766015898.5873768,51
1766015898.5884001,50
1766015898.589379,47
1766015898.5903842,49
1766015898.5914109,48
1766015898.592494,45
1766015898.5934348,48
1766015898.5944169,44
1766015898.595399,45
1766015898.596399,45
1766015898.59741,46
1766015898.5984378,46
1766015898.599435,42
1766015898.600418,47
1766015898.601417,46
1766015898.602425,47
1766015898.603405,44
1766015898.6044319,43
1766015898.605431,42
1766015898.6064372,45
1766015898.607448,42
1766015898.608445,46
1766015898.6094851,40
1766015898.610446,42
1766015898.611449,41
1766015898.612463,41
1766015898.613442,40
1766015898.614471,40
1766015898.615464,40
1766015898.6164649,40
1766015898.617527,42
1766015898.6185029,42
1766015898.6195,42
1766015898.620524,43
1766015898.621513,42
1766015898.6224818,47
1766015898.623643,48
1766015898.624537,48
1766015898.6255639,44
1766015898.626539,47
1766015898.627518,47
1766015898.6285162,46
1766015898.629529,49
1766015898.6305192,45
1766015898.631544,44
1766015898.632558,44
1766015898.6335208,45
1766015898.6345458,49
1766015898.635529,49
1766015898.636518,49
1766015898.637551,47
1766015898.6385212,50
1766015898.639603,51
1766015898.640597,50
1766015898.641597,51
1766015898.642536,50
1766015898.643568,51
1766015898.644588,52
1766015898.6455948,49
1766015898.646601,51
1766015898.6475651,49
1766015898.648594,46
1766015898.6495621,46
1766015898.650578,47
1766015898.6515589,48
1766015898.652577,47
1766015898.6536121,46
1766015898.654619,49
1766015898.6556559,47
1766015898.656671,49
1766015898.6576362,49
1766015898.658638,49
1766015898.659607,50
1766015898.660605,46
1766015898.661587,46
1766015898.662606,48
1766015898.663628,48
1766015898.664612,48
1766015898.665602,44
1766015898.666621,46
1766015898.6676,48
1766015898.668611,48
1766015898.669659,46
1766015898.670631,45
1766015898.671647,45
1766015898.672621,45
1766015898.673641,47
1766015898.674633,47
1766015898.67563,43
1766015898.67663,48
1766015898.677662,45
1766015898.678657,46
1766015898.679662,45
1766015898.680662,47
1766015898.68166,48
1766015898.68265,45
1766015898.68367,46
1766015898.6846569,45
1766015898.68566,44
1766015898.686665,45
1766015898.6876879,45
1766015898.688659,44
1766015898.6896708,44
1766015898.690691,46
1766015898.691697,47
1766015898.6927118,49
1766015898.693708,45
1766015898.6947021,47
1766015898.695717,46
1766015898.696725,47
1766015898.6977222,48
1766015898.698724,46
1766015898.6997209,45
1766015898.700712,47
1766015898.7017238,43
1766015898.7027159,49
1766015898.703703,45
1766015898.704731,44
1766015898.705729,46
1766015898.706741,45
1766015898.707724,49
1766015898.708735,45
1766015898.709739,48
1766015898.710728,51
1766015898.711746,50
1766015898.7127419,49
1766015898.7137642,47
1766015898.714756,52
1766015898.715758,52
1766015898.716764,49
1766015898.717747,52
1766015898.718744,53
1766015898.7197728,55
1766015898.720771,54
1766015898.721813,51
1766015898.722774,53
1766015898.723784,50
1766015898.724771,52
1766015898.72578,51
1766015898.726778,49
1766015898.727778,51
1766015898.7288,53
1766015898.729803,51
1766015898.730814,49
1766015898.731798,50
1766015898.732831,51
1766015898.7337952,50
1766015898.734814,49
1766015898.735817,47
1766015898.736825,47
1766015898.737825,50
1766015898.738834,48
1766015898.7398348,46
1766015898.740797,46
1766015898.741837,45
1766015898.742822,45
1766015898.7439182,44
1766015898.744898,47
1766015898.745899,44
1766015898.7468631,47
1766015898.747835,42
1766015898.7488651,45
1766015898.7498372,47
1766015898.7508411,45
1766015898.751853,45
1766015898.752864,44
1766015898.753845,44
1766015898.75489,40
1766015898.7558799,43
1766015898.756872,45
1766015898.757855,44
1766015898.758872,41
1766015898.75987,41
1766015898.7608802,41
1766015898.761892,43
1766015898.762889,42
1766015898.763886,43
1766015898.7648761,41
1766015898.765905,42
1766015898.766886,43
1766015898.7679071,39
1766015898.768867,42
1766015898.769896,40
1766015898.7709298,37
1766015898.771944,40
1766015898.772913,43
1766015898.773912,40
1766015898.774924,42
1766015898.7759192,35
1766015898.7769148,40
1766015898.778016,35
1766015898.7790132,41
1766015898.780034,39
1766015898.781006,37
1766015898.782002,37
1766015898.782989,35
1766015898.7839859,38
1766015898.7850292,37
1766015898.785995,37
1766015898.787009,39
1766015898.7880042,35
1766015898.789004,37
1766015898.7900019,37
1766015898.791005,37
1766015898.791988,38
1766015898.7930062,36
1766015898.7940102,36
1766015898.79501,34
1766015898.796012,38
1766015898.79702,38
1766015898.798018,41
1766015898.799001,39
1766015898.799986,37
1766015898.800999,37
1766015898.8020039,37
1766015898.803016,37
1766015898.8040152,36
1766015898.8049989,39
1766015898.806014,40
1766015898.807002,38
1766015898.8079958,40
1766015898.809027,39
1766015898.810016,42
1766015898.8110158,40
1766015898.812018,41
1766015898.813018,42
1766015898.814034,44
1766015898.8150349,42
1766015898.816038,44
1766015898.817097,45
1766015898.818053,46
1766015898.81903,44
1766015898.820044,45
1766015898.8210392,45
1766015898.822057,46
1766015898.823044,44
1766015898.8241,43
1766015898.825052,42
1766015898.826061,41
1766015898.8270879,43
1766015898.828089,41
1766015898.829103,43
1766015898.8300989,42
1766015898.831129,41
1766015898.832083,44
1766015898.833125,41
1766015898.834136,40
1766015898.8351328,39
1766015898.836166,43
1766015898.837148,39
1766015898.8381739,41
1766015898.839123,40
1766015898.8401852,37
1766015898.841224,41
1766015898.8422039,42
1766015898.843172,39
1766015898.844162,38
1766015898.8451571,41
1766015898.846123,43
1766015898.847114,40
1766015898.8481228,42
1766015898.849152,39
1766015898.850139,37
1766015898.851132,39
1766015898.852139,41
1766015898.853143,34
1766015898.854196,37
1766015898.855211,36
1766015898.856169,38
1766015898.857158,38
1766015898.858179,37
1766015898.859253,39
1766015898.860256,39
1766015898.861221,37
1766015898.8622038,38
1766015898.863193,39
1766015898.864196,39
1766015898.865184,38
1766015898.8661902,37
1766015898.867182,39
1766015898.868187,37
1766015898.8691971,39
1766015898.870191,37
1766015898.871223,34
1766015898.872257,37
1766015898.8732202,34
1766015898.874218,37
1766015898.875202,34
1766015898.876222,37
1766015898.877219,36
1766015898.878238,36
1766015898.879206,35
1766015898.880228,36
1766015898.8812249,36
1766015898.88221,40
1766015898.883222,34
1766015898.8842921,38
1766015898.885317,36
1766015898.886245,36
1766015898.8872309,37
1766015898.888246,39
1766015898.889248,37
1766015898.890246,37
1766015898.891219,38
1766015898.892247,39
1766015898.893227,36
1766015898.8942258,32
1766015898.895234,39
1766015898.8962638,37
1766015898.897274,37
1766015898.898277,36
1766015898.8992882,37
1766015898.9002821,38
1766015898.901309,35
1766015898.902279,37
1766015898.903284,37
1766015898.904265,40
1766015898.905259,38
1766015898.906263,39
1766015898.907288,38
1766015898.908287,40
1766015898.909301,38
1766015898.91029,42
1766015898.9112918,39
1766015898.9123042,45
1766015898.913285,43
1766015898.914282,38
1766015898.9152892,45
1766015898.91631,40
1766015898.917314,42
1766015898.918303,41
1766015898.9193118,42
1766015898.920331,41
1766015898.92133,40
1766015898.9223812,42
1766015898.9233322,39
1766015898.9243321,39
1766015898.925378,40
1766015898.926371,38
1766015898.9273431,37
1766015898.928339,38
1766015898.929337,37
1766015898.930364,39
1766015898.931384,40
1766015898.932409,36
1766015898.933384,39
1766015898.9343889,38
1766015898.935374,38
1766015898.936448,35
1766015898.937357,38
1766015898.938356,40
1766015898.939357,41
1766015898.9403641,39
1766015898.9414,37
1766015898.942395,37
1766015898.9434052,36
1766015898.944403,35
1766015898.945407,37
1766015898.9464,37
1766015898.9473898,35
1766015898.948411,37
1766015898.949408,39
1766015898.950443,38
1766015898.951426,37
1766015898.952406,35
1766015898.953436,37
1766015898.954429,37
1766015898.955501,36
1766015898.956477,38
1766015898.9574678,36
1766015898.9584498,38
1766015898.959441,39
1766015898.960429,38
1766015898.9614358,38
1766015898.962435,41
1766015898.9634418,40
1766015898.964446,40
1766015898.965468,38
1766015898.9664671,42
1766015898.967489,39
1766015898.9684732,42
1766015898.9694788,42
1766015898.97045,35
1766015898.971468,37
1766015898.97247,39
1766015898.973462,41
1766015898.974463,39
1766015898.975466,38
1766015898.976469,34
1766015898.977485,36
1766015898.9784808,35
1766015898.979486,36
1766015898.980515,36
1766015898.981486,38
1766015898.982498,36
1766015898.9835,36
1766015898.984498,37
1766015898.9855108,37
1766015898.986507,39
1766015898.9875169,38
1766015898.988519,36
1766015898.9895449,36
1766015898.990551,39
1766015898.9915378,40
1766015898.9925299,39
1766015898.993546,39
1766015898.9945118,40
1766015898.995543,37
1766015898.9965382,41
1766015898.997547,43
1766015898.998541,42
1766015898.999559,43
1766015899.000567,43
1766015899.0015628,39
1766015899.002581,42
1766015899.003629,42
1766015899.004621,40
1766015899.0055969,41
1766015899.006583,40
1766015899.0076,42
1766015899.00859,40
1766015899.009601,40
1766015899.010589,41
1766015899.01158,39
1766015899.012589,40
1766015899.0135949,40
1766015899.014594,38
1766015899.015597,41
1766015899.0166001,40
1766015899.017615,39
1766015899.0185988,36
1766015899.0196202,38
1766015899.020617,42
1766015899.021621,37
1766015899.022659,38
1766015899.023625,37
1766015899.024607,38
1766015899.025621,40
1766015899.026606,35
1766015899.027648,37
1766015899.028664,42
1766015899.029653,36
1766015899.030646,41
1766015899.0316212,37
1766015899.0326579,36
1766015899.033667,38
1766015899.034647,35
1766015899.035661,38
1766015899.03665,36
1766015899.0376792,35
1766015899.038647,39
1766015899.039639,34
1766015899.040659,36
1766015899.0416808,36
1766015899.04269,35
1766015899.04371,36
1766015899.0447192,37
1766015899.045718,36
1766015899.0466838,39
1766015899.047678,38
1766015899.0486882,37
1766015899.049705,37
1766015899.0507782,39
1766015899.051757,38
1766015899.052703,38
1766015899.053727,39
1766015899.054711,38
1766015899.055711,41
1766015899.056727,39
1766015899.057742,39
1766015899.0587342,38
1766015899.059809,36
1766015899.060736,40
1766015899.061746,38
1766015899.062813,38
1766015899.063788,38
1766015899.064748,36
1766015899.065809,36
1766015899.0667782,38
1766015899.067821,38
1766015899.06878,36
1766015899.0697641,37
1766015899.070781,36
1766015899.071816,35
1766015899.072798,36
1766015899.073837,34
1766015899.07481,35
1766015899.075847,37
