timestamp,emg_value
1766015887.702076,45
1766015887.702096,44
1766015887.702112,46
1766015887.7021282,43
1766015887.702144,47
1766015887.7021608,42
1766015887.702177,43
1766015887.7021928,43
1766015887.702214,47
1766015887.702231,42
1766015887.702246,43
1766015887.702263,43
1766015887.7022789,48
1766015887.702295,43
1766015887.7023108,46
1766015887.702327,45
1766015887.702343,43
1766015887.702358,44
1766015887.702374,47
1766015887.702389,44
1766015887.7024052,45
1766015887.702423,46
1766015887.7024388,47
1766015887.702454,43
1766015887.7024698,43
1766015887.702486,48
1766015887.702501,44
1766015887.702517,45
1766015887.702532,51
1766015887.7025468,45
1766015887.702562,47
1766015887.7025778,47
1766015887.702601,48
1766015887.7026172,47
1766015887.702632,48
1766015887.702647,48
1766015887.702662,45
1766015887.702677,46
1766015887.702692,43
1766015887.702707,44
1766015887.702724,45
1766015887.702741,43
1766015887.7027571,43
1766015887.702772,46
1766015887.7027872,42
1766015887.702802,45
1766015887.702817,41
1766015887.702831,44
1766015887.702846,42
1766015887.702861,45
1766015887.7028759,44
1766015887.702891,46
1766015887.7029061,43
1766015887.702921,47
1766015887.7029362,46
1766015887.702951,48
1766015887.702966,47
1766015887.7029812,49
1766015887.702996,48
1766015887.70301,49
1766015887.7030258,48
1766015887.703042,48
1766015887.703058,50
1766015887.703073,49
1766015887.703091,52
1766015887.70314,48
1766015887.703155,50
1766015887.70317,51
1766015887.7031848,45
1766015887.7032,49
1766015887.7032142,48
1766015887.703229,50
1766015887.703244,47
1766015887.703259,46
1766015887.703274,46
1766015887.703289,48
1766015887.703304,45
1766015887.703321,45
1766015887.703336,47
1766015887.703351,47
1766015887.7033658,44
1766015887.703381,45
1766015887.7033951,44
1766015887.70341,42
1766015887.703425,45
1766015887.703454,44
1766015887.703469,45
1766015887.7034829,42
1766015887.7035,44
1766015887.703517,45
1766015887.703531,44
1766015887.703543,45
1766015887.703556,44
1766015887.703569,47
1766015887.703582,48
1766015887.703595,47
1766015887.703608,49
1766015887.703626,49
1766015887.703639,44
1766015887.7036521,47
1766015887.7036648,45
1766015887.703678,42
1766015887.703691,45
1766015887.703704,47
1766015887.7037172,45
1766015887.7037299,47
1766015887.703743,44
1766015887.703756,45
1766015887.703768,43
1766015887.703805,41
1766015887.703818,44
1766015887.70383,45
1766015887.703843,45
1766015887.7038562,47
1766015887.703868,40
1766015887.703881,45
1766015887.703894,44
1766015887.703906,43
1766015887.7039192,42
1766015887.7039318,42
1766015887.703944,39
1766015887.703957,40
1766015887.70397,41
1766015887.703982,41
1766015887.703995,41
1766015887.7040079,41
1766015887.70402,37
1766015887.7040331,41
1766015887.704046,39
1766015887.704063,41
1766015887.7040782,40
1766015887.7040908,44
1766015887.704104,47
1766015887.704117,46
1766015887.704129,48
1766015887.704142,49
1766015887.704155,49
1766015887.7041678,49
1766015887.704184,49
1766015887.7041962,52
1766015887.7042089,50
1766015887.704222,50
1766015887.704234,48
1766015887.704247,48
1766015887.7042592,49
1766015887.7042718,51
1766015887.704285,52
1766015887.704297,46
1766015887.70431,48
1766015887.704323,47
1766015887.7043352,49
1766015887.7043478,44
1766015887.704361,44
1766015887.704373,47
1766015887.704386,47
1766015887.704399,42
1766015887.704418,46
1766015887.704431,44
1766015887.7044458,49
1766015887.7044601,46
1766015887.704473,50
1766015887.704486,48
1766015887.704502,47
1766015887.7045162,48
1766015887.7045288,47
1766015887.704542,50
1766015887.704554,50
1766015887.704569,51
1766015887.704582,50
1766015887.704596,51
1766015887.704608,50
1766015887.7046232,47
1766015887.7046359,46
1766015887.704649,48
1766015887.704662,50
1766015887.704675,49
1766015887.704688,51
1766015887.7047,49
1766015887.7047129,50
1766015887.704726,47
1766015887.7047381,43
1766015887.704751,46
1766015887.704776,45
1766015887.704788,46
1766015887.704801,47
1766015887.7048142,47
1766015887.7048268,48
1766015887.70484,49
1766015887.7048519,44
1766015887.704865,45
1766015887.7048771,48
1766015887.704891,45
1766015887.704903,48
1766015887.704916,46
1766015887.70493,43
1766015887.7049432,47
1766015887.7049558,42
1766015887.7049742,43
1766015887.704988,43
1766015887.705,41
1766015887.705013,42
1766015887.7050261,39
1766015887.705039,43
1766015887.705051,41
1766015887.7050638,42
1766015887.705076,42
1766015887.705089,39
1766015887.705102,39
1766015887.7051141,41
1766015887.705127,44
1766015887.7051399,42
1766015887.705152,43
1766015887.7051651,43
1766015887.705178,44
1766015887.705191,45
1766015887.705203,47
1766015887.705216,46
1766015887.705229,45
1766015887.7052412,43
1766015887.7052538,44
1766015887.705267,47
1766015887.7052789,43
1766015887.705292,41
1766015887.705305,44
1766015887.705318,41
1766015887.7053308,43
1766015887.705343,43
1766015887.7053592,44
1766015887.705374,41
1766015887.705387,43
1766015887.705399,40
1766015887.7054121,41
1766015887.705429,41
1766015887.7054431,40
1766015887.705458,41
1766015887.7054772,42
1766015887.705492,44
1766015887.7055051,40
1766015887.705518,39
1766015887.705531,37
1766015887.705544,40
1766015887.705556,39
1766015887.705569,42
1766015887.7055821,41
1766015887.705594,40
1766015887.705607,40
1766015887.70562,41
1766015887.705633,43
1766015887.705645,43
1766015887.7056582,42
1766015887.7056708,46
1766015887.705684,44
1766015887.705696,42
1766015887.705709,42
1766015887.705722,42
1766015887.705735,45
1766015887.705747,44
1766015887.70576,43
1766015887.705773,43
1766015887.705787,43
1766015887.7057998,41
1766015887.705813,41
1766015887.705826,40
1766015887.705838,39
1766015887.7058508,41
1766015887.705864,42
1766015887.7058759,41
1766015887.705889,39
1766015887.705902,39
1766015887.705914,41
1766015887.705927,40
1766015887.70594,39
1766015887.7059531,40
1766015887.705965,40
1766015887.7059782,38
1766015887.705991,37
1766015887.706004,37
1766015887.706016,37
1766015887.706029,35
1766015887.706042,38
1766015887.706054,35
1766015887.7060668,38
1766015887.70608,36
1766015887.7060921,38
1766015887.706105,34
1766015887.7061172,36
1766015887.70613,35
1766015887.706143,36
1766015887.706155,35
1766015887.7061682,36
1766015887.706181,36
1766015887.706193,37
1766015887.706208,34
1766015887.706221,35
1766015887.706233,37
1766015887.706246,35
1766015887.706259,38
1766015887.706274,35
1766015887.7062871,37
1766015887.7063,35
1766015887.706313,35
1766015887.706326,35
1766015887.7063382,36
1766015887.706351,34
1766015887.706364,37
1766015887.7063758,35
1766015887.706389,37
1766015887.706402,35
1766015887.7064152,37
1766015887.7064278,37
1766015887.706441,37
1766015887.706455,34
1766015887.706468,37
1766015887.706481,35
1766015887.7064939,35
1766015887.706506,37
1766015887.7065191,35
1766015887.706532,34
1766015887.7065442,37
1766015887.706557,36
1766015887.70657,34
1766015887.706582,35
1766015887.7065952,41
1766015887.706608,36
1766015887.706622,39
1766015887.706638,35
1766015887.706651,34
1766015887.706665,40
1766015887.706677,36
1766015887.706696,34
1766015887.70671,37
1766015887.706749,36
1766015887.7067919,35
1766015887.706806,34
1766015887.70682,36
1766015887.7068338,34
1766015887.706848,36
1766015887.706864,35
1766015887.706877,32
1766015887.7068899,36
1766015887.706902,34
1766015887.7069151,34
1766015887.706928,35
1766015887.706941,36
1766015887.706953,32
1766015887.706966,34
1766015887.706979,33
1766015887.7069921,31
1766015887.707005,33
1766015887.707021,33
1766015887.7070348,34
1766015887.707048,32
1766015887.707061,33
1766015887.707076,31
1766015887.707089,35
1766015887.707102,34
1766015887.707115,35
1766015887.7071328,33
1766015887.707148,32
1766015887.7071612,32
1766015887.707173,34
1766015887.707186,33
1766015887.7071989,30
1766015887.707212,32
1766015887.707225,33
1766015887.707237,33
1766015887.7072508,32
1766015887.707266,27
1766015887.7072818,31
1766015887.707297,35
1766015887.70731,31
1766015887.7073228,32
1766015887.707336,28
1766015887.707349,31
1766015887.707362,32
1766015887.7073762,27
1766015887.707391,33
1766015887.707405,29
1766015887.7074182,31
1766015887.7074308,31
1766015887.707444,31
1766015887.707457,29
1766015887.7074702,29
1766015887.7074828,31
1766015887.707495,33
1766015887.70751,29
1766015887.707525,31
1766015887.707537,31
1766015887.707552,31
1766015887.707571,30
1766015887.707587,30
1766015887.7076008,30
1766015887.707614,27
1766015887.707628,28
1766015887.7076411,32
1766015887.707654,32
1766015887.7076669,31
1766015887.70768,31
1766015887.707693,31
1766015887.7077062,27
1766015887.7077188,33
1766015887.707733,29
1766015887.707746,30
1766015887.7077591,31
1766015887.707777,32
1766015887.707791,30
1766015887.707804,30
1766015887.707817,31
1766015887.70783,28
1766015887.707843,29
1766015887.707856,31
1766015887.7078679,29
1766015887.707881,28
1766015887.707895,28
1766015887.707907,29
1766015887.7079198,29
1766015887.707933,30
1766015887.707946,27
1766015887.707959,27
1766015887.707972,28
1766015887.707985,28
1766015887.7079968,28
1766015887.708014,28
1766015887.708029,24
1766015887.708042,28
1766015887.708055,27
1766015887.7080681,27
1766015887.70808,33
1766015887.708093,29
1766015887.708106,29
1766015887.708118,25
1766015887.708131,29
1766015887.7081442,27
1766015887.7081568,29
1766015887.70817,25
1766015887.708183,28
1766015887.7081962,25
1766015887.708208,25
1766015887.708221,27
1766015887.708234,27
1766015887.708246,26
1766015887.708259,29
1766015887.7082722,26
1766015887.708284,29
1766015887.708297,28
1766015887.7083101,25
1766015887.708323,26
1766015887.7083352,25
1766015887.7083478,27
1766015887.708361,25
1766015887.708373,25
1766015887.708386,29
1766015887.708399,25
1766015887.708412,28
1766015887.708426,26
1766015887.708441,25
1766015887.708456,23
1766015887.708472,27
1766015887.7084842,28
1766015887.7084968,26
1766015887.70851,25
1766015887.708523,23
1766015887.7085361,26
1766015887.708549,26
1766015887.708562,25
1766015887.708575,25
1766015887.7085881,26
1766015887.708601,27
1766015887.7086139,23
1766015887.708627,27
1766015887.70864,23
1766015887.708652,27
1766015887.7086651,26
1766015887.708678,27
1766015887.708691,23
1766015887.708704,23
1766015887.708716,24
1766015887.708729,25
1766015887.708742,26
1766015887.708755,23
1766015887.708768,24
1766015887.708781,22
1766015887.708794,26
1766015887.708807,24
1766015887.7088199,23
1766015887.708833,25
1766015887.708846,23
1766015887.708862,25
1766015887.7088761,21
1766015887.7088902,24
1766015887.708904,21
1766015887.708918,26
1766015887.708931,24
1766015887.708947,23
1766015887.70896,26
1766015887.7089732,21
1766015887.708986,25
1766015887.708999,24
1766015887.709012,24
1766015887.709026,22
1766015887.7090392,23
1766015887.7090518,22
1766015887.709066,25
1766015887.70908,23
1766015887.709095,20
1766015887.709109,21
1766015887.7091231,23
1766015887.7091389,22
1766015887.709152,23
1766015887.709165,26
1766015887.709177,22
1766015887.7091908,25
1766015887.709203,21
1766015887.709216,19
1766015887.709229,24
1766015887.709242,23
1766015887.709255,22
1766015887.7092679,22
1766015887.709281,23
1766015887.709294,25
1766015887.709311,22
1766015887.709326,24
1766015887.709339,22
1766015887.709352,23
1766015887.709365,23
1766015887.709378,22
1766015887.709391,23
1766015887.709404,22
1766015887.709416,20
1766015887.7094378,21
1766015887.709451,22
1766015887.709464,24
1766015887.7094772,22
1766015887.7094898,22
1766015887.709506,22
1766015887.7095191,25
1766015887.709532,24
1766015887.709544,24
1766015887.709558,23
1766015887.7095711,21
1766015887.709583,24
1766015887.709596,21
1766015887.709609,22
1766015887.709622,20
1766015887.709635,25
1766015887.709648,22
1766015887.709661,25
1766015887.709674,22
1766015887.709686,22
1766015887.7096992,23
1766015887.7097118,21
1766015887.709725,25
1766015887.70974,23
1766015887.7097542,27
1766015887.7097678,24
1766015887.709781,24
1766015887.709794,24
1766015887.7098072,22
1766015887.7098198,24
1766015887.709833,22
1766015887.709846,23
1766015887.7098591,21
1766015887.7098722,20
1766015887.709885,23
1766015887.709898,23
1766015887.709911,25
1766015887.709924,23
1766015887.7099361,23
1766015887.709949,22
1766015887.709962,21
1766015887.709975,21
1766015887.709988,23
1766015887.710001,23
1766015887.7100139,24
1766015887.710027,22
1766015887.71004,21
1766015887.7100549,22
1766015887.710069,23
1766015887.710083,22
1766015887.7100952,25
1766015887.7101078,21
1766015887.710121,22
1766015887.710134,20
1766015887.7101471,26
1766015887.7101598,24
1766015887.7101781,23
1766015887.7101922,23
1766015887.7102048,23
1766015887.710218,21
1766015887.710231,23
1766015887.7102442,24
1766015887.710256,25
1766015887.710269,25
1766015887.710283,27
1766015887.7102962,24
1766015887.710308,23
1766015887.710321,24
1766015887.710334,23
1766015887.710347,26
1766015887.710359,26
1766015887.7103722,22
1766015887.7103848,24
1766015887.710398,23
1766015887.710411,21
1766015887.7104251,25
1766015887.710439,21
1766015887.710452,25
1766015887.710465,24
1766015887.710478,24
1766015887.710491,23
1766015887.710504,23
1766015887.710516,26
1766015887.710542,22
1766015887.710557,20
1766015887.710572,24
1766015887.7105842,21
1766015887.710597,22
1766015887.710612,25
1766015887.710628,23
1766015887.710643,22
1766015887.7106571,23
1766015887.71067,21
1766015887.7106822,24
1766015887.710695,24
1766015887.710707,26
1766015887.71072,26
1766015887.710733,23
1766015887.710745,26
1766015887.710759,24
1766015887.7107708,24
1766015887.710784,25
1766015887.710797,23
1766015887.710809,25
1766015887.7108219,27
1766015887.710836,27
1766015887.71085,23
1766015887.7108622,26
1766015887.7108748,24
1766015887.710894,26
1766015887.710907,22
1766015887.7109199,23
1766015887.710932,25
1766015887.7109451,25
1766015887.710958,24
1766015887.7109702,25
1766015887.7109828,23
1766015887.710996,28
1766015887.711008,27
1766015887.711021,24
1766015887.711034,23
1766015887.711051,25
1766015887.711065,22
1766015887.711078,26
1766015887.7110898,27
1766015887.711103,25
1766015887.711116,24
1766015887.711128,28
1766015887.711141,25
1766015887.711154,27
1766015887.7111669,29
1766015887.71118,22
1766015887.7111921,26
1766015887.711205,26
1766015887.7112188,20
1766015887.711234,24
1766015887.711248,27
1766015887.711261,24
1766015887.711274,26
1766015887.711286,27
1766015887.7112992,27
1766015887.7113118,20
1766015887.711325,23
1766015887.7113369,22
1766015887.7113512,25
1766015887.711364,28
1766015887.711377,25
1766015887.71139,25
1766015887.711404,24
1766015887.7114189,27
1766015887.711432,25
1766015887.711445,24
1766015887.711456,25
1766015887.711477,27
1766015887.711488,26
1766015887.711499,27
1766015887.71151,23
1766015887.711521,25
1766015887.711532,25
1766015887.711543,25
1766015887.711554,28
1766015887.711565,23
1766015887.711576,26
1766015887.7115881,24
1766015887.711599,25
1766015887.71161,26
1766015887.711621,25
1766015887.7116318,25
1766015887.711643,28
1766015887.711654,26
1766015887.711665,23
1766015887.711676,26
1766015887.7116868,26
1766015887.7116978,24
1766015887.711709,25
1766015887.71172,26
1766015887.711731,23
1766015887.711742,24
1766015887.711753,28
1766015887.7117639,26
1766015887.711775,27
1766015887.711786,26
1766015887.711797,25
1766015887.711808,28
1766015887.711819,27
1766015887.7118342,28
1766015887.711848,27
1766015887.71186,26
1766015887.711871,28
1766015887.7118819,26
1766015887.711893,28
1766015887.711904,25
1766015887.711916,26
1766015887.711927,27
1766015887.711937,29
1766015887.711949,28
1766015887.71196,29
1766015887.711971,28
1766015887.711987,24
1766015887.711998,26
1766015887.712009,30
1766015887.7120209,27
1766015887.712032,27
1766015887.712043,27
1766015887.712054,25
1766015887.712065,29
1766015887.712076,26
1766015887.7120872,27
1766015887.7120981,25
1766015887.712109,26
1766015887.71212,27
1766015887.712131,26
1766015887.712142,27
1766015887.7121532,27
1766015887.7121642,27
1766015887.7121751,28
1766015887.712186,26
1766015887.712197,26
1766015887.712211,28
1766015887.712224,30
1766015887.712235,29
1766015887.712246,27
1766015887.712257,27
1766015887.712268,27
1766015887.71228,26
1766015887.712291,24
1766015887.712302,27
1766015887.7123132,29
1766015887.7123241,28
1766015887.712335,24
1766015887.712346,28
1766015887.712357,28
1766015887.712369,28
1766015887.71238,27
1766015887.712391,27
1766015887.7124019,27
1766015887.7124128,26
1766015887.712424,28
1766015887.712435,28
1766015887.712446,29
1766015887.712458,29
1766015887.712471,27
1766015887.7124841,30
1766015887.712495,26
1766015887.712506,29
1766015887.712517,25
1766015887.712528,30
1766015887.712539,28
1766015887.71255,29
1766015887.712561,28
1766015887.7125728,28
1766015887.712587,28
1766015887.7126012,24
1766015887.7126122,29
1766015887.7126231,28
1766015887.712634,28
1766015887.712647,28
1766015887.712659,23
1766015887.712671,27
1766015887.712683,26
1766015887.7126951,28
1766015887.712707,27
1766015887.712718,29
1766015887.712729,28
1766015887.7127411,29
1766015887.712752,27
1766015887.7127628,30
1766015887.7127738,27
1766015887.712785,26
1766015887.712796,28
1766015887.712807,26
1766015887.712818,26
1766015887.71283,25
1766015887.712841,30
1766015887.712852,26
1766015887.712864,27
1766015887.712875,29
1766015887.712886,26
1766015887.712897,29
1766015887.712908,26
1766015887.71292,29
1766015887.7129312,27
1766015887.7129421,27
1766015887.712956,25
1766015887.71297,30
1766015887.712981,27
1766015887.712993,30
1766015887.713004,26
1766015887.713015,32
1766015887.713026,25
1766015887.713037,31
1766015887.713048,31
1766015887.7130592,31
1766015887.713077,26
1766015887.7130911,30
1766015887.713102,30
1766015887.713113,27
1766015887.713124,30
1766015887.713135,32
1766015887.7131462,29
1766015887.7131572,32
1766015887.713168,27
1766015887.7131789,31
1766015887.7131908,28
1766015887.713203,30
1766015887.713214,25
1766015887.713225,26
1766015887.7132359,30
1766015887.713248,32
1766015887.713259,30
1766015887.71327,32
1766015887.713281,26
1766015887.7132921,28
1766015887.713303,28
1766015887.713314,27
1766015887.713326,27
1766015887.7133398,30
1766015887.713352,31
1766015887.713363,28
1766015887.713374,31
1766015887.7133849,29
1766015887.713396,27
1766015887.713408,31
1766015887.713419,27
1766015887.71343,28
1766015887.713448,31
1766015887.71346,29
1766015887.713471,31
1766015887.713482,30
1766015887.713493,27
1766015887.713504,30
1766015887.713526,28
1766015887.713544,28
1766015887.713556,28
1766015887.71357,30
1766015887.713581,31
1766015887.713592,30
1766015887.713603,29
1766015887.7136152,30
1766015887.7136261,29
1766015887.7136378,26
1766015887.7136488,27
1766015887.71366,31
1766015887.713671,28
1766015887.713682,29
1766015887.713693,27
1766015887.713705,29
1766015887.713716,31
1766015887.713728,27
1766015887.71374,30
1766015887.713751,28
1766015887.713762,30
1766015887.713773,29
1766015887.713784,29
1766015887.7137952,28
1766015887.7138062,30
1766015887.7138171,29
1766015887.713828,31
1766015887.713839,27
1766015887.71385,30
1766015887.7138612,29
1766015887.713872,32
1766015887.7138839,26
1766015887.7138948,29
1766015887.7139058,30
1766015887.713917,29
1766015887.713928,27
1766015887.713939,30
1766015887.71395,29
1766015887.713962,28
1766015887.713973,28
1766015887.713984,29
1766015887.713995,29
1766015887.714006,27
1766015887.714017,28
1766015887.7140281,28
1766015887.714039,27
1766015887.71405,30
1766015887.714062,28
1766015887.7140732,26
1766015887.7140841,28
1766015887.7140968,27
1766015887.714108,27
1766015887.714119,26
1766015887.7141309,25
1766015887.7141418,27
1766015887.714153,27
1766015887.714164,28
1766015887.714175,28
1766015887.714186,27
1766015887.714197,29
1766015887.714208,27
1766015887.714219,26
1766015887.714231,28
1766015887.714242,30
1766015887.714253,26
1766015887.7142642,30
1766015887.7142751,27
1766015887.714287,29
1766015887.714298,30
1766015887.7143092,29
1766015887.71432,29
1766015887.714331,27
1766015887.7143419,27
1766015887.7143528,27
1766015887.7143638,30
1766015887.714376,30
1766015887.714387,25
1766015887.714398,29
1766015887.7144089,30
1766015887.71442,31
1766015887.714432,26
1766015887.714448,30
1766015887.714467,30
1766015887.7144792,30
1766015887.7144902,31
1766015887.7145011,29
1766015887.7145119,28
1766015887.7145228,27
1766015887.714535,31
1766015887.714546,28
1766015887.714557,30
1766015887.714568,27
1766015887.7145789,28
1766015887.714591,25
1766015887.714602,25
1766015887.714613,29
1766015887.714624,26
1766015887.714636,28
1766015887.714647,28
1766015887.714658,26
1766015887.714669,27
1766015887.71468,25
1766015887.7146912,25
1766015887.7147021,25
1766015887.714713,27
1766015887.714724,30
1766015887.7147362,27
1766015887.714747,28
1766015887.714758,26
1766015887.714769,29
1766015887.7147882,25
1766015887.7148008,25
1766015887.714859,29
1766015887.714873,28
1766015887.7148852,27
1766015887.7149,28
1766015887.714914,26
1766015887.7149272,30
1766015887.7149389,27
1766015887.7149508,24
1766015887.714963,26
1766015887.714976,25
1766015887.714987,26
1766015887.714998,26
1766015887.7150102,29
1766015887.7150211,29
1766015887.715032,26
1766015887.7150452,26
1766015887.715057,24
1766015887.7150688,28
1766015887.71508,26
1766015887.715093,25
1766015887.715106,27
1766015887.7151191,27
1766015887.7151308,29
1766015887.7151418,25
1766015887.715154,25
1766015887.715165,28
1766015887.7151759,24
1766015887.715188,26
1766015887.715199,26
1766015887.715211,24
1766015887.7152221,29
1766015887.715233,28
1766015887.715245,29
1766015887.7152572,25
1766015887.7152681,27
1766015887.715281,29
1766015887.715296,26
1766015887.715308,31
1766015887.71532,26
1766015887.715332,25
1766015887.715345,27
1766015887.7153568,29
1766015887.715368,27
1766015887.71538,27
1766015887.715391,25
1766015887.715402,27
1766015887.715412,27
1766015887.715422,29
1766015887.715432,27
1766015887.715442,26
1766015887.715453,25
1766015887.7154639,26
1766015887.715476,28
1766015887.715487,28
1766015887.715497,24
1766015887.715507,26
1766015887.715517,23
1766015887.7155268,27
1766015887.7155368,24
1766015887.7155468,28
1766015887.7155578,28
1766015887.715568,27
1766015887.715578,26
1766015887.715588,26
1766015887.715598,28
1766015887.7156081,26
1766015887.7156181,25
1766015887.7156281,26
1766015887.715641,26
1766015887.715654,27
1766015887.715664,24
1766015887.7156749,28
1766015887.7156851,23
1766015887.7156951,24
1766015887.7157052,27
1766015887.7157152,24
1766015887.715725,26
1766015887.715735,26
1766015887.715745,31
1766015887.715755,24
1766015887.715765,24
1766015887.715775,27
1766015887.715785,27
1766015887.715795,28
1766015887.7158048,26
1766015887.715816,26
1766015887.715826,27
1766015887.7158358,27
1766015887.7158458,25
1766015887.7158558,27
1766015887.715866,28
1766015887.715876,24
1766015887.715886,28
1766015887.7158961,26
1766015887.7159061,28
1766015887.715916,28
1766015887.715926,26
1766015887.7159371,26
1766015887.715947,27
1766015887.715957,26
1766015887.715967,29
1766015887.715977,26
1766015887.715987,24
1766015887.715997,28
1766015887.716007,24
1766015887.716017,25
1766015887.7160268,24
1766015887.716037,25
1766015887.716047,27
1766015887.716057,25
1766015887.716067,26
1766015887.716077,26
1766015887.716087,23
1766015887.716097,26
1766015887.716107,23
1766015887.716118,25
1766015887.716128,25
1766015887.716138,24
1766015887.716148,28
1766015887.716158,28
1766015887.716168,26
1766015887.716179,20
1766015887.716189,28
1766015887.716199,25
1766015887.71621,25
1766015887.71622,24
1766015887.71623,26
1766015887.71624,24
1766015887.7162502,27
1766015887.7162619,25
1766015887.716274,23
1766015887.716285,24
1766015887.716295,25
1766015887.7163048,24
1766015887.7163148,25
1766015887.716325,25
1766015887.716335,28
1766015887.716346,26
1766015887.716356,26
1766015887.716366,27
1766015887.716376,25
1766015887.716387,23
1766015887.716397,23
1766015887.716408,25
1766015887.716418,26
1766015887.716428,22
1766015887.716439,26
1766015887.716449,23
1766015887.716459,26
1766015887.71647,27
1766015887.71648,23
1766015887.71649,24
1766015887.7165,25
1766015887.716511,25
1766015887.716521,25
1766015887.716531,23
1766015887.7165408,25
1766015887.7165508,23
1766015887.7165608,22
1766015887.7165709,24
1766015887.716581,26
1766015887.7165911,23
1766015887.7166011,24
1766015887.7166111,22
1766015887.7166212,21
1766015887.716631,24
1766015887.716641,23
1766015887.716651,24
1766015887.716661,24
1766015887.716671,25
1766015887.716681,23
1766015887.716691,21
1766015887.716701,23
1766015887.7167108,22
1766015887.7167208,21
1766015887.7167308,24
1766015887.716741,22
1766015887.716751,26
1766015887.716761,23
1766015887.7167711,22
1766015887.716782,23
1766015887.716792,25
1766015887.7168021,20
1766015887.7168121,24
1766015887.716822,25
1766015887.716832,22
1766015887.716842,23
1766015887.716852,22
1766015887.716862,23
1766015887.716872,23
1766015887.716882,23
1766015887.716892,22
1766015887.7169018,21
1766015887.716914,26
1766015887.7169259,25
1766015887.716938,21
1766015887.71695,22
1766015887.71696,24
1766015887.71697,24
1766015887.71698,25
1766015887.71699,25
1766015887.717,23
1766015887.71701,22
1766015887.7170198,25
1766015887.7170298,24
1766015887.7170408,25
1766015887.7170508,23
1766015887.717061,21
1766015887.717071,22
1766015887.717081,23
1766015887.717091,22
1766015887.717102,22
1766015887.717112,19
1766015887.717122,22
1766015887.717132,22
1766015887.717142,23
1766015887.717152,22
1766015887.717162,25
1766015887.717172,23
1766015887.717181,22
1766015887.717192,22
1766015887.717202,23
1766015887.717212,23
1766015887.717222,22
1766015887.7172322,22
1766015887.717242,24
1766015887.717252,22
1766015887.7172632,25
1766015887.717275,24
1766015887.7172859,22
1766015887.7172961,20
1766015887.7173061,22
1766015887.7173162,25
1766015887.7173262,23
1766015887.717338,23
1766015887.717443,21
1766015887.717461,23
1766015887.7174752,23
1766015887.717488,21
1766015887.717501,20
1766015887.717514,21
1766015887.717526,26
1766015887.717539,23
1766015887.717551,22
1766015887.7175639,23
1766015887.717577,24
1766015887.717589,22
1766015887.717602,21
1766015887.7176142,22
1766015887.7176268,23
1766015887.717639,23
1766015887.717652,21
1766015887.717665,23
1766015887.717677,23
1766015887.7176902,20
1766015887.7177029,22
1766015887.717715,24
1766015887.717728,20
1766015887.717741,21
1766015887.7177532,22
1766015887.7177658,23
1766015887.717779,24
1766015887.717791,21
1766015887.717804,22
1766015887.717817,23
1766015887.7178292,23
1766015887.7178419,22
1766015887.717854,25
1766015887.717867,25
1766015887.71788,25
1766015887.7178922,22
1766015887.7179048,21
1766015887.717917,23
1766015887.717932,23
1766015887.717945,25
1766015887.717958,23
1766015887.71797,23
1766015887.717983,25
1766015887.7179961,25
1766015887.718009,21
1766015887.7180212,22
1766015887.718034,27
1766015887.718047,24
1766015887.718059,25
1766015887.7180722,22
1766015887.718085,24
1766015887.718097,23
1766015887.7181098,23
1766015887.718123,24
1766015887.718135,20
1766015887.718148,25
1766015887.71816,23
1766015887.718173,21
1766015887.718186,23
1766015887.718199,22
1766015887.7182112,24
1766015887.7182238,21
1766015887.718236,19
1766015887.7182488,25
1766015887.718262,20
1766015887.718274,26
1766015887.718287,23
1766015887.718299,19
1766015887.718312,23
1766015887.718325,21
1766015887.718337,23
1766015887.7183502,26
1766015887.718362,21
1766015887.718375,23
1766015887.718388,22
1766015887.718401,23
1766015887.718413,24
1766015887.7184262,19
1766015887.718438,25
1766015887.718451,22
1766015887.718514,21
1766015887.7195342,26
1766015887.72053,24
1766015887.721502,24
1766015887.722525,22
1766015887.723579,23
1766015887.724544,20
1766015887.7255979,21
1766015887.726586,22
1766015887.7275891,24
1766015887.728585,22
1766015887.729612,22
1766015887.730586,19
1766015887.7315772,21
1766015887.732548,24
1766015887.733568,24
1766015887.734636,22
1766015887.735604,23
1766015887.736606,20
1766015887.737639,19
1766015887.738616,24
1766015887.739598,22
1766015887.740559,24
1766015887.741567,22
1766015887.7425869,25
1766015887.743592,24
1766015887.744591,22
1766015887.745651,20
1766015887.7466571,23
1766015887.747639,24
1766015887.74864,22
1766015887.749591,22
1766015887.750599,19
1766015887.751658,22
1766015887.7527082,25
1766015887.75361,20
1766015887.754671,21
1766015887.755635,20
1766015887.756617,24
1766015887.757623,21
1766015887.758615,22
1766015887.759611,25
1766015887.760611,24
1766015887.761663,21
1766015887.7626398,24
1766015887.763704,23
1766015887.76463,22
1766015887.765622,20
1766015887.7666318,22
1766015887.767699,24
1766015887.768683,23
1766015887.769686,25
1766015887.770727,25
1766015887.771696,21
1766015887.772691,21
1766015887.773668,24
1766015887.774653,23
1766015887.775717,21
1766015887.7767239,22
1766015887.777699,25
1766015887.778702,23
1766015887.779763,22
1766015887.780758,20
1766015887.78173,21
1766015887.7827148,23
1766015887.78371,24
1766015887.784721,25
1766015887.7857401,23
1766015887.786741,22
1766015887.78777,25
1766015887.788784,20
1766015887.78979,23
1766015887.790762,20
1766015887.791753,21
1766015887.792743,22
1766015887.79374,22
1766015887.794751,25
1766015887.795739,23
1766015887.7967439,23
1766015887.797804,20
1766015887.7987578,23
1766015887.7997582,22
1766015887.800766,24
1766015887.801794,24
1766015887.8027751,27
1766015887.803787,25
1766015887.8047931,26
1766015887.805789,21
1766015887.8067808,26
1766015887.807808,22
1766015887.808796,24
1766015887.809815,23
1766015887.810803,24
1766015887.811808,25
1766015887.812803,21
1766015887.813814,22
1766015887.814828,24
1766015887.815829,26
1766015887.816832,24
1766015887.817781,26
1766015887.818824,27
1766015887.81982,23
1766015887.820835,24
1766015887.821839,26
1766015887.822871,22
1766015887.823828,22
1766015887.8248389,23
1766015887.825849,26
1766015887.826849,23
1766015887.827845,24
1766015887.828841,26
1766015887.829866,23
1766015887.830857,22
1766015887.831865,25
1766015887.832865,24
1766015887.833865,23
1766015887.834879,25
1766015887.835868,23
1766015887.8368618,23
1766015887.8378901,24
1766015887.838877,25
1766015887.8398762,26
1766015887.840878,26
1766015887.841891,25
1766015887.84289,26
1766015887.843901,23
1766015887.8448918,25
1766015887.845886,24
1766015887.846894,26
1766015887.847894,24
1766015887.848926,23
1766015887.849917,22
1766015887.850933,22
1766015887.851914,24
1766015887.8529139,27
1766015887.8539178,24
1766015887.8549602,24
1766015887.855951,25
1766015887.856931,26
1766015887.857936,24
1766015887.858946,26
1766015887.8599522,25
1766015887.86095,25
1766015887.861952,27
1766015887.862953,27
1766015887.863959,25
1766015887.865014,24
1766015887.865961,26
1766015887.866966,28
1766015887.867959,24
1766015887.8689501,24
1766015887.870056,23
1766015887.870965,25
1766015887.871965,27
1766015887.872969,26
1766015887.874052,27
1766015887.875065,28
1766015887.87606,26
1766015887.877057,28
1766015887.87805,26
1766015887.879052,25
1766015887.88006,24
1766015887.881056,30
1766015887.8820522,27
1766015887.88306,27
1766015887.884059,26
1766015887.8850508,27
1766015887.886013,29
1766015887.8870652,26
1766015887.888073,28
1766015887.88906,28
1766015887.8900568,27
1766015887.891057,29
1766015887.892064,29
1766015887.8930619,28
1766015887.894058,30
1766015887.895051,28
1766015887.896065,28
1766015887.897059,29
1766015887.898059,28
1766015887.899057,31
1766015887.9000561,29
1766015887.901058,27
1766015887.902064,27
1766015887.9030762,30
1766015887.904057,29
1766015887.90508,29
1766015887.9060931,26
1766015887.907098,29
1766015887.90808,29
1766015887.909081,24
1766015887.910083,30
1766015887.911103,30
1766015887.91212,29
1766015887.913111,25
1766015887.9141219,29
1766015887.9151192,28
1766015887.916158,29
1766015887.917144,28
1766015887.918129,28
1766015887.9191198,29
1766015887.920119,30
1766015887.921128,29
1766015887.922127,32
1766015887.923139,30
1766015887.9241421,29
1766015887.925133,29
1766015887.926132,31
1766015887.927149,30
1766015887.928145,33
1766015887.929145,31
1766015887.9301581,29
1766015887.931154,28
1766015887.9321432,30
1766015887.9331641,30
1766015887.934168,28
1766015887.935159,30
1766015887.936165,30
1766015887.9371982,31
1766015887.9381802,30
1766015887.939189,33
1766015887.94017,31
1766015887.9411771,31
1766015887.942175,32
1766015887.943202,30
1766015887.9441762,30
1766015887.945195,31
1766015887.9461818,26
1766015887.947222,29
1766015887.948205,29
1766015887.9492102,30
1766015887.950216,33
1766015887.951218,30
1766015887.9522262,32
1766015887.953238,28
1766015887.954201,30
1766015887.955223,27
1766015887.956223,29
1766015887.957332,34
1766015887.958246,28
1766015887.959245,29
1766015887.960242,33
1766015887.9612548,31
1766015887.9622242,33
1766015887.963255,30
1766015887.964261,34
1766015887.965236,31
1766015887.966261,34
1766015887.96727,29
1766015887.968253,30
1766015887.9692512,31
1766015887.970259,31
1766015887.971282,32
1766015887.97229,30
1766015887.973282,31
1766015887.974286,30
1766015887.975282,30
1766015887.9762838,30
1766015887.977281,29
1766015887.9782798,33
1766015887.9792728,33
1766015887.9802759,29
1766015887.981292,32
1766015887.9822989,32
1766015887.983294,32
1766015887.984303,34
1766015887.985298,36
1766015887.986304,32
1766015887.987317,32
1766015887.988312,31
1766015887.989312,34
1766015887.990328,33
1766015887.991339,28
1766015887.992328,29
1766015887.993341,33
1766015887.994354,34
1766015887.995347,31
1766015887.99634,31
1766015887.997352,29
1766015887.998324,33
1766015887.999321,32
1766015888.0003042,30
1766015888.0012958,32
1766015888.002304,33
1766015888.003337,30
1766015888.004343,29
1766015888.005366,27
1766015888.0063539,31
1766015888.0073578,28
1766015888.008388,31
1766015888.009377,29
1766015888.010367,33
1766015888.01137,35
1766015888.012377,29
1766015888.013381,29
1766015888.014389,31
1766015888.015392,29
1766015888.0164108,29
1766015888.017385,32
1766015888.018406,30
1766015888.019407,29
1766015888.0203881,28
1766015888.021413,31
1766015888.022398,30
1766015888.023409,32
1766015888.024416,28
1766015888.025422,33
1766015888.0264242,35
1766015888.0274181,31
1766015888.028464,33
1766015888.029449,33
1766015888.030438,37
1766015888.031431,33
1766015888.032435,31
1766015888.033451,31
1766015888.0344472,32
1766015888.035448,31
1766015888.036442,32
1766015888.037455,30
1766015888.0384629,34
1766015888.0394702,31
1766015888.0404658,31
1766015888.041513,33
1766015888.042484,34
1766015888.043466,35
1766015888.0444689,41
1766015888.045492,38
1766015888.046487,35
1766015888.047512,37
1766015888.048494,40
1766015888.049503,37
1766015888.050485,39
1766015888.051497,36
1766015888.052499,38
1766015888.053483,36
1766015888.0544882,38
1766015888.055491,39
1766015888.0565078,39
1766015888.0575051,38
1766015888.058528,38
1766015888.059509,39
1766015888.060521,39
1766015888.061524,41
1766015888.062515,38
1766015888.063512,43
1766015888.064517,42
1766015888.065532,40
1766015888.066536,39
1766015888.06755,43
1766015888.068531,42
1766015888.069528,45
1766015888.0705438,46
1766015888.071551,42
1766015888.072552,45
1766015888.073576,47
1766015888.074555,44
1766015888.0755699,44
1766015888.076562,43
1766015888.077566,44
1766015888.078571,44
1766015888.07956,42
1766015888.0805671,42
1766015888.081581,44
1766015888.082583,42
1766015888.083592,44
1766015888.0845811,43
1766015888.085566,45
1766015888.086584,43
1766015888.087606,45
1766015888.088634,46
1766015888.089584,45
1766015888.090615,47
1766015888.09164,50
1766015888.092623,49
1766015888.093617,48
1766015888.094647,51
1766015888.095614,50
1766015888.09662,52
1766015888.097667,49
1766015888.0986629,51
1766015888.0996401,48
1766015888.100636,51
1766015888.101634,49
1766015888.102647,51
1766015888.103611,47
1766015888.104608,49
1766015888.1056142,51
1766015888.106634,48
1766015888.107629,53
1766015888.108626,49
1766015888.109613,49
1766015888.110616,49
1766015888.111629,50
1766015888.112618,49
1766015888.113645,51
1766015888.114626,52
1766015888.115662,50
1766015888.116672,51
1766015888.117685,50
1766015888.118635,51
1766015888.119672,52
1766015888.1207092,49
1766015888.121682,52
1766015888.1227038,52
1766015888.123689,54
1766015888.1246989,53
1766015888.125669,51
1766015888.1267068,54
1766015888.1276789,53
1766015888.1287081,54
1766015888.129697,60
1766015888.130718,54
1766015888.131691,58
1766015888.132685,58
1766015888.133698,59
1766015888.1347148,58
1766015888.135707,60
1766015888.136713,58
1766015888.137716,58
1766015888.138735,57
1766015888.139724,58
1766015888.140744,57
1766015888.1417542,56
1766015888.142743,53
1766015888.143728,52
1766015888.14473,54
1766015888.14573,56
1766015888.146781,55
1766015888.1477451,50
1766015888.148739,57
1766015888.149766,52
1766015888.150765,56
1766015888.151747,57
1766015888.1527512,57
1766015888.153762,57
1766015888.154782,52
1766015888.155766,55
1766015888.156785,53
1766015888.157779,53
1766015888.158792,53
1766015888.159782,54
1766015888.160801,55
1766015888.161812,58
1766015888.1628292,53
1766015888.164051,54
1766015888.164806,55
1766015888.1658208,55
1766015888.16701,56
1766015888.167893,54
1766015888.168854,54
1766015888.16985,56
1766015888.1708539,58
1766015888.172152,58
1766015888.172968,57
1766015888.173853,58
1766015888.174871,62
1766015888.175873,60
1766015888.176911,56
1766015888.1778638,62
1766015888.178855,56
1766015888.179848,58
1766015888.180814,60
1766015888.181851,60
1766015888.182869,58
1766015888.183865,57
1766015888.1848571,58
1766015888.185855,58
1766015888.186859,59
1766015888.187854,57
1766015888.188858,54
1766015888.189893,57
1766015888.190868,60
1766015888.1918788,55
1766015888.192864,56
1766015888.193881,54
1766015888.194883,56
1766015888.195872,54
1766015888.1969018,54
1766015888.197883,53
1766015888.198899,54
1766015888.1999118,52
1766015888.200906,50
1766015888.201905,50
1766015888.2029078,51
1766015888.2039099,53
1766015888.204923,52
1766015888.2059221,56
1766015888.206935,54
1766015888.207915,52
1766015888.208925,55
1766015888.209919,57
1766015888.210921,55
1766015888.2119381,54
1766015888.212936,57
1766015888.213948,56
1766015888.2149491,54
1766015888.215942,56
1766015888.21695,56
1766015888.2179468,56
1766015888.218955,55
1766015888.21997,55
1766015888.220958,53
1766015888.221969,50
1766015888.222976,51
1766015888.2240582,55
1766015888.2250721,54
1766015888.226063,51
1766015888.227059,52
1766015888.2280462,52
1766015888.2290518,49
1766015888.2300658,52
1766015888.231037,51
1766015888.232033,50
1766015888.233032,52
1766015888.234027,50
1766015888.23505,50
1766015888.23606,46
1766015888.2370508,44
1766015888.2380512,47
1766015888.239058,47
1766015888.240065,48
1766015888.2410681,51
1766015888.242062,49
1766015888.243061,52
1766015888.2440581,48
1766015888.2450519,51
1766015888.246051,51
1766015888.247052,47
1766015888.2480462,49
1766015888.2490492,51
1766015888.25006,49
1766015888.251072,47
1766015888.25206,52
1766015888.2530491,48
1766015888.254051,48
1766015888.255064,51
1766015888.256066,53
1766015888.257067,51
1766015888.258111,53
1766015888.259053,51
1766015888.2600389,49
1766015888.261039,49
1766015888.262045,52
1766015888.263063,51
1766015888.264058,50
1766015888.2650712,45
1766015888.266065,52
1766015888.267061,50
1766015888.268061,49
1766015888.269055,49
1766015888.270066,49
1766015888.271073,49
1766015888.272071,50
1766015888.2730722,46
1766015888.2741382,49
1766015888.275108,47
1766015888.276119,48
1766015888.2771032,50
1766015888.278112,52
1766015888.279115,51
1766015888.2801569,51
1766015888.281148,47
1766015888.2821262,48
1766015888.283106,48
1766015888.2841558,48
1766015888.285156,50
1766015888.286109,50
1766015888.287135,48
1766015888.2881181,48
1766015888.289164,47
1766015888.290169,48
1766015888.2911098,53
1766015888.29216,48
1766015888.293168,48
1766015888.294177,45
1766015888.295171,47
1766015888.296142,49
1766015888.297178,47
1766015888.298174,45
1766015888.299171,46
1766015888.3001778,49
1766015888.3011782,43
1766015888.302159,44
1766015888.303209,44
1766015888.3042078,43
1766015888.305194,46
1766015888.306219,45
1766015888.307199,43
1766015888.308222,46
1766015888.309234,44
1766015888.310227,44
1766015888.311213,46
1766015888.312225,47
1766015888.313298,48
1766015888.3142772,47
1766015888.31528,49
1766015888.3162072,47
1766015888.317245,51
1766015888.3182652,50
1766015888.319245,47
1766015888.32025,44
1766015888.321237,50
1766015888.322237,47
1766015888.323236,49
1766015888.3242052,50
1766015888.325223,46
1766015888.326247,50
1766015888.327229,47
1766015888.328256,46
1766015888.329275,46
1766015888.330254,45
1766015888.331273,48
1766015888.332233,46
1766015888.333239,49
1766015888.3342469,50
1766015888.335285,44
1766015888.336283,47
1766015888.33729,47
1766015888.338275,46
1766015888.3392582,46
1766015888.340291,49
1766015888.3412638,46
1766015888.3422651,48
1766015888.343307,49
1766015888.3442822,46
1766015888.34531,48
1766015888.346312,48
1766015888.347278,48
1766015888.348284,47
1766015888.349271,49
1766015888.35033,49
1766015888.351285,51
1766015888.352292,50
1766015888.35332,51
1766015888.354325,51
1766015888.355296,52
1766015888.3563159,49
1766015888.357313,51
1766015888.358314,53
1766015888.3593442,54
1766015888.360325,51
1766015888.361356,49
1766015888.362345,53
1766015888.3633542,51
1766015888.364358,51
1766015888.3653498,52
1766015888.36638,51
1766015888.3673742,50
1766015888.368382,46
1766015888.369348,49
1766015888.370367,49
1766015888.371369,48
1766015888.372371,50
1766015888.373364,48
1766015888.374378,48
1766015888.375394,49
1766015888.37639,47
1766015888.377405,49
1766015888.378417,48
1766015888.3794,44
1766015888.380407,49
1766015888.3814,45
1766015888.3824298,46
1766015888.383376,48
1766015888.384387,48
1766015888.3854232,46
1766015888.38644,46
1766015888.387434,44
1766015888.3883982,45
1766015888.3894222,46
1766015888.390434,48
1766015888.391446,49
1766015888.39245,47
1766015888.3934479,48
1766015888.394447,46
1766015888.395453,47
1766015888.3964312,46
1766015888.397451,45
1766015888.3984482,48
1766015888.399455,46
1766015888.400459,44
1766015888.401472,46
1766015888.402462,48
1766015888.403462,43
1766015888.404466,45
1766015888.40548,42
1766015888.4064808,46
1766015888.4074738,47
1766015888.40848,46
1766015888.4094799,42
1766015888.410487,45
1766015888.4114869,47
1766015888.4124858,43
1766015888.413491,42
1766015888.4145029,45
1766015888.415503,43
1766015888.4165099,42
1766015888.417509,46
1766015888.418497,45
1766015888.4194932,44
1766015888.4205172,44
1766015888.4215271,43
1766015888.422526,45
1766015888.423529,45
1766015888.424521,41
1766015888.4255202,45
1766015888.426521,41
1766015888.427518,45
1766015888.4285388,46
1766015888.429528,44
1766015888.430561,44
1766015888.431545,41
1766015888.432541,42
1766015888.433569,41
1766015888.434567,45
1766015888.43556,42
1766015888.436556,43
1766015888.437564,44
1766015888.438571,43
1766015888.4395678,45
1766015888.440576,44
1766015888.4415848,48
1766015888.4425778,43
1766015888.443585,50
1766015888.44458,46
1766015888.445598,44
1766015888.446618,45
1766015888.447619,45
1766015888.448614,41
1766015888.449613,46
1766015888.45058,41
1766015888.451585,45
1766015888.452596,45
1766015888.453602,41
1766015888.454614,43
1766015888.45562,43
1766015888.456619,41
1766015888.457597,43
1766015888.4586082,41
1766015888.459591,40
1766015888.460605,43
1766015888.461613,39
1766015888.462605,42
1766015888.463592,42
1766015888.464604,41
1766015888.465622,44
1766015888.4666162,43
1766015888.467615,41
1766015888.468619,40
1766015888.469619,41
1766015888.4706151,42
1766015888.471617,39
1766015888.4726222,43
1766015888.473614,43
1766015888.474625,43
1766015888.475664,43
1766015888.476667,41
1766015888.4776692,43
1766015888.478695,44
1766015888.4796932,46
1766015888.4806662,40
1766015888.4816918,45
1766015888.482667,43
1766015888.483649,48
1766015888.484658,44
1766015888.485657,46
1766015888.48666,45
1766015888.487665,45
1766015888.4886558,46
1766015888.4896781,43
1766015888.4906712,41
1766015888.491671,47
1766015888.492665,44
1766015888.493671,40
1766015888.494675,42
1766015888.495702,45
1766015888.4967098,43
1766015888.497789,44
1766015888.498774,43
1766015888.499779,43
1766015888.500723,46
1766015888.501739,43
1766015888.502744,42
1766015888.503732,45
1766015888.5047412,42
1766015888.505905,44
1766015888.5067189,41
1766015888.507713,43
1766015888.5087302,44
1766015888.5097249,43
1766015888.510713,45
1766015888.5117419,47
1766015888.512722,45
1766015888.513728,45
1766015888.514734,52
1766015888.515786,49
1766015888.516733,49
1766015888.5177422,49
1766015888.518738,46
1766015888.519739,49
1766015888.5207412,47
1766015888.521739,44
1766015888.522763,47
1766015888.5237691,48
1766015888.5247512,45
1766015888.5257568,46
1766015888.5267782,47
1766015888.527767,43
1766015888.528776,45
1766015888.529758,45
1766015888.530781,46
1766015888.531786,46
1766015888.532762,50
1766015888.533771,43
1766015888.534775,45
1766015888.535775,47
1766015888.53683,46
1766015888.5378392,43
1766015888.5388532,43
1766015888.5398211,43
1766015888.5408268,45
1766015888.541829,42
1766015888.542839,46
1766015888.543846,45
1766015888.544852,42
1766015888.545829,44
1766015888.54685,42
1766015888.5478132,44
1766015888.5488179,43
1766015888.5498261,42
1766015888.550859,40
1766015888.551863,40
1766015888.5528388,40
1766015888.553853,41
1766015888.5548391,39
1766015888.555843,41
1766015888.556833,41
1766015888.5578408,41
1766015888.558839,43
1766015888.5598478,39
1766015888.560862,41
1766015888.5618649,42
1766015888.56287,43
1766015888.563884,42
1766015888.564872,39
1766015888.5659368,40
1766015888.566899,38
1766015888.5679219,39
1766015888.568922,42
1766015888.569918,38
1766015888.570924,38
1766015888.571925,38
1766015888.572921,38
1766015888.573921,37
1766015888.57492,38
1766015888.5759318,37
1766015888.5769322,37
1766015888.5779378,37
1766015888.57894,38
1766015888.579942,38
1766015888.580945,36
1766015888.58194,37
1766015888.5829382,40
1766015888.583956,41
1766015888.584954,39
1766015888.586051,42
1766015888.5869482,41
1766015888.587956,38
1766015888.589047,39
1766015888.590047,39
1766015888.5909498,37
1766015888.592053,40
1766015888.5930529,42
1766015888.594045,40
1766015888.5950541,41
1766015888.5960488,42
1766015888.59707,40
1766015888.598036,45
1766015888.599037,45
1766015888.600032,43
1766015888.6010509,45
1766015888.602047,42
1766015888.60302,42
1766015888.6040409,43
1766015888.605031,46
1766015888.6060429,46
1766015888.6070468,46
1766015888.608021,41
1766015888.609045,44
1766015888.610025,45
1766015888.6110332,44
1766015888.612025,44
1766015888.61302,45
1766015888.614016,43
1766015888.615021,45
1766015888.61606,42
1766015888.6170628,45
1766015888.618025,43
1766015888.619041,45
1766015888.620079,41
1766015888.621086,44
1766015888.622062,41
1766015888.623067,43
1766015888.624056,44
1766015888.625066,45
1766015888.6260831,44
1766015888.6270669,43
1766015888.628076,42
1766015888.629078,41
1766015888.630099,41
1766015888.631104,43
1766015888.632101,37
1766015888.633108,41
1766015888.6341078,44
1766015888.6351092,42
1766015888.63612,39
1766015888.637082,37
1766015888.63812,41
1766015888.639105,40
1766015888.640108,41
1766015888.641122,41
1766015888.642119,42
1766015888.643126,38
1766015888.644149,39
1766015888.6451268,38
1766015888.646129,38
1766015888.647122,39
1766015888.64813,36
1766015888.64915,36
1766015888.6501539,36
1766015888.6511471,35
1766015888.6521459,39
1766015888.653151,37
1766015888.654151,42
1766015888.655157,36
1766015888.65616,39
1766015888.6571488,40
1766015888.658155,40
1766015888.659144,41
1766015888.660148,41
1766015888.661165,43
1766015888.662157,43
1766015888.663171,43
1766015888.664181,45
1766015888.6651762,43
1766015888.666175,43
1766015888.6671748,45
1766015888.668179,43
1766015888.669176,44
1766015888.670177,43
1766015888.671179,41
1766015888.672204,42
1766015888.6732092,44
1766015888.674197,42
1766015888.675199,40
1766015888.676215,41
1766015888.677217,42
1766015888.678216,42
1766015888.6792178,40
1766015888.680213,42
1766015888.6812181,41
1766015888.682215,43
1766015888.68322,41
1766015888.684234,42
1766015888.685229,38
1766015888.6862562,40
1766015888.6872299,39
1766015888.688234,39
1766015888.6892328,39
1766015888.6902301,42
1766015888.691234,38
1766015888.692251,38
1766015888.6932778,38
1766015888.694258,37
1766015888.695266,39
1766015888.696244,38
1766015888.697263,36
1766015888.698261,40
1766015888.699262,37
1766015888.700264,40
1766015888.701262,41
1766015888.702276,41
