timestamp,emg_value
1766015896.0138829,35
1766015896.013897,34
1766015896.013907,33
1766015896.013917,32
1766015896.013928,34
1766015896.013942,34
1766015896.013964,33
1766015896.013977,33
1766015896.013988,32
1766015896.014001,34
1766015896.014011,36
1766015896.0140212,33
1766015896.014032,32
1766015896.0140412,32
1766015896.014053,32
1766015896.0140631,33
1766015896.014074,32
1766015896.0140858,31
1766015896.014097,34
1766015896.014107,35
1766015896.014117,33
1766015896.014127,33
1766015896.014139,32
1766015896.01415,34
1766015896.0141618,35
1766015896.014175,35
1766015896.014185,36
1766015896.014195,36
1766015896.014205,34
1766015896.014215,34
1766015896.014226,33
1766015896.014237,36
1766015896.0142589,35
1766015896.014271,34
1766015896.014281,35
1766015896.0142899,37
1766015896.0143008,36
1766015896.0143108,33
1766015896.014323,38
1766015896.014333,36
1766015896.014344,37
1766015896.014358,35
1766015896.0143669,35
1766015896.0143769,36
1766015896.014387,36
1766015896.014397,38
1766015896.014407,35
1766015896.014416,34
1766015896.014426,33
1766015896.014436,36
1766015896.0144472,36
1766015896.014457,37
1766015896.014467,36
1766015896.014485,35
1766015896.014496,38
1766015896.014506,37
1766015896.0145159,33
1766015896.014526,35
1766015896.0145369,35
1766015896.0145469,37
1766015896.014557,36
1766015896.014567,36
1766015896.014577,35
1766015896.014594,36
1766015896.014612,35
1766015896.014634,34
1766015896.014644,36
1766015896.014654,33
1766015896.014664,34
1766015896.014674,34
1766015896.014684,36
1766015896.014694,34
1766015896.014703,34
1766015896.014722,35
1766015896.014734,32
1766015896.014745,34
1766015896.014755,35
1766015896.0147688,32
1766015896.0147789,32
1766015896.014789,31
1766015896.014799,31
1766015896.0148091,33
1766015896.0148191,33
1766015896.0148292,35
1766015896.014839,32
1766015896.0148501,31
1766015896.01486,34
1766015896.01487,31
1766015896.01488,35
1766015896.0148969,32
1766015896.014907,30
1766015896.0149171,33
1766015896.0149271,34
1766015896.014982,34
1766015896.015027,31
1766015896.015041,33
1766015896.015054,32
1766015896.015073,29
1766015896.0150862,34
1766015896.0150988,31
1766015896.015112,30
1766015896.015124,35
1766015896.015137,33
1766015896.015149,34
1766015896.0151622,32
1766015896.015174,28
1766015896.015187,29
1766015896.015199,31
1766015896.015213,29
1766015896.015253,30
1766015896.015266,33
1766015896.015278,30
1766015896.015293,27
1766015896.015306,30
1766015896.015318,31
1766015896.015331,30
1766015896.0153432,33
1766015896.0153549,31
1766015896.015368,32
1766015896.01538,30
1766015896.015393,32
1766015896.015405,32
1766015896.015418,34
1766015896.01543,32
1766015896.0154428,31
1766015896.015456,35
1766015896.0154712,31
1766015896.015483,32
1766015896.015496,33
1766015896.015518,33
1766015896.015531,31
1766015896.0155442,31
1766015896.015557,30
1766015896.015569,32
1766015896.0155818,30
1766015896.015597,29
1766015896.015609,28
1766015896.015622,34
1766015896.015637,30
1766015896.015649,34
1766015896.0156622,33
1766015896.015674,32
1766015896.015687,31
1766015896.015702,33
1766015896.015714,31
1766015896.015727,36
1766015896.015739,30
1766015896.0157518,36
1766015896.015765,34
1766015896.015778,36
1766015896.01579,33
1766015896.0158029,38
1766015896.015815,36
1766015896.015827,33
1766015896.01584,37
1766015896.015852,36
1766015896.015865,38
1766015896.015877,35
1766015896.01589,36
1766015896.015902,34
1766015896.015915,35
1766015896.015928,38
1766015896.015947,38
1766015896.0159612,36
1766015896.0159738,36
1766015896.015986,34
1766015896.015999,34
1766015896.016011,32
1766015896.016024,35
1766015896.016036,35
1766015896.016049,32
1766015896.016062,36
1766015896.016074,35
1766015896.016099,33
1766015896.0161111,33
1766015896.016124,36
1766015896.016136,36
1766015896.016149,36
1766015896.016161,37
1766015896.016174,39
1766015896.016186,40
1766015896.016198,38
1766015896.016211,37
1766015896.016223,36
1766015896.016235,38
1766015896.016248,40
1766015896.0162601,40
1766015896.0162728,38
1766015896.016285,37
1766015896.016298,40
1766015896.01631,38
1766015896.016323,40
1766015896.016335,39
1766015896.016347,38
1766015896.01636,36
1766015896.0163789,34
1766015896.016394,37
1766015896.016406,37
1766015896.0164192,36
1766015896.016431,34
1766015896.0164428,35
1766015896.016456,34
1766015896.016468,33
1766015896.016481,32
1766015896.016494,35
1766015896.0165062,37
1766015896.0165188,34
1766015896.016531,34
1766015896.016543,36
1766015896.016556,34
1766015896.016576,32
1766015896.016588,34
1766015896.016601,35
1766015896.016613,35
1766015896.016626,34
1766015896.016638,31
1766015896.016651,35
1766015896.016663,29
1766015896.0166762,31
1766015896.016688,32
1766015896.0166998,30
1766015896.016713,29
1766015896.016725,33
1766015896.016737,31
1766015896.016751,30
1766015896.016763,34
1766015896.0167758,31
1766015896.016788,31
1766015896.016808,29
1766015896.016823,31
1766015896.016835,32
1766015896.0168478,31
1766015896.01686,34
1766015896.016883,32
1766015896.016895,29
1766015896.016908,29
1766015896.016921,27
1766015896.0169332,31
1766015896.0169458,28
1766015896.01697,27
1766015896.016983,28
1766015896.016995,32
1766015896.017008,29
1766015896.017018,28
1766015896.017029,29
1766015896.017039,27
1766015896.017051,31
1766015896.017062,29
1766015896.0170722,29
1766015896.017083,29
1766015896.0170932,30
1766015896.017104,30
1766015896.0171142,29
1766015896.0171251,29
1766015896.0171351,30
1766015896.017146,28
1766015896.017159,30
1766015896.017169,27
1766015896.01718,27
1766015896.01719,30
1766015896.017201,31
1766015896.017218,28
1766015896.017229,27
1766015896.0172422,29
1766015896.0172532,30
1766015896.0172632,30
1766015896.0172741,30
1766015896.0172842,29
1766015896.0172951,28
1766015896.017306,26
1766015896.017316,30
1766015896.017327,27
1766015896.017337,31
1766015896.017348,28
1766015896.017358,26
1766015896.017369,25
1766015896.01738,30
1766015896.01739,30
1766015896.017401,29
1766015896.017411,28
1766015896.017422,28
1766015896.017432,27
1766015896.0174432,25
1766015896.0174541,30
1766015896.0174642,28
1766015896.0174751,26
1766015896.0174851,28
1766015896.017496,26
1766015896.017507,28
1766015896.017517,30
1766015896.017528,27
1766015896.017538,27
1766015896.017549,27
1766015896.017559,23
1766015896.01757,26
1766015896.017587,29
1766015896.0176,27
1766015896.01761,27
1766015896.01762,26
1766015896.017631,29
1766015896.017643,28
1766015896.017654,25
1766015896.017664,27
1766015896.017675,27
1766015896.017685,28
1766015896.017696,27
1766015896.017706,30
1766015896.017717,25
1766015896.017727,29
1766015896.017751,23
1766015896.017762,27
1766015896.017772,28
1766015896.017783,29
1766015896.017793,26
1766015896.0178041,25
1766015896.017814,26
1766015896.0178251,27
1766015896.017835,26
1766015896.017846,25
1766015896.017856,28
1766015896.017867,24
1766015896.017878,29
1766015896.017888,25
1766015896.017899,28
1766015896.017909,26
1766015896.01792,25
1766015896.01793,24
1766015896.01794,26
1766015896.0179572,27
1766015896.017972,26
1766015896.017983,30
1766015896.017994,28
1766015896.018005,25
1766015896.018016,28
1766015896.0180259,27
1766015896.018037,26
1766015896.018047,28
1766015896.018058,29
1766015896.018068,25
1766015896.0180779,25
1766015896.018089,29
1766015896.0180988,24
1766015896.01811,27
1766015896.018121,25
1766015896.018131,27
1766015896.018142,22
1766015896.018152,29
1766015896.018163,30
1766015896.018173,28
1766015896.018184,29
1766015896.018194,25
1766015896.018205,25
1766015896.018215,25
1766015896.018228,26
1766015896.018238,27
1766015896.018249,24
1766015896.018259,27
1766015896.01827,30
1766015896.01828,25
1766015896.018291,26
1766015896.018301,25
1766015896.018311,25
1766015896.0183291,24
1766015896.018341,25
1766015896.018352,27
1766015896.018363,28
1766015896.018373,26
1766015896.018384,27
1766015896.018394,21
1766015896.0184052,25
1766015896.0184152,25
1766015896.0184262,28
1766015896.0184362,25
1766015896.0184472,27
1766015896.0184572,25
1766015896.0184681,27
1766015896.0184782,29
1766015896.0184882,29
1766015896.0184991,20
1766015896.01851,27
1766015896.01852,24
1766015896.0185301,25
1766015896.018541,28
1766015896.018552,30
1766015896.0185652,27
1766015896.0185752,21
1766015896.0185862,27
1766015896.0185962,27
1766015896.0186071,26
1766015896.0186172,24
1766015896.0186281,24
1766015896.0186381,29
1766015896.018649,28
1766015896.018659,27
1766015896.01867,25
1766015896.018687,24
1766015896.018699,25
1766015896.01871,24
1766015896.01872,24
1766015896.018731,27
1766015896.018741,28
1766015896.018752,26
1766015896.018763,28
1766015896.018773,27
1766015896.018784,27
1766015896.018794,27
1766015896.018805,27
1766015896.018815,26
1766015896.018826,25
1766015896.018836,29
1766015896.018847,26
1766015896.018857,26
1766015896.018868,26
1766015896.018878,28
1766015896.018889,23
1766015896.018899,29
1766015896.01891,25
1766015896.01892,25
1766015896.018931,28
1766015896.018941,26
1766015896.018952,25
1766015896.018974,26
1766015896.018985,28
1766015896.018996,29
1766015896.019006,27
1766015896.019017,28
1766015896.019028,28
1766015896.019038,28
1766015896.0190551,24
1766015896.019069,27
1766015896.01908,29
1766015896.01909,27
1766015896.019101,28
1766015896.019111,28
1766015896.019122,26
1766015896.019132,27
1766015896.0191429,29
1766015896.0191538,27
1766015896.0191638,31
1766015896.0191748,29
1766015896.0191848,29
1766015896.0191958,27
1766015896.0192058,26
1766015896.019217,29
1766015896.019228,25
1766015896.019238,28
1766015896.019249,25
1766015896.019259,27
1766015896.01927,29
1766015896.01928,26
1766015896.019291,28
1766015896.0193012,29
1766015896.0193121,26
1766015896.0193222,29
1766015896.0193331,27
1766015896.0193431,26
1766015896.019354,28
1766015896.0193658,30
1766015896.019377,29
1766015896.0193868,29
1766015896.019398,30
1766015896.019414,27
1766015896.019426,28
1766015896.019438,30
1766015896.019448,32
1766015896.019459,27
1766015896.019469,31
1766015896.01948,26
1766015896.01949,31
1766015896.019501,33
1766015896.019511,29
1766015896.019522,30
1766015896.019532,30
1766015896.019542,27
1766015896.019553,31
1766015896.019564,30
1766015896.019574,29
1766015896.0195851,29
1766015896.019595,30
1766015896.019606,29
1766015896.019616,29
1766015896.019627,29
1766015896.019638,29
1766015896.019648,31
1766015896.019659,32
1766015896.019669,31
1766015896.01968,31
1766015896.019691,32
1766015896.019701,31
1766015896.019711,33
1766015896.019722,28
1766015896.019733,30
1766015896.019743,32
1766015896.019754,28
1766015896.019764,32
1766015896.019781,31
1766015896.019794,30
1766015896.019805,29
1766015896.019815,29
1766015896.019826,32
1766015896.019836,31
1766015896.019847,30
1766015896.019857,30
1766015896.019868,32
1766015896.019878,33
1766015896.0198889,31
1766015896.019899,32
1766015896.0199099,33
1766015896.0199199,30
1766015896.0199308,35
1766015896.019941,32
1766015896.019952,32
1766015896.019962,31
1766015896.019973,32
1766015896.019983,28
1766015896.019994,33
1766015896.0200052,32
1766015896.020015,33
1766015896.0200262,34
1766015896.020036,35
1766015896.0200472,33
1766015896.0200572,29
1766015896.0200682,29
1766015896.0200791,34
1766015896.0200891,28
1766015896.0200992,31
1766015896.0201101,31
1766015896.0201201,30
1766015896.020137,32
1766015896.02015,33
1766015896.02016,31
1766015896.020171,28
1766015896.020181,30
1766015896.020192,29
1766015896.020203,31
1766015896.020213,29
1766015896.020223,28
1766015896.0202339,29
1766015896.020245,28
1766015896.020255,29
1766015896.020266,28
1766015896.020276,28
1766015896.020287,28
1766015896.020297,28
1766015896.020308,30
1766015896.020319,30
1766015896.020329,27
1766015896.02034,30
1766015896.020351,29
1766015896.020361,28
1766015896.020372,31
1766015896.020383,31
1766015896.020393,30
1766015896.0204039,27
1766015896.0204139,31
1766015896.0204248,28
1766015896.0204349,31
1766015896.020446,29
1766015896.0204558,30
1766015896.020467,31
1766015896.0204768,31
1766015896.0204911,31
1766015896.020504,27
1766015896.020514,26
1766015896.0205429,31
1766015896.020589,27
1766015896.0206022,28
1766015896.0206132,27
1766015896.0206249,28
1766015896.0206358,27
1766015896.0206468,29
1766015896.020658,27
1766015896.020669,29
1766015896.02068,29
1766015896.020691,32
1766015896.020702,29
1766015896.0207129,27
1766015896.020725,28
1766015896.020735,27
1766015896.020746,26
1766015896.020757,25
1766015896.020768,25
1766015896.020779,28
1766015896.02079,25
1766015896.0208,26
1766015896.020812,27
1766015896.020823,29
1766015896.020834,29
1766015896.0208452,28
1766015896.020857,26
1766015896.020868,26
1766015896.020879,25
1766015896.020889,27
1766015896.020902,28
1766015896.020916,27
1766015896.020929,27
1766015896.020939,24
1766015896.02095,26
1766015896.020972,27
1766015896.020983,25
1766015896.020994,25
1766015896.0210052,28
1766015896.0210161,26
1766015896.021027,25
1766015896.021037,31
1766015896.021048,26
1766015896.021059,26
1766015896.021096,27
1766015896.02111,27
1766015896.021121,27
1766015896.021133,29
1766015896.021143,27
1766015896.0211542,28
1766015896.0211651,27
1766015896.021176,25
1766015896.021186,24
1766015896.021197,25
1766015896.021208,24
1766015896.021218,25
1766015896.021229,25
1766015896.02124,28
1766015896.021251,23
1766015896.021261,24
1766015896.0212722,25
1766015896.0212831,27
1766015896.0212932,26
1766015896.0213041,25
1766015896.021319,27
1766015896.0213308,27
1766015896.0213408,26
1766015896.021352,25
1766015896.0213618,26
1766015896.021373,24
1766015896.021384,23
1766015896.021394,23
1766015896.021405,27
1766015896.021416,26
1766015896.021426,24
1766015896.021437,25
1766015896.021448,25
1766015896.021458,27
1766015896.0214689,26
1766015896.021479,25
1766015896.0214899,26
1766015896.0215008,26
1766015896.0215108,26
1766015896.0215218,27
1766015896.0215318,26
1766015896.021543,26
1766015896.021554,26
1766015896.021564,21
1766015896.021575,25
1766015896.021586,22
1766015896.021596,23
1766015896.021607,25
1766015896.021618,23
1766015896.021628,26
1766015896.0216389,24
1766015896.0216498,27
1766015896.0216599,25
1766015896.021675,27
1766015896.021686,23
1766015896.021696,27
1766015896.021707,24
1766015896.021718,23
1766015896.021728,22
1766015896.021739,26
1766015896.02175,20
1766015896.02176,25
1766015896.021771,25
1766015896.021781,26
1766015896.021792,26
1766015896.021803,26
1766015896.021816,25
1766015896.021826,27
1766015896.021837,19
1766015896.021847,24
1766015896.021858,27
1766015896.021869,26
1766015896.021879,25
1766015896.0218902,23
1766015896.0219011,26
1766015896.021912,26
1766015896.021922,25
1766015896.021933,22
1766015896.021944,24
1766015896.021954,25
1766015896.021965,26
1766015896.021976,23
1766015896.021987,25
1766015896.021997,23
1766015896.0220082,24
1766015896.0220191,25
1766015896.022033,26
1766015896.0220459,23
1766015896.0220559,24
1766015896.0220668,22
1766015896.0220768,24
1766015896.022088,26
1766015896.022099,25
1766015896.02211,24
1766015896.02212,21
1766015896.022131,21
1766015896.022142,25
1766015896.022153,23
1766015896.0221639,26
1766015896.022175,25
1766015896.0221848,23
1766015896.022196,25
1766015896.022207,24
1766015896.022217,21
1766015896.022228,24
1766015896.022238,24
1766015896.022249,24
1766015896.022259,26
1766015896.02227,24
1766015896.022281,24
1766015896.022291,28
1766015896.022302,25
1766015896.022312,23
1766015896.022323,26
1766015896.0223339,25
1766015896.0223439,27
1766015896.0223548,25
1766015896.022366,27
1766015896.0223758,25
1766015896.0223901,25
1766015896.022403,24
1766015896.022414,24
1766015896.022424,27
1766015896.0224352,24
1766015896.022445,22
1766015896.0224562,23
1766015896.022466,24
1766015896.0224771,22
1766015896.022488,23
1766015896.0224981,25
1766015896.022509,25
1766015896.022519,25
1766015896.0225291,25
1766015896.02254,22
1766015896.02255,22
1766015896.022561,23
1766015896.022571,23
1766015896.022582,24
1766015896.022592,25
1766015896.022603,25
1766015896.022614,23
1766015896.022624,20
1766015896.022634,21
1766015896.022645,24
1766015896.022655,22
1766015896.022666,26
1766015896.022676,24
1766015896.022687,23
1766015896.022698,26
1766015896.022708,24
1766015896.022719,27
1766015896.022729,22
1766015896.0227442,23
1766015896.0227551,23
1766015896.022767,23
1766015896.022777,25
1766015896.022788,24
1766015896.022798,24
1766015896.022809,23
1766015896.022819,21
1766015896.02283,24
1766015896.02284,25
1766015896.022851,25
1766015896.0228622,23
1766015896.022871,24
1766015896.02288,25
1766015896.022889,23
1766015896.022898,19
1766015896.022908,24
1766015896.022917,20
1766015896.022926,23
1766015896.0229352,25
1766015896.022944,22
1766015896.022953,24
1766015896.0229619,25
1766015896.022971,24
1766015896.0229802,23
1766015896.022989,23
1766015896.022998,23
1766015896.023008,25
1766015896.023017,23
1766015896.023026,21
1766015896.0230348,22
1766015896.023044,21
1766015896.0230532,23
1766015896.023066,23
1766015896.023078,23
1766015896.023087,25
1766015896.023096,26
1766015896.023105,26
1766015896.023115,25
1766015896.023124,25
1766015896.023133,24
1766015896.0231419,24
1766015896.0231512,27
1766015896.02316,27
1766015896.02317,23
1766015896.023179,24
1766015896.0231879,25
1766015896.023197,25
1766015896.023206,22
1766015896.023215,25
1766015896.023224,24
1766015896.023233,25
1766015896.023243,22
1766015896.023252,23
1766015896.0232608,24
1766015896.02327,24
1766015896.0232792,21
1766015896.023288,24
1766015896.023297,25
1766015896.023306,23
1766015896.023315,25
1766015896.023325,24
1766015896.0233338,24
1766015896.023343,26
1766015896.0233521,23
1766015896.023361,25
1766015896.023376,22
1766015896.023386,24
1766015896.0233972,24
1766015896.023406,24
1766015896.023415,23
1766015896.023424,22
1766015896.023433,24
1766015896.023442,23
1766015896.0234509,22
1766015896.0234601,24
1766015896.023469,20
1766015896.023478,23
1766015896.023487,24
1766015896.0234969,24
1766015896.023506,25
1766015896.023515,26
1766015896.023524,22
1766015896.023533,26
1766015896.023542,22
1766015896.023551,23
1766015896.023561,22
1766015896.0235698,23
1766015896.023579,24
1766015896.0235882,24
1766015896.023597,24
1766015896.023606,22
1766015896.023615,26
1766015896.023624,22
1766015896.023633,23
1766015896.023642,22
1766015896.0236511,22
1766015896.02366,26
1766015896.023669,23
1766015896.023678,21
1766015896.023687,22
1766015896.023696,23
1766015896.0237062,23
1766015896.023715,25
1766015896.023725,24
1766015896.023734,25
1766015896.0237498,22
1766015896.0237591,25
1766015896.023768,22
1766015896.023778,22
1766015896.023787,25
1766015896.023796,25
1766015896.023805,22
1766015896.023815,25
1766015896.023824,26
1766015896.023833,25
1766015896.023842,21
1766015896.023851,25
1766015896.02386,21
1766015896.023869,25
1766015896.0238779,23
1766015896.0238872,23
1766015896.0238972,26
1766015896.023906,21
1766015896.023915,21
1766015896.0239239,21
1766015896.023933,20
1766015896.023942,22
1766015896.023951,22
1766015896.02396,20
1766015896.023969,23
1766015896.023979,23
1766015896.023988,23
1766015896.0239968,22
1766015896.024006,22
1766015896.024016,24
1766015896.0240252,21
1766015896.024034,22
1766015896.024043,22
1766015896.024052,25
1766015896.024064,19
1766015896.024073,24
1766015896.024083,24
1766015896.024092,21
1766015896.024101,20
1766015896.02411,25
1766015896.0241191,23
1766015896.024128,20
1766015896.024137,23
1766015896.0241458,22
1766015896.024155,24
1766015896.0241652,20
1766015896.0241752,20
1766015896.024184,23
1766015896.024193,22
1766015896.0242019,23
1766015896.024212,21
1766015896.024221,22
1766015896.02423,24
1766015896.024239,20
1766015896.0242481,22
1766015896.024257,20
1766015896.024266,25
1766015896.0242748,23
1766015896.024284,21
1766015896.0242932,22
1766015896.0243032,24
1766015896.024312,22
1766015896.024321,24
1766015896.024333,23
1766015896.024342,26
1766015896.024351,25
1766015896.024361,21
1766015896.02437,22
1766015896.0243788,22
1766015896.024388,23
1766015896.0243971,23
1766015896.0244071,20
1766015896.024416,21
1766015896.024425,23
1766015896.0244339,25
1766015896.024443,22
1766015896.0244522,22
1766015896.024461,25
1766015896.02447,23
1766015896.02448,25
1766015896.024489,23
1766015896.024498,23
1766015896.0245068,24
1766015896.024516,23
1766015896.0245252,25
1766015896.024534,24
1766015896.024543,25
1766015896.024553,19
1766015896.024562,24
1766015896.024571,25
1766015896.02458,21
1766015896.024589,25
1766015896.0245981,26
1766015896.024607,22
1766015896.024616,25
1766015896.024626,24
1766015896.0246348,23
1766015896.0246441,21
1766015896.024653,24
1766015896.024662,25
1766015896.024671,23
1766015896.0246809,26
1766015896.02469,21
1766015896.024699,25
1766015896.024708,25
1766015896.024719,25
1766015896.024728,25
1766015896.0247371,23
1766015896.024786,25
1766015896.0247948,23
1766015896.024804,21
1766015896.0248132,27
1766015896.024822,25
1766015896.024831,26
1766015896.024841,25
1766015896.02485,25
1766015896.024859,22
1766015896.024868,23
1766015896.024877,26
1766015896.0248861,20
1766015896.024895,24
1766015896.024904,25
1766015896.024914,23
1766015896.0249228,25
1766015896.0249321,24
1766015896.024941,26
1766015896.02495,24
1766015896.02496,26
1766015896.0249689,27
1766015896.024978,26
1766015896.024987,24
1766015896.024996,23
1766015896.025005,23
1766015896.025015,23
1766015896.025024,25
1766015896.025033,24
1766015896.0250418,24
1766015896.0250509,23
1766015896.0250611,24
1766015896.0250702,23
1766015896.025079,25
1766015896.025088,25
1766015896.025097,24
1766015896.025106,22
1766015896.0251148,24
1766015896.025124,23
1766015896.025134,25
1766015896.0251431,23
1766015896.025152,22
1766015896.025161,23
1766015896.0251698,25
1766015896.0251799,23
1766015896.0251892,25
1766015896.025198,24
1766015896.025207,25
1766015896.025216,24
1766015896.025225,21
1766015896.025234,25
1766015896.0252428,24
1766015896.025256,24
1766015896.025265,25
1766015896.025274,27
1766015896.025283,27
1766015896.025292,25
1766015896.025301,24
1766015896.02531,25
1766015896.0253189,27
1766015896.0253282,24
1766015896.025337,21
1766015896.025346,25
1766015896.025355,23
1766015896.025364,22
1766015896.025373,23
1766015896.0253818,27
1766015896.025391,23
1766015896.0254002,22
1766015896.02541,24
1766015896.025419,26
1766015896.025428,22
1766015896.0254369,24
1766015896.025446,25
1766015896.025455,26
1766015896.025464,24
1766015896.025473,20
1766015896.025482,23
1766015896.025491,24
1766015896.025501,24
1766015896.0255098,25
1766015896.0255191,26
1766015896.025528,26
1766015896.025538,22
1766015896.025547,21
1766015896.026027,26
1766015896.027052,24
1766015896.0280478,25
1766015896.029094,25
1766015896.030098,25
1766015896.031103,25
1766015896.032068,26
1766015896.033056,25
1766015896.034077,26
1766015896.0350878,24
1766015896.036083,26
1766015896.037087,24
1766015896.038102,25
1766015896.039117,26
1766015896.040104,25
1766015896.0410829,24
1766015896.042075,24
1766015896.0431092,26
1766015896.0440938,23
1766015896.045109,26
1766015896.046104,24
1766015896.0470898,27
1766015896.0481129,26
1766015896.04912,25
1766015896.0501509,26
1766015896.0511491,24
1766015896.0521338,25
1766015896.053117,27
1766015896.054124,26
1766015896.055161,29
1766015896.056153,24
1766015896.057176,28
1766015896.058172,24
1766015896.0591612,25
1766015896.0601778,25
1766015896.0611799,24
1766015896.0621839,23
1766015896.0631738,25
1766015896.064192,26
1766015896.065205,30
1766015896.0662029,29
1766015896.067168,26
1766015896.0681689,28
1766015896.069171,21
1766015896.0701811,24
1766015896.071181,23
1766015896.072187,26
1766015896.073195,26
1766015896.074189,25
1766015896.075215,25
1766015896.0761862,23
1766015896.0771992,26
1766015896.0782762,25
1766015896.079231,23
1766015896.080265,25
1766015896.081216,23
1766015896.082268,25
1766015896.083251,24
1766015896.0842528,22
1766015896.0852292,24
1766015896.086232,24
1766015896.087239,25
1766015896.088234,22
1766015896.089232,23
1766015896.090271,23
1766015896.09127,22
1766015896.092257,23
1766015896.093272,25
1766015896.09424,24
1766015896.095249,24
1766015896.0962691,23
1766015896.09728,26
1766015896.098293,25
1766015896.099251,23
1766015896.1002429,23
1766015896.101245,23
1766015896.102256,23
1766015896.10325,23
1766015896.104228,26
1766015896.105257,25
1766015896.106269,25
1766015896.107271,27
1766015896.108269,20
1766015896.1092732,24
1766015896.110263,22
1766015896.111288,23
1766015896.112291,23
1766015896.1132789,24
1766015896.114281,23
1766015896.1153421,25
1766015896.116309,22
1766015896.1173,24
1766015896.118311,23
1766015896.119315,24
1766015896.120329,27
1766015896.121314,21
1766015896.1223931,25
1766015896.1233459,22
1766015896.124314,25
1766015896.125367,24
1766015896.126365,24
1766015896.127357,24
1766015896.1283672,24
1766015896.129335,22
1766015896.130373,25
1766015896.131336,26
1766015896.1323771,22
1766015896.133357,24
1766015896.134371,26
1766015896.1353831,23
1766015896.136373,23
1766015896.137373,25
1766015896.13837,23
1766015896.139358,25
1766015896.140367,22
1766015896.1413481,26
1766015896.1423922,25
1766015896.1433759,22
1766015896.144417,23
1766015896.145369,25
1766015896.146453,24
1766015896.147433,25
1766015896.148438,22
1766015896.149436,24
1766015896.150472,23
1766015896.151419,23
1766015896.1523998,23
1766015896.15341,26
1766015896.154418,26
1766015896.155416,22
1766015896.156415,23
1766015896.157412,24
1766015896.158408,20
1766015896.159418,24
1766015896.160415,22
1766015896.161487,22
1766015896.162446,24
1766015896.163481,24
1766015896.1644402,25
1766015896.165445,24
1766015896.166442,24
1766015896.167435,24
1766015896.168444,24
1766015896.1694431,23
1766015896.170458,22
1766015896.171494,23
1766015896.1724548,25
1766015896.173441,23
1766015896.174447,23
1766015896.175466,23
1766015896.1764648,26
1766015896.177462,23
1766015896.178486,24
1766015896.1794791,22
1766015896.1804621,24
1766015896.181474,22
1766015896.182498,26
1766015896.183576,23
1766015896.184489,23
1766015896.185505,24
1766015896.186497,24
1766015896.187546,24
1766015896.1885319,26
1766015896.189558,26
1766015896.1905322,24
1766015896.1915221,22
1766015896.192555,23
1766015896.19352,25
1766015896.194556,23
1766015896.1955898,22
1766015896.196568,20
1766015896.197549,23
1766015896.198538,25
1766015896.199549,24
1766015896.200546,20
1766015896.201535,22
1766015896.2025652,26
1766015896.206597,22
1766015896.206964,24
1766015896.207226,22
1766015896.207241,21
1766015896.217181,23
1766015896.217189,23
1766015896.217194,23
1766015896.217199,23
1766015896.2172039,24
1766015896.217209,21
1766015896.2172139,25
1766015896.217221,25
1766015896.217226,25
1766015896.217231,25
1766015896.2186081,24
1766015896.218623,23
1766015896.223946,25
1766015896.2239602,24
1766015896.22397,24
1766015896.22398,25
1766015896.2239912,24
1766015896.2246342,23
1766015896.2256289,24
1766015896.2269282,25
1766015896.227648,27
1766015896.228647,25
1766015896.229955,25
1766015896.2328682,24
1766015896.232882,25
1766015896.232893,26
1766015896.233654,29
1766015896.234642,28
1766015896.2356439,27
1766015896.2434292,28
1766015896.243443,28
1766015896.243454,30
1766015896.243464,28
1766015896.243475,26
1766015896.243485,29
1766015896.243495,30
1766015896.244019,28
1766015896.2446852,29
1766015896.245698,30
1766015896.246732,30
1766015896.2477062,31
1766015896.248713,29
1766015896.2507432,32
1766015896.250758,33
1766015896.253487,28
1766015896.253502,29
1766015896.2577338,33
1766015896.257748,34
1766015896.257759,33
1766015896.2577689,31
1766015896.25778,31
1766015896.2587252,30
1766015896.259737,29
1766015896.260736,32
1766015896.2617412,29
1766015896.2628212,27
1766015896.263752,30
1766015896.2647412,30
1766015896.265748,28
1766015896.266739,34
1766015896.267741,31
1766015896.2687318,28
1766015896.2697332,31
1766015896.270738,28
1766015896.271764,30
1766015896.2727602,32
1766015896.2737541,29
1766015896.2747788,32
1766015896.275767,30
1766015896.27677,30
1766015896.27777,30
1766015896.278795,29
1766015896.279813,29
1766015896.280781,29
1766015896.281785,29
1766015896.282769,29
1766015896.283776,31
1766015896.2847831,32
1766015896.285781,31
1766015896.286787,33
1766015896.287796,32
1766015896.288775,29
1766015896.289779,30
1766015896.290794,28
1766015896.291779,30
1766015896.292804,29
1766015896.293791,26
1766015896.294805,29
1766015896.295796,33
1766015896.2968059,28
1766015896.297803,29
1766015896.298848,30
1766015896.2997901,30
1766015896.3008242,30
1766015896.3018181,31
1766015896.302806,27
1766015896.303828,33
1766015896.304847,31
1766015896.305853,33
1766015896.306853,32
1766015896.3078558,29
1766015896.308844,29
1766015896.309849,31
1766015896.310855,29
1766015896.3118742,30
1766015896.312852,31
1766015896.313866,32
1766015896.314923,31
1766015896.3158798,29
1766015896.316872,30
1766015896.317877,32
1766015896.318891,31
1766015896.3198972,31
1766015896.3208861,30
1766015896.321895,33
1766015896.32289,32
1766015896.323912,35
1766015896.3249888,32
1766015896.325922,33
1766015896.326904,34
1766015896.327904,38
1766015896.328911,31
1766015896.329917,35
1766015896.330942,36
1766015896.3319428,35
1766015896.332927,35
1766015896.333893,37
1766015896.3349051,35
1766015896.335936,33
1766015896.336919,36
1766015896.338005,34
1766015896.338926,34
1766015896.3400059,38
1766015896.341019,33
1766015896.342007,36
1766015896.343014,37
1766015896.344005,35
1766015896.345029,35
1766015896.3460329,35
1766015896.347024,38
1766015896.348018,34
1766015896.349022,37
1766015896.349994,37
1766015896.351037,35
1766015896.35203,37
1766015896.353008,39
1766015896.354013,38
1766015896.355017,35
1766015896.3560672,36
1766015896.356997,35
1766015896.358019,36
1766015896.359018,37
1766015896.3600059,35
1766015896.361022,40
1766015896.362015,35
1766015896.363004,35
1766015896.3640268,40
1766015896.365042,39
1766015896.366019,40
1766015896.367021,39
1766015896.368067,39
1766015896.3690171,38
1766015896.3700638,37
1766015896.371051,35
1766015896.372024,39
1766015896.3730931,40
1766015896.374187,36
1766015896.375058,37
1766015896.37605,37
1766015896.377045,38
1766015896.378057,39
1766015896.379061,36
1766015896.3800561,34
1766015896.381077,36
1766015896.382081,36
1766015896.383138,37
1766015896.384087,35
1766015896.38512,37
1766015896.386137,36
1766015896.3870988,35
1766015896.388126,36
1766015896.389112,39
1766015896.3900769,36
1766015896.391089,39
1766015896.392094,36
1766015896.393117,39
1766015896.3941262,38
1766015896.3951218,39
1766015896.396121,35
1766015896.3971012,37
1766015896.398109,40
1766015896.3991208,37
1766015896.400105,37
1766015896.401134,39
1766015896.4021068,38
1766015896.403106,40
1766015896.4041338,41
1766015896.405129,44
1766015896.4061341,42
1766015896.407146,40
1766015896.4081101,38
1766015896.409162,42
1766015896.410145,41
1766015896.4111428,41
1766015896.412147,42
1766015896.413217,42
1766015896.41419,38
1766015896.415162,42
1766015896.416162,38
1766015896.4171789,40
1766015896.418176,41
1766015896.419171,41
1766015896.420187,43
1766015896.4211829,41
1766015896.42225,44
1766015896.4231942,42
1766015896.4242072,42
1766015896.425193,45
1766015896.426191,43
1766015896.4271932,44
1766015896.428176,45
1766015896.429195,45
1766015896.430201,42
1766015896.4312031,45
1766015896.4322062,44
1766015896.433213,42
1766015896.434192,41
1766015896.435196,45
1766015896.436212,41
1766015896.437207,43
1766015896.438254,40
1766015896.4392278,43
1766015896.4402199,46
1766015896.44122,41
1766015896.442253,41
1766015896.443237,42
1766015896.444234,45
1766015896.445238,40
1766015896.4462771,43
1766015896.44726,43
1766015896.4482281,42
1766015896.4492512,43
1766015896.450251,38
1766015896.451253,40
1766015896.4522629,39
1766015896.453254,41
1766015896.454268,40
1766015896.455266,42
1766015896.456269,43
1766015896.457317,43
1766015896.4582632,43
1766015896.459258,43
1766015896.460255,41
1766015896.461262,44
1766015896.4622731,41
1766015896.4633,42
1766015896.4642859,40
1766015896.46529,42
1766015896.466322,42
1766015896.467312,41
1766015896.468302,41
1766015896.469376,40
1766015896.470339,42
1766015896.4713259,42
1766015896.472328,43
1766015896.473315,40
1766015896.474344,38
1766015896.475311,42
1766015896.476326,45
1766015896.477342,41
1766015896.478339,41
1766015896.479337,45
1766015896.4803772,37
1766015896.481358,39
1766015896.482371,39
1766015896.483354,39
1766015896.484374,38
1766015896.485363,37
1766015896.486366,42
1766015896.487359,38
1766015896.488356,39
1766015896.489374,38
1766015896.490399,42
1766015896.491379,41
1766015896.492379,41
1766015896.493375,39
1766015896.4943738,36
1766015896.4953659,38
1766015896.496377,40
1766015896.497389,38
1766015896.498382,39
1766015896.4994,39
1766015896.5003772,39
1766015896.5013828,40
1766015896.502468,38
1766015896.503413,38
1766015896.504435,40
1766015896.505422,38
1766015896.5064168,39
1766015896.5074072,40
1766015896.508409,38
1766015896.5094311,40
1766015896.510436,38
1766015896.511434,37
1766015896.512461,40
1766015896.5134468,41
1766015896.5144289,38
1766015896.515433,44
1766015896.5164218,41
1766015896.5174432,37
1766015896.518451,41
1766015896.5194461,39
1766015896.520464,38
1766015896.52147,39
1766015896.522472,37
1766015896.523468,38
1766015896.52446,39
1766015896.525491,41
1766015896.526486,40
1766015896.52747,40
1766015896.52849,40
1766015896.529484,38
1766015896.530498,37
1766015896.531496,38
1766015896.532486,42
1766015896.533507,39
1766015896.534501,42
1766015896.535512,40
1766015896.536501,41
1766015896.537533,40
1766015896.538548,42
1766015896.539514,41
1766015896.540524,40
1766015896.541522,39
1766015896.542521,40
1766015896.5435221,41
1766015896.544538,42
1766015896.54554,43
1766015896.5465448,42
1766015896.547552,44
1766015896.548558,41
1766015896.549557,44
1766015896.550555,45
1766015896.5515609,47
1766015896.552543,47
1766015896.55357,43
1766015896.554568,45
1766015896.5555708,46
1766015896.5565708,43
1766015896.5575418,45
1766015896.558563,45
1766015896.559569,43
1766015896.560589,41
1766015896.5615969,42
1766015896.562598,46
1766015896.563626,41
1766015896.564594,45
1766015896.5656772,46
1766015896.566582,47
1766015896.567605,46
1766015896.568608,50
1766015896.5696168,49
1766015896.570621,50
1766015896.571627,50
1766015896.5726268,50
1766015896.5736141,46
1766015896.574615,49
1766015896.575616,47
1766015896.576627,50
1766015896.5776901,48
1766015896.578676,46
1766015896.579613,46
1766015896.580626,44
1766015896.5816371,47
1766015896.582657,44
1766015896.583673,47
1766015896.58464,44
1766015896.58565,47
1766015896.586644,44
1766015896.587648,45
1766015896.588657,47
1766015896.589667,45
1766015896.590677,46
1766015896.591684,46
1766015896.5926762,45
1766015896.593667,45
1766015896.594673,45
1766015896.595684,45
1766015896.596694,46
1766015896.597694,43
1766015896.598678,44
1766015896.599669,47
1766015896.600689,47
1766015896.601685,46
1766015896.602706,48
1766015896.6037052,48
1766015896.6047301,48
1766015896.605748,51
1766015896.606742,49
1766015896.607719,52
1766015896.608757,48
1766015896.609736,45
1766015896.610734,48
1766015896.611809,47
1766015896.612731,47
1766015896.613759,49
1766015896.614757,46
1766015896.6157591,47
1766015896.6167512,45
1766015896.6177301,47
1766015896.6187341,49
1766015896.619738,45
1766015896.620737,46
1766015896.621752,45
1766015896.6227698,43
1766015896.623745,45
1766015896.624744,47
1766015896.625748,46
1766015896.626747,45
1766015896.627755,44
1766015896.628761,45
1766015896.629778,44
1766015896.630778,45
1766015896.631775,42
1766015896.632789,44
1766015896.6337888,44
1766015896.634793,43
1766015896.635791,44
1766015896.6367931,43
1766015896.6377978,45
1766015896.638817,45
1766015896.639821,44
1766015896.640813,39
1766015896.64181,40
1766015896.642807,44
1766015896.643807,44
1766015896.644816,40
1766015896.645869,42
1766015896.646851,43
1766015896.647817,42
1766015896.648874,42
1766015896.649842,40
1766015896.650827,39
1766015896.651826,43
1766015896.6528351,41
1766015896.653825,42
1766015896.6548579,40
1766015896.655843,43
1766015896.656843,42
1766015896.657852,41
1766015896.658865,41
1766015896.659872,40
1766015896.6608908,41
1766015896.661896,39
1766015896.662935,40
1766015896.663899,42
1766015896.664887,41
1766015896.66588,41
1766015896.6669,41
1766015896.6679292,41
1766015896.668897,40
1766015896.669916,43
1766015896.670899,40
1766015896.6719732,40
1766015896.672937,43
1766015896.673923,44
1766015896.674911,40
1766015896.675921,42
1766015896.676914,42
1766015896.677917,43
1766015896.678916,41
1766015896.679925,42
1766015896.681014,41
1766015896.6819232,42
1766015896.683001,42
1766015896.684031,39
1766015896.685018,41
1766015896.6860921,38
1766015896.687018,40
1766015896.688023,37
1766015896.6890318,39
1766015896.690018,40
1766015896.691017,40
1766015896.692009,39
1766015896.692993,40
1766015896.694027,42
1766015896.6950321,43
1766015896.696001,40
1766015896.696992,39
1766015896.698007,41
1766015896.69899,41
1766015896.6999922,42
1766015896.700991,43
1766015896.7019892,41
1766015896.702992,41
1766015896.704003,40
1766015896.7050009,41
1766015896.705994,40
1766015896.707019,42
1766015896.7080178,39
1766015896.709038,42
1766015896.7100239,43
1766015896.710996,41
1766015896.7120068,44
1766015896.713012,45
1766015896.71401,42
1766015896.7150311,41
1766015896.7160718,45
1766015896.717045,42
1766015896.718051,43
1766015896.7190652,42
1766015896.720063,44
1766015896.721079,41
1766015896.722058,43
1766015896.7230358,41
1766015896.724046,43
1766015896.72507,43
1766015896.726043,40
1766015896.7271428,40
1766015896.728126,39
1766015896.729074,39
1766015896.7301152,38
1766015896.7311518,43
1766015896.732116,43
1766015896.733085,37
1766015896.734117,39
1766015896.735143,40
1766015896.736114,41
1766015896.737107,37
1766015896.738125,40
1766015896.739085,38
1766015896.7401102,40
1766015896.741142,38
1766015896.7421272,39
1766015896.743115,39
1766015896.74411,38
1766015896.745127,40
1766015896.746117,39
1766015896.747099,39
1766015896.748138,40
1766015896.74913,39
1766015896.750141,42
1766015896.751144,36
1766015896.752149,38
1766015896.753202,41
1766015896.7541308,40
1766015896.755203,37
1766015896.7561998,41
1766015896.757208,37
1766015896.7581959,39
1766015896.759232,40
1766015896.760213,39
1766015896.7612212,36
1766015896.762145,36
1766015896.763201,37
1766015896.7642062,36
1766015896.765213,35
1766015896.76618,38
1766015896.76719,39
1766015896.7682078,40
1766015896.769193,37
1766015896.770165,36
1766015896.771175,36
1766015896.7721999,37
1766015896.773199,39
1766015896.774192,39
1766015896.775213,38
1766015896.776175,38
1766015896.777215,34
1766015896.778207,38
1766015896.7792032,38
1766015896.780212,39
1766015896.781239,38
1766015896.7822258,37
1766015896.783232,35
1766015896.7842402,37
1766015896.785253,39
1766015896.786252,39
1766015896.787227,39
1766015896.7882519,40
1766015896.789259,38
1766015896.790292,37
1766015896.791316,41
1766015896.792269,37
1766015896.793312,38
1766015896.794268,38
1766015896.7952561,38
1766015896.796319,38
1766015896.797332,36
1766015896.798281,36
1766015896.799338,37
1766015896.8003242,39
1766015896.801343,35
1766015896.802284,38
1766015896.803267,38
1766015896.804331,36
1766015896.8053062,37
1766015896.806329,35
1766015896.807339,35
1766015896.8083289,42
1766015896.8093219,39
1766015896.810315,39
1766015896.811359,40
1766015896.8123531,39
1766015896.8132942,41
1766015896.8143702,39
1766015896.81536,39
1766015896.816353,40
1766015896.817356,39
1766015896.818348,40
1766015896.819388,40
1766015896.820378,39
1766015896.821386,42
1766015896.822413,41
1766015896.82337,45
1766015896.824419,42
1766015896.825444,43
1766015896.8263738,43
1766015896.82741,46
1766015896.828355,47
1766015896.829344,41
1766015896.830397,42
1766015896.831411,44
1766015896.832418,45
1766015896.833427,45
1766015896.834435,42
1766015896.8354402,41
1766015896.83641,42
1766015896.83743,43
1766015896.838431,42
1766015896.839438,41
1766015896.84045,38
1766015896.8414562,41
1766015896.842454,38
1766015896.843453,42
1766015896.844448,42
1766015896.8454459,41
1766015896.8464699,38
1766015896.847451,40
1766015896.8484612,39
1766015896.849468,40
1766015896.850477,40
1766015896.851459,39
1766015896.852444,41
1766015896.853408,38
1766015896.854534,39
1766015896.8554711,41
1766015896.856473,41
1766015896.857494,40
1766015896.858495,39
1766015896.8594959,40
1766015896.860478,38
1766015896.861444,36
1766015896.862484,38
1766015896.8634958,39
1766015896.864501,38
1766015896.8655,40
1766015896.866519,36
1766015896.867502,34
1766015896.868505,38
1766015896.869514,37
1766015896.870506,39
1766015896.871522,38
1766015896.872532,39
1766015896.873516,38
1766015896.8745332,39
1766015896.875499,38
1766015896.876535,38
1766015896.877501,36
1766015896.8784902,36
1766015896.879539,37
1766015896.880554,37
1766015896.8815308,35
1766015896.882549,36
1766015896.883532,36
1766015896.884564,40
1766015896.8855581,38
1766015896.886508,40
1766015896.887512,36
1766015896.88853,35
1766015896.889569,37
1766015896.8905652,37
1766015896.891554,38
1766015896.8925881,37
1766015896.893567,39
1766015896.894589,40
1766015896.895547,38
1766015896.8965492,36
1766015896.8975842,39
1766015896.8985941,36
1766015896.899607,37
1766015896.900586,38
1766015896.9015858,36
1766015896.9025989,35
1766015896.903584,34
1766015896.904604,35
1766015896.905625,39
1766015896.906592,34
1766015896.9076228,34
1766015896.9086149,37
1766015896.9096231,37
1766015896.9105952,35
1766015896.911606,33
1766015896.912622,36
1766015896.913642,35
1766015896.9146261,37
1766015896.9156559,39
1766015896.916637,39
1766015896.9176462,37
1766015896.9186509,37
1766015896.919641,37
1766015896.920654,39
1766015896.921655,39
1766015896.922661,38
1766015896.923661,35
1766015896.924672,38
1766015896.925673,35
1766015896.92668,38
1766015896.927683,41
1766015896.928691,38
1766015896.9296808,40
1766015896.930712,37
1766015896.931681,39
1766015896.932682,39
1766015896.9336839,40
1766015896.934675,36
1766015896.9357061,34
1766015896.936687,37
1766015896.9377081,37
1766015896.938693,35
1766015896.939688,35
1766015896.940726,37
1766015896.941688,37
1766015896.9427042,35
1766015896.943721,37
1766015896.944709,34
1766015896.945712,36
1766015896.9467158,34
1766015896.94771,36
1766015896.948711,37
1766015896.949709,38
1766015896.950737,36
1766015896.9517179,38
1766015896.952718,35
1766015896.953724,37
1766015896.954734,37
1766015896.9557362,39
1766015896.956741,39
1766015896.9577348,39
1766015896.958733,36
1766015896.9597352,38
1766015896.960747,39
1766015896.961726,37
1766015896.962734,36
1766015896.9637592,37
1766015896.964761,38
1766015896.9657412,38
1766015896.966763,37
1766015896.967768,38
1766015896.968758,37
1766015896.969762,36
1766015896.970763,39
1766015896.971761,35
1766015896.972769,35
1766015896.973768,37
1766015896.974776,37
1766015896.975801,40
1766015896.976809,34
1766015896.97781,36
1766015896.978824,36
1766015896.979892,38
1766015896.980777,39
1766015896.9818208,36
1766015896.982817,44
1766015896.9837902,42
1766015896.98483,39
1766015896.985832,40
1766015896.9867861,43
1766015896.9878411,44
1766015896.988857,49
1766015896.9897878,46
1766015896.9908412,50
1766015896.991842,48
1766015896.992851,50
1766015896.9937952,48
1766015896.994808,49
1766015896.9958458,46
1766015896.996845,49
1766015896.997878,43
1766015896.998852,45
1766015896.9998841,45
1766015897.000843,46
1766015897.001846,48
1766015897.002917,49
1766015897.003875,47
1766015897.004864,49
1766015897.005871,48
1766015897.006857,49
1766015897.007853,48
1766015897.008849,46
1766015897.009848,49
1766015897.010849,47
1766015897.0118551,49
1766015897.012856,48
1766015897.0138612,50
