timestamp,emg_value
1766015883.253684,46
1766015883.253702,46
1766015883.253716,46
1766015883.253729,49
1766015883.2537432,47
1766015883.253757,45
1766015883.2537742,46
1766015883.2537868,45
1766015883.2538,50
1766015883.253814,48
1766015883.253827,49
1766015883.25384,45
1766015883.2538528,47
1766015883.253867,48
1766015883.253879,44
1766015883.2538922,46
1766015883.2539048,44
1766015883.253918,46
1766015883.253931,46
1766015883.2539442,49
1766015883.253957,45
1766015883.25397,45
1766015883.253982,46
1766015883.254005,47
1766015883.254017,48
1766015883.2540312,45
1766015883.2540429,46
1766015883.254056,53
1766015883.254069,48
1766015883.254082,51
1766015883.2540941,47
1766015883.254107,52
1766015883.254132,48
1766015883.254145,46
1766015883.254158,51
1766015883.254171,49
1766015883.254184,44
1766015883.254197,50
1766015883.25421,46
1766015883.2542222,47
1766015883.2542348,43
1766015883.2542489,49
1766015883.254262,45
1766015883.2542741,47
1766015883.254287,47
1766015883.2542999,43
1766015883.254313,45
1766015883.254326,46
1766015883.2543402,45
1766015883.2543528,45
1766015883.254366,46
1766015883.254378,45
1766015883.254391,46
1766015883.254404,45
1766015883.254417,43
1766015883.25443,42
1766015883.254443,43
1766015883.254455,44
1766015883.2544682,44
1766015883.2544808,46
1766015883.254494,47
1766015883.2545059,43
1766015883.254519,46
1766015883.254532,45
1766015883.2545469,46
1766015883.2545652,46
1766015883.254577,42
1766015883.25459,43
1766015883.254603,43
1766015883.254616,44
1766015883.2546291,44
1766015883.2546408,45
1766015883.254654,45
1766015883.254667,46
1766015883.2546802,47
1766015883.254693,49
1766015883.254706,46
1766015883.254721,46
1766015883.254734,47
1766015883.254747,45
1766015883.2547588,48
1766015883.254772,46
1766015883.254785,45
1766015883.2547982,45
1766015883.25481,45
1766015883.254823,45
1766015883.254836,46
1766015883.254849,44
1766015883.254862,45
1766015883.254875,44
1766015883.2548869,47
1766015883.254901,48
1766015883.254915,46
1766015883.2549279,45
1766015883.254941,48
1766015883.254954,46
1766015883.254967,45
1766015883.2549849,46
1766015883.254998,47
1766015883.255011,43
1766015883.2550242,46
1766015883.2550368,44
1766015883.25505,44
1766015883.255063,47
1766015883.2550762,42
1766015883.255088,47
1766015883.255101,42
1766015883.255114,43
1766015883.255127,44
1766015883.255146,39
1766015883.2551591,39
1766015883.255171,42
1766015883.255184,43
1766015883.2551968,46
1766015883.255209,44
1766015883.255222,42
1766015883.255235,41
1766015883.2552478,44
1766015883.25526,45
1766015883.2552729,43
1766015883.255286,42
1766015883.2552981,46
1766015883.255311,45
1766015883.255324,48
1766015883.255336,44
1766015883.255349,46
1766015883.255362,48
1766015883.2553742,50
1766015883.2553868,49
1766015883.255405,47
1766015883.2554188,48
1766015883.255432,46
1766015883.255445,48
1766015883.255459,45
1766015883.2554722,43
1766015883.2554848,42
1766015883.255497,47
1766015883.25551,46
1766015883.255523,44
1766015883.2555351,47
1766015883.255548,50
1766015883.2555609,50
1766015883.255574,49
1766015883.2555861,44
1766015883.255599,49
1766015883.255612,48
1766015883.255625,49
1766015883.2556381,49
1766015883.25565,48
1766015883.2556648,47
1766015883.25568,48
1766015883.255693,49
1766015883.255705,47
1766015883.255718,46
1766015883.255738,48
1766015883.2557518,50
1766015883.255767,50
1766015883.2557812,57
1766015883.2557929,54
1766015883.255806,55
1766015883.255819,56
1766015883.255831,57
1766015883.255849,55
1766015883.255863,58
1766015883.255876,56
1766015883.255889,58
1766015883.255902,57
1766015883.255914,54
1766015883.255927,57
1766015883.2559402,56
1766015883.2559528,53
1766015883.255966,58
1766015883.2559779,53
1766015883.2559922,56
1766015883.256005,54
1766015883.256017,57
1766015883.2560298,55
1766015883.256043,53
1766015883.256055,53
1766015883.256068,52
1766015883.2560809,50
1766015883.256093,51
1766015883.256106,53
1766015883.256119,54
1766015883.2561321,54
1766015883.2561438,51
1766015883.256157,54
1766015883.25617,55
1766015883.256182,56
1766015883.256195,51
1766015883.256208,53
1766015883.2562208,54
1766015883.256234,52
1766015883.256246,55
1766015883.256261,52
1766015883.256282,54
1766015883.256298,48
1766015883.256311,54
1766015883.256323,53
1766015883.256336,55
1766015883.2563488,51
1766015883.256362,50
1766015883.256375,52
1766015883.256402,51
1766015883.256417,53
1766015883.256432,53
1766015883.256444,48
1766015883.2564569,52
1766015883.25647,48
1766015883.256484,52
1766015883.256497,48
1766015883.25651,50
1766015883.256523,50
1766015883.256536,50
1766015883.2565491,49
1766015883.2565608,50
1766015883.256574,50
1766015883.256587,51
1766015883.2566001,52
1766015883.256612,52
1766015883.256625,51
1766015883.256638,51
1766015883.256651,50
1766015883.256664,53
1766015883.2566762,54
1766015883.2566888,51
1766015883.256702,51
1766015883.256719,49
1766015883.256738,52
1766015883.256752,50
1766015883.256767,52
1766015883.256784,51
1766015883.256799,49
1766015883.256813,48
1766015883.2568262,51
1766015883.2568388,49
1766015883.256852,46
1766015883.256864,48
1766015883.256877,47
1766015883.25689,47
1766015883.256903,46
1766015883.2569149,48
1766015883.256928,44
1766015883.256941,46
1766015883.2569542,46
1766015883.2569659,44
1766015883.256979,44
1766015883.256992,44
1766015883.257004,44
1766015883.2570188,45
1766015883.257032,43
1766015883.257045,44
1766015883.257057,40
1766015883.25707,42
1766015883.257083,42
1766015883.2570949,44
1766015883.257108,40
1766015883.257121,39
1766015883.2571342,41
1766015883.257149,40
1766015883.257164,41
1766015883.2571762,40
1766015883.257189,40
1766015883.257202,42
1766015883.257215,40
1766015883.257227,38
1766015883.25724,38
1766015883.2572532,39
1766015883.2572658,41
1766015883.257279,40
1766015883.257291,39
1766015883.257304,38
1766015883.257317,36
1766015883.25733,35
1766015883.257343,40
1766015883.257356,39
1766015883.257369,39
1766015883.2573812,38
1766015883.2573938,36
1766015883.257407,38
1766015883.257419,37
1766015883.257432,39
1766015883.257445,34
1766015883.257458,37
1766015883.257471,37
1766015883.257483,36
1766015883.257496,36
1766015883.2575092,36
1766015883.257521,35
1766015883.257534,37
1766015883.257547,34
1766015883.25756,33
1766015883.257576,35
1766015883.257591,38
1766015883.2576041,36
1766015883.257617,35
1766015883.2576299,34
1766015883.257642,36
1766015883.2576551,34
1766015883.257668,33
1766015883.257681,32
1766015883.2576928,34
1766015883.257706,36
1766015883.257719,34
1766015883.2577322,32
1766015883.2577438,33
1766015883.257759,33
1766015883.257772,35
1766015883.257785,31
1766015883.257798,30
1766015883.2578108,33
1766015883.257823,31
1766015883.257836,32
1766015883.257849,33
1766015883.2578611,32
1766015883.257874,32
1766015883.257887,32
1766015883.257899,33
1766015883.2579122,32
1766015883.257926,30
1766015883.25794,29
1766015883.257953,31
1766015883.257965,30
1766015883.2579782,32
1766015883.257993,31
1766015883.258007,30
1766015883.2580202,30
1766015883.2580328,28
1766015883.258045,33
1766015883.258058,32
1766015883.258071,31
1766015883.258084,32
1766015883.2580962,28
1766015883.2581089,31
1766015883.258122,29
1766015883.258135,33
1766015883.2581482,29
1766015883.2581608,28
1766015883.258173,29
1766015883.258186,31
1766015883.258199,31
1766015883.258213,29
1766015883.258226,28
1766015883.258239,31
1766015883.2582521,29
1766015883.258265,33
1766015883.2582772,29
1766015883.2582898,30
1766015883.258303,31
1766015883.258316,31
1766015883.258328,28
1766015883.258341,28
1766015883.258354,26
1766015883.258367,29
1766015883.25838,27
1766015883.258393,28
1766015883.2584052,26
1766015883.258422,29
1766015883.258435,26
1766015883.258448,25
1766015883.258461,28
1766015883.2584739,28
1766015883.258486,28
1766015883.2584991,30
1766015883.2585118,27
1766015883.258525,31
1766015883.258538,30
1766015883.2585511,30
1766015883.258563,27
1766015883.258576,26
1766015883.258589,27
1766015883.258602,27
1766015883.258614,28
1766015883.2586272,27
1766015883.2586398,26
1766015883.258652,26
1766015883.2586648,28
1766015883.258678,26
1766015883.258691,25
1766015883.258703,27
1766015883.2587159,29
1766015883.258729,24
1766015883.258741,26
1766015883.258755,26
1766015883.2587688,24
1766015883.258782,25
1766015883.258795,26
1766015883.258807,28
1766015883.25882,24
1766015883.2588348,28
1766015883.258849,26
1766015883.2588632,30
1766015883.258877,27
1766015883.25889,26
1766015883.258903,25
1766015883.2589178,25
1766015883.258931,24
1766015883.258944,24
1766015883.258956,27
1766015883.258969,25
1766015883.258982,27
1766015883.258995,26
1766015883.259008,25
1766015883.259021,27
1766015883.2590332,26
1766015883.2590542,25
1766015883.25907,27
1766015883.259083,24
1766015883.2590961,23
1766015883.259109,27
1766015883.259121,24
1766015883.259134,25
1766015883.259147,25
1766015883.25916,27
1766015883.2591722,28
1766015883.2591848,28
1766015883.259198,23
1766015883.259211,26
1766015883.259223,25
1766015883.259236,26
1766015883.259249,26
1766015883.259261,26
1766015883.259279,24
1766015883.259302,26
1766015883.259317,26
1766015883.25933,23
1766015883.2593431,26
1766015883.2593548,27
1766015883.259368,22
1766015883.259381,26
1766015883.259393,25
1766015883.259407,24
1766015883.259419,27
1766015883.2594318,26
1766015883.259445,26
1766015883.259458,25
1766015883.2594712,26
1766015883.2594829,25
1766015883.259496,25
1766015883.259509,25
1766015883.259521,25
1766015883.2595341,25
1766015883.259546,25
1766015883.259563,23
1766015883.259576,24
1766015883.2595892,28
1766015883.2596018,27
1766015883.259615,23
1766015883.259628,24
1766015883.2596412,27
1766015883.259653,24
1766015883.259666,26
1766015883.259679,25
1766015883.259691,24
1766015883.259706,22
1766015883.259722,24
1766015883.259735,25
1766015883.259748,24
1766015883.259765,27
1766015883.2597811,24
1766015883.259794,25
1766015883.2598069,25
1766015883.25982,25
1766015883.2598321,28
1766015883.259845,24
1766015883.259858,25
1766015883.25987,25
1766015883.259883,24
1766015883.259895,28
1766015883.2599082,26
1766015883.259922,24
1766015883.259939,26
1766015883.259952,25
1766015883.259973,23
1766015883.259988,29
1766015883.2600021,27
1766015883.260015,25
1766015883.260027,24
1766015883.26004,25
1766015883.260053,23
1766015883.2600682,23
1766015883.260083,23
1766015883.260098,26
1766015883.2601118,22
1766015883.260127,24
1766015883.26014,23
1766015883.260152,24
1766015883.260169,24
1766015883.260182,21
1766015883.260195,22
1766015883.2602072,24
1766015883.2602198,25
1766015883.260233,23
1766015883.260246,23
1766015883.26026,26
1766015883.260274,26
1766015883.2602859,20
1766015883.260299,25
1766015883.260312,24
1766015883.2603252,22
1766015883.2603378,22
1766015883.260351,24
1766015883.260364,26
1766015883.2603772,23
1766015883.2603898,24
1766015883.260402,24
1766015883.260415,25
1766015883.260428,27
1766015883.2604449,27
1766015883.260458,24
1766015883.260471,25
1766015883.260483,23
1766015883.260496,26
1766015883.260509,26
1766015883.260521,21
1766015883.260534,26
1766015883.2605472,23
1766015883.260559,27
1766015883.260572,24
1766015883.260587,24
1766015883.260603,27
1766015883.2606158,25
1766015883.260629,21
1766015883.260642,21
1766015883.260654,24
1766015883.2606668,25
1766015883.260679,21
1766015883.260692,26
1766015883.260705,22
1766015883.2607172,22
1766015883.26073,23
1766015883.260743,22
1766015883.260755,26
1766015883.2607732,22
1766015883.2607858,26
1766015883.260798,27
1766015883.260811,25
1766015883.260824,26
1766015883.2608361,24
1766015883.260849,26
1766015883.260861,25
1766015883.260874,27
1766015883.2608871,29
1766015883.260899,28
1766015883.2609122,26
1766015883.2609239,24
1766015883.260937,24
1766015883.26095,24
1766015883.260962,25
1766015883.2609751,22
1766015883.260988,27
1766015883.261,26
1766015883.261014,25
1766015883.261027,27
1766015883.2610402,25
1766015883.261052,26
1766015883.261065,25
1766015883.2610781,27
1766015883.26109,27
1766015883.2611032,23
1766015883.2611148,22
1766015883.261128,28
1766015883.2611399,24
1766015883.261153,26
1766015883.261166,27
1766015883.261178,25
1766015883.261191,27
1766015883.261203,26
1766015883.261216,26
1766015883.261228,25
1766015883.2612412,27
1766015883.2612538,26
1766015883.261266,28
1766015883.2612789,28
1766015883.261291,28
1766015883.2613041,28
1766015883.261317,24
1766015883.26133,28
1766015883.261343,24
1766015883.261355,23
1766015883.2613702,24
1766015883.261385,24
1766015883.261399,26
1766015883.2614112,24
1766015883.261426,25
1766015883.261442,25
1766015883.261455,23
1766015883.261468,26
1766015883.261481,27
1766015883.261494,28
1766015883.261506,26
1766015883.2615192,28
1766015883.2615318,26
1766015883.261545,24
1766015883.261558,25
1766015883.26157,24
1766015883.261583,25
1766015883.2615979,26
1766015883.261611,28
1766015883.261624,25
1766015883.2616372,25
1766015883.261649,25
1766015883.2616608,25
1766015883.261674,26
1766015883.261687,25
1766015883.261699,27
1766015883.2617102,29
1766015883.2617211,27
1766015883.2617338,28
1766015883.261744,27
1766015883.261755,26
1766015883.261773,25
1766015883.2617862,24
1766015883.2617972,25
1766015883.2618098,26
1766015883.261823,28
1766015883.261835,25
1766015883.26185,25
1766015883.261863,25
1766015883.261874,23
1766015883.261884,26
1766015883.261895,25
1766015883.261906,25
1766015883.2619169,28
1766015883.2619278,23
1766015883.261939,23
1766015883.26195,27
1766015883.261961,23
1766015883.261972,27
1766015883.261983,24
1766015883.261994,24
1766015883.262005,25
1766015883.262017,24
1766015883.262028,24
1766015883.262039,25
1766015883.2620502,25
1766015883.262061,26
1766015883.262072,26
1766015883.262083,26
1766015883.262094,21
1766015883.262105,24
1766015883.2621162,24
1766015883.2621272,22
1766015883.2621381,23
1766015883.262149,22
1766015883.2621598,21
1766015883.2621708,24
1766015883.262182,23
1766015883.262193,24
1766015883.2622058,24
1766015883.2622201,25
1766015883.262232,23
1766015883.262243,23
1766015883.262254,21
1766015883.2622652,22
1766015883.2622762,25
1766015883.2622871,25
1766015883.262298,23
1766015883.262309,23
1766015883.26232,26
1766015883.2623308,26
1766015883.262342,25
1766015883.262353,20
1766015883.262364,25
1766015883.2623758,23
1766015883.262387,24
1766015883.262398,24
1766015883.262409,24
1766015883.26242,22
1766015883.262431,23
1766015883.2624419,20
1766015883.262453,25
1766015883.262464,26
1766015883.262476,24
1766015883.262487,23
1766015883.2624981,23
1766015883.262509,26
1766015883.26252,23
1766015883.262531,24
1766015883.262542,25
1766015883.262553,23
1766015883.2625642,24
1766015883.262579,23
1766015883.262592,23
1766015883.262603,25
1766015883.262614,23
1766015883.262625,26
1766015883.262636,23
1766015883.2626472,27
1766015883.262658,26
1766015883.262669,21
1766015883.26268,24
1766015883.262691,22
1766015883.262702,23
1766015883.2627158,22
1766015883.262728,26
1766015883.262739,23
1766015883.262756,22
1766015883.262768,21
1766015883.262779,19
1766015883.262791,20
1766015883.262801,22
1766015883.2628129,26
1766015883.2628238,23
1766015883.262835,22
1766015883.262846,22
1766015883.262857,24
1766015883.262868,24
1766015883.26288,20
1766015883.262892,23
1766015883.262903,23
1766015883.262914,20
1766015883.2629251,23
1766015883.262936,24
1766015883.2629492,24
1766015883.262963,26
1766015883.262975,22
1766015883.262986,23
1766015883.262997,23
1766015883.263008,23
1766015883.263019,24
1766015883.26303,24
1766015883.263041,23
1766015883.263052,20
1766015883.263063,21
1766015883.2630742,20
1766015883.2630851,21
1766015883.263096,21
1766015883.263107,26
1766015883.263118,24
1766015883.263129,23
1766015883.2631402,22
1766015883.2631512,24
1766015883.2631621,24
1766015883.263173,23
1766015883.2631838,20
1766015883.2631948,21
1766015883.263206,21
1766015883.263217,21
1766015883.263228,23
1766015883.263239,19
1766015883.2632499,25
1766015883.2632608,22
1766015883.263272,21
1766015883.263283,22
1766015883.263294,19
1766015883.263305,26
1766015883.263325,24
1766015883.263336,22
1766015883.263347,21
1766015883.2633579,20
1766015883.2633688,21
1766015883.26338,22
1766015883.263392,21
1766015883.263403,22
1766015883.263415,26
1766015883.2634292,24
1766015883.2634408,24
1766015883.2634518,22
1766015883.263464,21
1766015883.263475,23
1766015883.263486,24
1766015883.2634969,23
1766015883.263508,22
1766015883.263519,21
1766015883.26353,21
1766015883.263541,25
1766015883.2635531,22
1766015883.263564,22
1766015883.263582,23
1766015883.263593,21
1766015883.263604,22
1766015883.263615,20
1766015883.263626,20
1766015883.263637,21
1766015883.263648,21
1766015883.263659,20
1766015883.26367,24
1766015883.263681,24
1766015883.263694,24
1766015883.2637079,21
1766015883.26372,22
1766015883.263731,21
1766015883.263742,23
1766015883.263753,23
1766015883.263764,24
1766015883.2637749,21
1766015883.263788,24
1766015883.2638001,23
1766015883.263811,18
1766015883.263825,19
1766015883.263836,21
1766015883.2638469,23
1766015883.2638578,23
1766015883.2638679,23
1766015883.2638788,25
1766015883.26389,24
1766015883.263901,25
1766015883.263912,22
1766015883.263923,21
1766015883.263934,22
1766015883.2639449,25
1766015883.263958,24
1766015883.263969,22
1766015883.2639802,23
1766015883.263991,22
1766015883.264002,23
1766015883.264013,19
1766015883.264024,26
1766015883.264035,24
1766015883.2640462,23
1766015883.2640572,24
1766015883.264072,23
1766015883.264085,23
1766015883.264096,22
1766015883.264107,22
1766015883.264118,24
1766015883.264129,25
1766015883.2641401,23
1766015883.264151,22
1766015883.264162,20
1766015883.264173,24
1766015883.264183,23
1766015883.264195,24
1766015883.264205,23
1766015883.264216,20
1766015883.2642272,24
1766015883.264238,24
1766015883.264249,24
1766015883.264261,23
1766015883.264272,23
1766015883.264283,21
1766015883.264294,22
1766015883.2643049,22
1766015883.2643158,25
1766015883.2643268,24
1766015883.264338,23
1766015883.264349,24
1766015883.26436,23
1766015883.264371,25
1766015883.264381,22
1766015883.264392,21
1766015883.2644029,26
1766015883.2644138,26
1766015883.264427,23
1766015883.264441,26
1766015883.2644532,24
1766015883.264464,21
1766015883.2644749,22
1766015883.2644858,23
1766015883.2644968,24
1766015883.2645068,22
1766015883.2645178,20
1766015883.26453,19
1766015883.26454,23
1766015883.2645519,22
1766015883.264562,24
1766015883.2645729,22
1766015883.2645838,24
1766015883.264596,23
1766015883.26461,22
1766015883.264624,23
1766015883.2646358,20
1766015883.264647,22
1766015883.264658,27
1766015883.26467,23
1766015883.264683,22
1766015883.264694,19
1766015883.264705,20
1766015883.264727,22
1766015883.264739,19
1766015883.26475,22
1766015883.264766,23
1766015883.264777,22
1766015883.264789,20
1766015883.2648,22
1766015883.264811,20
1766015883.2648242,19
1766015883.2648351,21
1766015883.264846,18
1766015883.264857,23
1766015883.264868,23
1766015883.2648802,20
1766015883.264891,24
1766015883.2649019,23
1766015883.2649128,20
1766015883.2649238,23
1766015883.264935,21
1766015883.264946,22
1766015883.264957,21
1766015883.26497,21
1766015883.264981,23
1766015883.264993,21
1766015883.265004,23
1766015883.2650151,22
1766015883.265026,21
1766015883.265037,22
1766015883.265048,18
1766015883.265059,23
1766015883.26507,22
1766015883.2650812,22
1766015883.2650921,23
1766015883.265103,20
1766015883.265114,20
1766015883.265125,22
1766015883.2651362,19
1766015883.265147,23
1766015883.265158,21
1766015883.265169,23
1766015883.265182,21
1766015883.265196,23
1766015883.265208,22
1766015883.265219,21
1766015883.2652302,23
1766015883.265242,21
1766015883.265253,23
1766015883.265264,19
1766015883.2652748,21
1766015883.265286,19
1766015883.265297,19
1766015883.265308,23
1766015883.2653189,21
1766015883.265336,22
1766015883.2653499,22
1766015883.265362,22
1766015883.265373,20
1766015883.265384,23
1766015883.265395,21
1766015883.265406,19
1766015883.2654169,21
1766015883.265428,23
1766015883.265439,22
1766015883.26545,24
1766015883.265461,24
1766015883.265472,21
1766015883.265484,22
1766015883.265495,24
1766015883.265506,22
1766015883.265517,21
1766015883.265528,25
1766015883.2655392,25
1766015883.2655501,24
1766015883.265564,25
1766015883.265574,21
1766015883.2655842,25
1766015883.265594,26
1766015883.265604,23
1766015883.265614,24
1766015883.265624,26
1766015883.265634,25
1766015883.2656431,24
1766015883.265653,22
1766015883.265663,26
1766015883.265673,21
1766015883.265683,21
1766015883.265692,23
1766015883.2657018,20
1766015883.265712,27
1766015883.265722,24
1766015883.265737,24
1766015883.265748,25
1766015883.265758,25
1766015883.265768,23
1766015883.2657778,23
1766015883.2657878,23
1766015883.2657988,23
1766015883.265811,26
1766015883.265821,26
1766015883.265831,26
1766015883.265841,23
1766015883.2658508,21
1766015883.265862,23
1766015883.2658718,24
1766015883.265882,22
1766015883.2658932,26
1766015883.2659059,24
1766015883.2659168,26
1766015883.2659268,22
1766015883.2659369,23
1766015883.2659461,21
1766015883.2659562,26
1766015883.2659662,25
1766015883.265976,25
1766015883.265986,22
1766015883.265995,23
1766015883.266005,25
1766015883.266015,24
1766015883.266025,24
1766015883.2660348,25
1766015883.2660449,25
1766015883.266054,24
1766015883.266064,24
1766015883.2660742,23
1766015883.2660842,25
1766015883.266094,25
1766015883.266104,27
1766015883.266114,21
1766015883.266123,28
1766015883.266133,24
1766015883.266143,26
1766015883.2661529,24
1766015883.266162,23
1766015883.266172,24
1766015883.266182,26
1766015883.266192,23
1766015883.2662022,22
1766015883.266212,23
1766015883.266222,24
1766015883.266232,27
1766015883.266242,23
1766015883.266252,27
1766015883.266262,25
1766015883.266272,25
1766015883.266282,26
1766015883.266291,26
1766015883.266301,26
1766015883.266311,25
1766015883.266321,24
1766015883.26633,25
1766015883.26634,27
1766015883.26635,26
1766015883.26636,26
1766015883.266369,26
1766015883.266379,21
1766015883.266389,25
1766015883.2664,24
1766015883.2664099,25
1766015883.26642,26
1766015883.26643,24
1766015883.26644,24
1766015883.26645,23
1766015883.26646,23
1766015883.26647,24
1766015883.2664802,24
1766015883.2664902,25
1766015883.2665,23
1766015883.26651,24
1766015883.26652,26
1766015883.26653,22
1766015883.26654,25
1766015883.26655,23
1766015883.26656,25
1766015883.26657,26
1766015883.2665799,24
1766015883.2665899,26
1766015883.2666,24
1766015883.26661,21
1766015883.26662,25
1766015883.26663,24
1766015883.26664,25
1766015883.266649,25
1766015883.266659,23
1766015883.266669,24
1766015883.266679,21
1766015883.266689,23
1766015883.266699,27
1766015883.266708,24
1766015883.266718,27
1766015883.266728,25
1766015883.266738,26
1766015883.266748,24
1766015883.266758,24
1766015883.266767,24
1766015883.266782,25
1766015883.2667918,25
1766015883.266804,22
1766015883.266814,27
1766015883.2668228,24
1766015883.2668328,26
1766015883.2668428,23
1766015883.266853,27
1766015883.266863,23
1766015883.2668731,23
1766015883.266882,25
1766015883.266892,23
1766015883.266902,25
1766015883.266912,23
1766015883.266922,24
1766015883.266932,24
1766015883.2669408,24
1766015883.2669508,25
1766015883.2669609,26
1766015883.2669709,25
1766015883.2669811,25
1766015883.2669911,24
1766015883.2670012,27
1766015883.2670112,23
1766015883.267021,23
1766015883.26703,24
1766015883.26704,24
1766015883.26705,23
1766015883.26706,24
1766015883.26707,23
1766015883.2670798,24
1766015883.2670898,24
1766015883.267099,22
1766015883.2671092,25
1766015883.2671192,24
1766015883.2671292,25
1766015883.267139,25
1766015883.267149,27
1766015883.267159,22
1766015883.267169,23
1766015883.267179,29
1766015883.267189,23
1766015883.267199,22
1766015883.267209,21
1766015883.2672188,24
1766015883.267228,26
1766015883.267238,27
1766015883.2672482,23
1766015883.2672582,25
1766015883.2672682,23
1766015883.2672799,27
1766015883.26729,24
1766015883.2673001,23
1766015883.2673101,23
1766015883.2673202,25
1766015883.26733,25
1766015883.26734,26
1766015883.26735,28
1766015883.267405,21
1766015883.2674189,25
1766015883.267429,24
1766015883.26744,23
1766015883.26745,26
1766015883.26746,24
1766015883.2674701,25
1766015883.2674801,24
1766015883.2674901,24
1766015883.2675,25
1766015883.267515,24
1766015883.267568,24
1766015883.2675798,25
1766015883.2675898,22
1766015883.2675998,26
1766015883.26761,23
1766015883.26762,25
1766015883.2676291,23
1766015883.267639,21
1766015883.267649,24
1766015883.267659,22
1766015883.267669,25
1766015883.2676811,23
1766015883.267693,23
1766015883.267704,23
1766015883.267791,24
1766015883.267803,25
1766015883.267914,23
1766015883.26793,24
1766015883.26794,21
1766015883.26795,26
1766015883.26796,22
1766015883.26797,22
1766015883.267979,24
1766015883.267989,25
1766015883.268047,23
1766015883.2680671,21
1766015883.268081,19
1766015883.268094,25
1766015883.268107,26
1766015883.268119,23
1766015883.2681322,23
1766015883.2681448,21
1766015883.268157,22
1766015883.2681699,24
1766015883.268183,23
1766015883.268196,22
1766015883.268208,22
1766015883.268221,22
1766015883.268234,24
1766015883.2682471,23
1766015883.26826,22
1766015883.2682729,26
1766015883.268286,23
1766015883.268298,24
1766015883.268311,22
1766015883.2683241,25
1766015883.268337,25
1766015883.26835,25
1766015883.268363,26
1766015883.268376,28
1766015883.2683892,24
1766015883.2684019,23
1766015883.268415,24
1766015883.268427,24
1766015883.26844,24
1766015883.2684531,24
1766015883.2684648,25
1766015883.268478,23
1766015883.268491,22
1766015883.2685041,24
1766015883.268517,26
1766015883.26853,25
1766015883.268543,22
1766015883.268555,27
1766015883.268568,25
1766015883.2685812,26
1766015883.268594,23
1766015883.268606,27
1766015883.268619,26
1766015883.268845,25
1766015883.269894,23
1766015883.270842,22
1766015883.271907,23
1766015883.272897,25
1766015883.273886,24
1766015883.274862,26
1766015883.275889,24
1766015883.276878,25
1766015883.277877,25
1766015883.2788448,25
1766015883.279901,24
1766015883.280907,21
1766015883.2818618,24
1766015883.282872,23
1766015883.283904,26
1766015883.284875,23
1766015883.285867,23
1766015883.286889,23
1766015883.28789,24
1766015883.288921,26
1766015883.289912,25
1766015883.290895,23
1766015883.291896,22
1766015883.2929091,23
1766015883.293916,26
1766015883.2949061,22
1766015883.2959108,24
1766015883.2969458,26
1766015883.2979531,25
1766015883.298934,23
1766015883.299943,27
1766015883.3009238,25
1766015883.3019252,26
1766015883.302953,26
1766015883.3039548,23
1766015883.304936,24
1766015883.30593,24
1766015883.3070662,28
1766015883.307956,25
1766015883.309067,30
1766015883.3099678,27
1766015883.311063,27
1766015883.312033,24
1766015883.3130372,25
1766015883.314037,23
1766015883.3150542,27
1766015883.316045,27
1766015883.317054,25
1766015883.318049,25
1766015883.319041,30
1766015883.320034,26
1766015883.321033,25
1766015883.322071,24
1766015883.323076,26
1766015883.32407,22
1766015883.325067,27
1766015883.3260741,23
1766015883.327073,25
1766015883.32807,25
1766015883.329042,21
1766015883.330079,25
1766015883.331064,26
1766015883.3320892,23
1766015883.3330681,25
1766015883.334076,25
1766015883.3350358,26
1766015883.3360682,23
1766015883.337046,23
1766015883.338044,26
1766015883.339079,24
1766015883.34009,23
1766015883.3410718,25
1766015883.3421068,24
1766015883.34307,23
1766015883.344068,24
1766015883.345085,27
1766015883.346098,23
1766015883.347091,24
1766015883.3481102,24
1766015883.3491,27
1766015883.350096,22
1766015883.351147,22
1766015883.352115,22
1766015883.353109,28
1766015883.354112,22
1766015883.3551202,24
1766015883.356116,25
1766015883.357122,23
1766015883.358138,24
1766015883.359141,26
1766015883.360126,23
1766015883.361151,24
1766015883.3621519,27
1766015883.3631501,26
1766015883.364147,28
1766015883.365136,26
1766015883.366154,28
1766015883.36716,24
1766015883.368156,26
1766015883.3691578,23
1766015883.370153,24
1766015883.371157,25
1766015883.372158,24
1766015883.373183,24
1766015883.374184,21
1766015883.37516,24
1766015883.376183,26
1766015883.377174,26
1766015883.378175,24
1766015883.37918,23
1766015883.380192,23
1766015883.381189,24
1766015883.3821912,26
1766015883.3831942,22
1766015883.384216,21
1766015883.385231,23
1766015883.386206,24
1766015883.387201,28
1766015883.388225,23
1766015883.389229,23
1766015883.3902059,27
1766015883.391217,23
1766015883.392235,23
1766015883.3932328,24
1766015883.394228,25
1766015883.395241,26
1766015883.396244,24
1766015883.397248,22
1766015883.398238,21
1766015883.399248,25
1766015883.400241,26
1766015883.401275,27
1766015883.402263,24
1766015883.403265,23
1766015883.4042702,22
1766015883.4052749,22
1766015883.406251,25
1766015883.4072618,22
1766015883.4082649,22
1766015883.409282,25
1766015883.4102569,24
1766015883.411263,26
1766015883.4122822,22
1766015883.41328,24
1766015883.414272,23
1766015883.415285,26
1766015883.416301,26
1766015883.417293,23
1766015883.418305,24
1766015883.419329,23
1766015883.420311,26
1766015883.4213078,23
1766015883.4223192,23
1766015883.4232872,23
1766015883.424303,23
1766015883.4253151,21
1766015883.426309,24
1766015883.4273129,24
1766015883.428331,22
1766015883.429334,24
1766015883.430322,23
1766015883.431344,24
1766015883.432353,23
1766015883.4333482,22
1766015883.43435,23
1766015883.435325,25
1766015883.436368,24
1766015883.437363,25
1766015883.4383512,23
1766015883.4393432,22
1766015883.440369,23
1766015883.441352,23
1766015883.442348,23
1766015883.4433532,24
1766015883.444399,23
1766015883.445378,21
1766015883.446383,27
1766015883.447391,25
1766015883.44838,24
1766015883.449387,20
1766015883.450368,26
1766015883.451396,23
1766015883.4524019,25
1766015883.453404,23
1766015883.454397,22
1766015883.455404,23
1766015883.4564102,27
1766015883.4574022,24
1766015883.4584131,23
1766015883.4594219,23
1766015883.4604108,26
1766015883.461411,23
1766015883.462434,22
1766015883.463439,23
1766015883.4644322,26
1766015883.4654348,26
1766015883.4664361,23
1766015883.467444,26
1766015883.468446,23
1766015883.4694731,22
1766015883.4704409,25
1766015883.471461,28
1766015883.472461,30
1766015883.4734662,28
1766015883.4744582,26
1766015883.475463,28
1766015883.476463,30
1766015883.4774752,26
1766015883.478487,29
1766015883.479476,28
1766015883.480478,29
1766015883.4814909,28
1766015883.482472,29
1766015883.4834838,29
1766015883.484514,31
1766015883.485486,33
1766015883.486488,31
1766015883.4875169,33
1766015883.488519,29
1766015883.489505,32
1766015883.4905112,35
1766015883.49151,28
1766015883.492497,30
1766015883.493521,33
1766015883.4945421,29
1766015883.495521,32
1766015883.4965272,33
1766015883.497516,34
1766015883.498519,33
1766015883.4995258,32
1766015883.500531,33
1766015883.501536,32
1766015883.5025542,31
1766015883.5035589,31
1766015883.504537,33
1766015883.505565,34
1766015883.5065548,36
1766015883.507565,36
1766015883.508546,35
1766015883.509593,35
1766015883.510567,33
1766015883.511564,34
1766015883.512562,39
1766015883.513581,39
1766015883.514581,35
1766015883.5155818,38
1766015883.516591,37
1766015883.5175948,40
1766015883.518625,34
1766015883.519634,37
1766015883.5206132,37
1766015883.521596,37
1766015883.52261,33
1766015883.5235982,37
1766015883.5245981,34
1766015883.525603,37
1766015883.5266292,38
1766015883.52762,36
1766015883.528615,37
1766015883.529621,36
1766015883.5306098,37
1766015883.5316281,35
1766015883.532628,36
1766015883.533613,37
1766015883.534622,36
1766015883.535638,37
1766015883.536635,35
1766015883.537632,35
1766015883.538632,36
1766015883.539658,37
1766015883.5406358,39
1766015883.541646,36
1766015883.542688,37
1766015883.5436642,39
1766015883.544663,37
1766015883.5456698,41
1766015883.5466611,41
1766015883.547662,39
1766015883.548665,37
1766015883.549686,39
1766015883.550686,42
1766015883.551734,40
1766015883.552685,42
1766015883.553696,38
1766015883.554688,39
1766015883.555691,39
1766015883.5566971,43
1766015883.557694,36
1766015883.558711,41
1766015883.559705,41
1766015883.560707,39
1766015883.5616992,38
1766015883.562731,40
1766015883.563734,42
1766015883.564729,41
1766015883.565721,43
1766015883.5667179,42
1766015883.567734,42
1766015883.5687401,39
1766015883.5697548,42
1766015883.5707462,40
1766015883.571742,43
1766015883.572735,41
1766015883.573726,44
1766015883.5747478,46
1766015883.575776,42
1766015883.576757,43
1766015883.577785,44
1766015883.5787709,43
1766015883.5797691,42
1766015883.580768,41
1766015883.581769,45
1766015883.582774,39
1766015883.583763,42
1766015883.58478,40
1766015883.585779,41
1766015883.5867898,43
1766015883.587795,43
1766015883.588786,43
1766015883.589789,43
1766015883.5907981,43
1766015883.5918028,43
1766015883.592802,44
1766015883.5938141,42
1766015883.5947971,43
1766015883.595804,44
1766015883.596808,41
1766015883.597811,40
1766015883.598826,41
1766015883.599822,44
1766015883.600843,44
1766015883.601839,42
1766015883.602823,43
1766015883.6038349,41
1766015883.6048372,41
1766015883.605828,39
1766015883.606833,43
1766015883.607826,46
1766015883.608831,42
1766015883.609835,45
1766015883.610852,45
1766015883.611843,46
1766015883.61286,47
1766015883.613855,45
1766015883.614856,45
1766015883.615864,48
1766015883.6168718,46
1766015883.6178901,44
1766015883.6188831,45
1766015883.6198761,49
1766015883.620885,43
1766015883.6218948,49
1766015883.6228878,48
1766015883.623892,48
1766015883.624894,49
1766015883.625904,44
1766015883.6268952,46
1766015883.627907,46
1766015883.628895,45
1766015883.6299179,44
1766015883.6308968,45
1766015883.631905,44
1766015883.632909,44
1766015883.633909,45
1766015883.634921,48
1766015883.635919,48
1766015883.6369221,49
1766015883.637929,44
1766015883.638918,50
1766015883.639931,47
1766015883.640934,49
1766015883.641932,48
1766015883.6429381,49
1766015883.6439302,49
1766015883.64495,46
1766015883.645944,46
1766015883.646963,47
1766015883.647946,50
1766015883.648942,51
1766015883.649945,47
1766015883.650974,48
1766015883.651969,51
1766015883.652967,53
1766015883.653965,47
1766015883.654971,50
1766015883.6559622,51
1766015883.656959,48
1766015883.657967,49
1766015883.658991,50
1766015883.6600661,48
1766015883.661058,46
1766015883.6619678,47
1766015883.663069,48
1766015883.664068,47
1766015883.6650681,48
1766015883.6660612,46
1766015883.667061,46
1766015883.668067,48
1766015883.669067,45
1766015883.670065,47
1766015883.6710641,46
1766015883.672071,47
1766015883.673074,49
1766015883.6740649,48
1766015883.675062,46
1766015883.676069,49
1766015883.6770701,47
1766015883.678072,47
1766015883.679064,50
1766015883.6800609,50
1766015883.681074,52
1766015883.682059,53
1766015883.68306,54
1766015883.684057,54
1766015883.685071,54
1766015883.686065,57
1766015883.687071,55
1766015883.6880698,55
1766015883.6890738,55
1766015883.6900659,56
1766015883.6910698,56
1766015883.692061,60
1766015883.693076,64
1766015883.694083,69
1766015883.695071,73
1766015883.696091,73
1766015883.6970859,72
1766015883.698105,75
1766015883.6990972,74
1766015883.700095,75
1766015883.701099,76
1766015883.702096,75
1766015883.7031062,75
1766015883.704076,76
1766015883.705099,72
1766015883.7060962,73
1766015883.707102,71
1766015883.708101,70
1766015883.709101,73
1766015883.7101262,71
1766015883.7111082,72
1766015883.71212,76
1766015883.713112,77
1766015883.714116,76
1766015883.715122,75
1766015883.716115,76
1766015883.7171211,77
1766015883.718121,75
1766015883.719132,75
1766015883.720125,73
1766015883.721144,74
1766015883.722143,73
1766015883.723159,75
1766015883.7241359,75
1766015883.725132,75
1766015883.726151,71
1766015883.7271612,71
1766015883.7281501,70
1766015883.729158,69
1766015883.7301571,71
1766015883.731186,71
1766015883.732161,66
1766015883.73317,71
1766015883.734169,72
1766015883.735189,70
1766015883.7361789,65
1766015883.7371972,67
1766015883.7381911,68
1766015883.739182,67
1766015883.740206,69
1766015883.74118,68
1766015883.742178,68
1766015883.743202,67
1766015883.744205,69
1766015883.745203,66
1766015883.746211,67
1766015883.7472131,65
1766015883.748213,65
1766015883.7492092,66
1766015883.750207,66
1766015883.751209,66
1766015883.752227,68
1766015883.7532248,67
1766015883.754221,67
1766015883.755232,68
1766015883.756224,66
1766015883.7572422,67
1766015883.7582269,66
1766015883.759234,66
1766015883.760242,63
1766015883.761261,64
1766015883.762256,64
1766015883.763264,63
1766015883.764259,60
1766015883.765271,62
1766015883.7662652,60
1766015883.767262,61
1766015883.768285,64
1766015883.769283,70
1766015883.770265,68
1766015883.7712781,67
1766015883.772289,70
1766015883.7732859,71
1766015883.7742841,72
1766015883.7752802,73
1766015883.776296,72
1766015883.7772942,71
1766015883.778306,71
1766015883.7793112,73
1766015883.7803159,70
1766015883.781318,72
1766015883.782312,72
1766015883.783336,74
1766015883.7843368,70
1766015883.7853189,73
1766015883.786319,73
1766015883.787322,71
1766015883.788336,72
1766015883.789344,71
1766015883.790335,73
1766015883.7913332,75
1766015883.792351,72
1766015883.793348,73
1766015883.794351,74
1766015883.7953331,74
1766015883.7963672,71
1766015883.797374,72
1766015883.798348,74
1766015883.7993479,73
1766015883.800349,69
1766015883.801376,70
1766015883.802368,69
1766015883.803364,66
1766015883.804384,68
1766015883.8053691,67
1766015883.806369,67
1766015883.807376,70
1766015883.808379,67
1766015883.809383,69
1766015883.810386,68
1766015883.8114061,67
1766015883.8124008,70
1766015883.813405,70
1766015883.814412,70
1766015883.815406,70
1766015883.816407,67
1766015883.81743,69
1766015883.818399,70
1766015883.8194299,70
1766015883.820429,67
1766015883.82143,66
1766015883.8224251,67
1766015883.823426,71
1766015883.824424,71
1766015883.82543,69
1766015883.826446,67
1766015883.82745,68
1766015883.828456,67
1766015883.8294559,67
1766015883.830457,68
1766015883.831462,66
1766015883.832452,67
1766015883.833458,65
1766015883.834489,66
1766015883.8354838,67
1766015883.8364868,63
1766015883.837512,67
1766015883.838478,64
1766015883.839489,66
1766015883.8404858,61
1766015883.84149,63
1766015883.842473,61
1766015883.843562,61
1766015883.844515,59
1766015883.845498,61
1766015883.846486,62
1766015883.847476,62
1766015883.848473,63
1766015883.8495061,64
1766015883.850518,63
1766015883.851584,62
1766015883.852515,66
1766015883.853514,60
1766015883.854496,63
1766015883.855482,61
1766015883.8564851,62
1766015883.8574982,65
1766015883.858507,61
1766015883.8595068,62
1766015883.860511,60
1766015883.86153,61
1766015883.862528,61
1766015883.863549,61
1766015883.8645172,58
1766015883.865529,58
1766015883.866566,57
1766015883.867568,58
1766015883.8685608,65
1766015883.869555,72
1766015883.870583,73
1766015883.871568,74
1766015883.8725739,77
1766015883.873539,79
1766015883.8745651,80
1766015883.8755698,82
1766015883.87659,80
1766015883.877577,80
1766015883.878609,77
1766015883.879591,83
1766015883.8805928,83
1766015883.881602,81
1766015883.8825998,80
1766015883.8835998,76
1766015883.884625,81
1766015883.885608,79
1766015883.8866072,77
1766015883.88763,80
1766015883.888601,78
1766015883.889611,79
1766015883.890613,76
1766015883.891607,77
1766015883.892638,77
1766015883.893609,75
1766015883.8946078,74
1766015883.895635,71
1766015883.896621,72
1766015883.897629,75
1766015883.8986309,71
1766015883.899646,72
1766015883.900645,70
1766015883.9016662,72
1766015883.90265,69
1766015883.903651,66
1766015883.904659,68
1766015883.905632,71
1766015883.906655,74
1766015883.907647,71
1766015883.908639,71
1766015883.9096699,68
1766015883.910652,68
1766015883.911662,69
1766015883.912678,70
1766015883.913675,71
1766015883.9146738,73
1766015883.915693,71
1766015883.916681,69
1766015883.9176772,70
1766015883.9186869,70
1766015883.9197109,65
1766015883.9206889,68
1766015883.9217012,70
1766015883.922689,66
1766015883.923688,68
1766015883.924706,70
1766015883.9257112,73
1766015883.926701,72
1766015883.9276779,71
1766015883.928738,71
1766015883.9297228,72
1766015883.930718,71
1766015883.931724,71
1766015883.932725,70
1766015883.933729,70
1766015883.934704,67
1766015883.9356968,69
1766015883.936752,68
1766015883.9377432,66
1766015883.938755,67
1766015883.939754,68
1766015883.940751,68
1766015883.9417431,65
1766015883.9427578,63
1766015883.943736,63
1766015883.944772,65
1766015883.945753,65
1766015883.946731,64
1766015883.947762,67
1766015883.9487748,65
1766015883.9497652,61
1766015883.950759,62
1766015883.951781,61
1766015883.95277,60
1766015883.953801,61
1766015883.9547808,63
1766015883.955793,64
1766015883.9567978,63
1766015883.957792,65
1766015883.9588091,63
1766015883.9598022,63
1766015883.960803,65
1766015883.961795,66
1766015883.962805,61
1766015883.963804,62
1766015883.9648151,64
1766015883.9658098,63
1766015883.966814,65
1766015883.96783,62
1766015883.9688299,65
1766015883.969837,64
1766015883.9708412,65
1766015883.971843,67
1766015883.972838,63
1766015883.9738371,64
1766015883.974847,63
1766015883.975856,64
1766015883.976851,61
1766015883.977844,62
1766015883.9788558,63
1766015883.979852,69
1766015883.980858,69
1766015883.9818492,68
1766015883.982846,71
1766015883.983847,71
1766015883.984855,73
1766015883.985866,70
1766015883.986874,70
1766015883.9878871,68
1766015883.988886,68
1766015883.989929,70
1766015883.990866,68
1766015883.991866,67
1766015883.992851,68
1766015883.993856,68
1766015883.994865,64
1766015883.995858,66
1766015883.9968572,66
1766015883.997857,66
1766015883.9988632,62
1766015883.999876,64
1766015884.0008872,63
1766015884.0018811,61
1766015884.002898,62
1766015884.0038881,61
1766015884.0049012,61
1766015884.005904,63
1766015884.0069492,61
1766015884.0079,62
1766015884.008925,62
1766015884.0099242,61
1766015884.010952,61
1766015884.0119522,59
1766015884.012964,55
1766015884.0139651,60
1766015884.014961,59
1766015884.0159512,60
1766015884.016984,63
1766015884.017977,65
1766015884.0189812,62
1766015884.019967,63
1766015884.020983,58
1766015884.021976,61
1766015884.022979,61
1766015884.023989,60
1766015884.0249898,61
1766015884.0259788,59
1766015884.02707,57
1766015884.0281239,61
1766015884.029123,58
1766015884.030079,57
1766015884.03106,57
1766015884.032108,57
1766015884.033033,58
1766015884.034063,59
1766015884.0350232,54
1766015884.036074,55
1766015884.0370271,57
1766015884.0380611,55
1766015884.039024,59
1766015884.040076,55
1766015884.041033,57
1766015884.042075,59
1766015884.043066,59
1766015884.044075,59
1766015884.045024,59
1766015884.0460641,57
1766015884.0470679,58
1766015884.048078,58
1766015884.049071,58
1766015884.050058,57
1766015884.0510578,59
1766015884.052068,57
1766015884.053066,61
1766015884.05409,59
1766015884.05509,60
1766015884.056096,59
1766015884.0571039,58
1766015884.058084,61
1766015884.0590668,60
1766015884.0600991,60
1766015884.0610728,60
1766015884.0620701,57
1766015884.0631008,57
1766015884.064106,57
1766015884.0650702,54
1766015884.066103,56
1766015884.067105,59
1766015884.068089,57
1766015884.069132,57
1766015884.070092,53
1766015884.071132,54
1766015884.072128,52
1766015884.073091,52
1766015884.0741088,52
1766015884.075113,53
1766015884.076142,52
1766015884.0771441,50
1766015884.078122,53
1766015884.079125,50
1766015884.080139,49
1766015884.081165,51
1766015884.082144,49
1766015884.0831518,50
1766015884.084169,50
1766015884.085171,52
1766015884.086177,53
1766015884.087184,51
1766015884.08817,48
1766015884.08917,49
1766015884.0901692,51
1766015884.091176,51
1766015884.09219,53
1766015884.093191,50
1766015884.094172,49
1766015884.095204,51
1766015884.0961878,50
1766015884.097203,50
1766015884.0982049,52
1766015884.099214,51
1766015884.1002119,53
1766015884.101237,51
1766015884.1022248,50
1766015884.103251,50
1766015884.10421,50
1766015884.105233,51
1766015884.10624,51
1766015884.107255,51
1766015884.1082308,55
1766015884.109262,55
1766015884.110246,58
1766015884.111249,54
1766015884.1122692,55
1766015884.113269,54
1766015884.114229,57
1766015884.115264,59
1766015884.116265,55
1766015884.117297,57
1766015884.118259,59
1766015884.119276,59
1766015884.1202931,57
1766015884.121275,55
1766015884.122284,58
1766015884.123287,56
1766015884.124265,60
1766015884.125265,56
1766015884.126258,57
1766015884.1272619,53
1766015884.128268,56
1766015884.129289,57
1766015884.130274,56
1766015884.131291,54
1766015884.132277,54
1766015884.1332679,55
1766015884.13429,53
1766015884.1352692,53
1766015884.136296,52
1766015884.137275,52
1766015884.138283,53
1766015884.139294,54
1766015884.1403022,50
1766015884.14134,53
1766015884.142509,53
1766015884.1433458,52
1766015884.144335,50
1766015884.145341,49
1766015884.1462998,52
1766015884.1473129,53
1766015884.148331,51
1766015884.149322,50
1766015884.1503239,51
1766015884.151316,53
1766015884.1523252,54
1766015884.153319,54
1766015884.154322,53
1766015884.155338,54
1766015884.156373,52
1766015884.157363,56
1766015884.158384,54
1766015884.159447,53
1766015884.160384,52
1766015884.1614149,51
1766015884.162357,54
1766015884.163424,56
1766015884.164418,52
1766015884.165387,54
1766015884.166413,52
1766015884.16743,52
1766015884.168418,52
1766015884.169399,52
1766015884.170401,51
1766015884.171414,49
1766015884.172414,51
1766015884.173406,50
1766015884.174421,47
1766015884.17541,49
1766015884.1764202,49
1766015884.177428,48
1766015884.178406,50
1766015884.179403,51
1766015884.1804218,52
1766015884.1814249,55
1766015884.182422,56
1766015884.183424,56
1766015884.184431,52
1766015884.1854222,56
1766015884.18643,53
1766015884.187428,54
1766015884.188438,52
1766015884.1894348,53
1766015884.190429,56
1766015884.191442,56
1766015884.1925309,54
1766015884.193496,58
1766015884.194495,57
1766015884.195501,58
1766015884.1965199,54
1766015884.197469,56
1766015884.198504,58
1766015884.199508,57
1766015884.2005088,55
1766015884.201504,55
1766015884.202513,55
1766015884.2035,55
1766015884.2044852,54
1766015884.205504,58
1766015884.206507,53
1766015884.207526,51
1766015884.208519,54
1766015884.209517,54
1766015884.2105238,53
1766015884.211514,58
1766015884.21253,52
1766015884.21353,54
1766015884.214527,55
1766015884.215541,57
1766015884.216529,60
1766015884.217535,58
1766015884.218535,57
1766015884.2195368,54
1766015884.220542,53
1766015884.2215538,54
1766015884.2225869,55
1766015884.2235699,59
1766015884.224577,56
1766015884.225559,59
1766015884.2265542,64
1766015884.227571,61
1766015884.228588,61
1766015884.2296388,63
1766015884.230585,60
1766015884.231609,66
1766015884.2326279,61
1766015884.233601,62
1766015884.234588,62
1766015884.2355871,59
1766015884.236597,59
1766015884.23759,60
1766015884.238591,60
1766015884.239588,59
1766015884.240581,59
1766015884.241598,57
1766015884.2426062,58
1766015884.243615,59
1766015884.24464,56
1766015884.245627,56
1766015884.246635,55
1766015884.2476091,56
1766015884.248661,57
1766015884.249671,57
1766015884.250653,57
1766015884.251615,58
1766015884.252661,59
1766015884.2536802,59
