timestamp,emg_value
1766015881.063137,40
1766015881.0631459,41
1766015881.063154,44
1766015881.0631611,40
1766015881.063168,43
1766015881.063176,42
1766015881.063183,43
1766015881.06319,39
1766015881.063197,39
1766015881.063204,39
1766015881.063211,40
1766015881.0632188,40
1766015881.0632262,39
1766015881.0632331,40
1766015881.06324,41
1766015881.0632472,40
1766015881.063254,41
1766015881.063262,42
1766015881.0632691,41
1766015881.063276,39
1766015881.063283,40
1766015881.06329,40
1766015881.063298,38
1766015881.063306,39
1766015881.063313,40
1766015881.063321,41
1766015881.063328,41
1766015881.063336,39
1766015881.063343,39
1766015881.06335,39
1766015881.0633569,37
1766015881.063364,37
1766015881.063379,36
1766015881.0633888,36
1766015881.063396,38
1766015881.063403,37
1766015881.0634098,41
1766015881.0634172,40
1766015881.063425,43
1766015881.063432,41
1766015881.0634391,42
1766015881.063447,44
1766015881.063454,43
1766015881.063461,42
1766015881.063468,44
1766015881.063475,42
1766015881.063482,47
1766015881.063489,41
1766015881.0634959,42
1766015881.063503,45
1766015881.06351,44
1766015881.0635169,45
1766015881.0635252,42
1766015881.063532,43
1766015881.063539,42
1766015881.063547,45
1766015881.063554,41
1766015881.063561,43
1766015881.0635781,41
1766015881.063585,45
1766015881.063592,45
1766015881.0636,43
1766015881.063607,41
1766015881.063614,42
1766015881.063621,40
1766015881.063636,42
1766015881.063645,42
1766015881.063652,43
1766015881.063659,44
1766015881.0636659,43
1766015881.063673,45
1766015881.06368,45
1766015881.0636868,48
1766015881.063696,45
1766015881.063703,47
1766015881.06371,47
1766015881.0637178,48
1766015881.0637262,50
1766015881.063734,48
1766015881.063741,47
1766015881.0637481,48
1766015881.063755,50
1766015881.063762,51
1766015881.06377,46
1766015881.063777,47
1766015881.063784,49
1766015881.063791,48
1766015881.0637991,47
1766015881.063806,47
1766015881.0638132,45
1766015881.0638201,45
1766015881.063827,45
1766015881.0638342,48
1766015881.063842,48
1766015881.063849,49
1766015881.0638561,47
1766015881.063863,48
1766015881.063871,46
1766015881.06388,48
1766015881.063891,51
1766015881.063898,50
1766015881.063905,46
1766015881.0639129,48
1766015881.06392,47
1766015881.063927,49
1766015881.0639338,46
1766015881.063942,43
1766015881.063949,47
1766015881.063956,44
1766015881.0639691,46
1766015881.063976,43
1766015881.0639832,45
1766015881.06399,45
1766015881.063997,42
1766015881.0640051,42
1766015881.064012,42
1766015881.064019,44
1766015881.064026,42
1766015881.064033,46
1766015881.06404,43
1766015881.064047,42
1766015881.064055,41
1766015881.0640619,40
1766015881.064069,42
1766015881.064076,40
1766015881.0640829,42
1766015881.06409,41
1766015881.064097,38
1766015881.064107,42
1766015881.064115,40
1766015881.064123,41
1766015881.064136,39
1766015881.0641432,43
1766015881.0641532,41
1766015881.06416,39
1766015881.064167,39
1766015881.0641742,41
1766015881.064182,38
1766015881.064189,40
1766015881.064196,43
1766015881.064203,41
1766015881.06421,40
1766015881.064217,41
1766015881.064224,41
1766015881.064231,43
1766015881.064238,42
1766015881.064245,41
1766015881.064252,40
1766015881.064259,41
1766015881.064267,42
1766015881.0642738,38
1766015881.064281,43
1766015881.064288,41
1766015881.0642948,40
1766015881.064302,42
1766015881.064309,39
1766015881.0643158,39
1766015881.0643232,40
1766015881.06433,40
1766015881.064337,39
1766015881.0643451,41
1766015881.064352,39
1766015881.064359,36
1766015881.064366,39
1766015881.064373,35
1766015881.0643861,38
1766015881.064394,40
1766015881.0644019,39
1766015881.064409,38
1766015881.0644171,37
1766015881.064424,38
1766015881.0644312,38
1766015881.064438,41
1766015881.064446,39
1766015881.0644531,37
1766015881.06446,38
1766015881.064467,37
1766015881.064474,39
1766015881.064481,40
1766015881.064488,38
1766015881.064495,36
1766015881.064502,40
1766015881.064509,40
1766015881.064516,40
1766015881.064523,39
1766015881.06453,38
1766015881.064538,36
1766015881.064545,37
1766015881.0645518,38
1766015881.0645592,37
1766015881.064566,39
1766015881.0645728,38
1766015881.0645802,37
1766015881.064587,39
1766015881.064594,38
1766015881.0646021,38
1766015881.064609,39
1766015881.064616,40
1766015881.064623,40
1766015881.064637,42
1766015881.064646,42
1766015881.0646532,41
1766015881.064661,41
1766015881.064668,41
1766015881.064675,39
1766015881.064682,43
1766015881.064689,44
1766015881.064696,42
1766015881.064703,43
1766015881.06471,41
1766015881.064717,43
1766015881.064724,42
1766015881.064731,39
1766015881.0647502,43
1766015881.064757,40
1766015881.064764,43
1766015881.0647712,41
1766015881.064778,37
1766015881.064786,40
1766015881.064793,41
1766015881.0648,37
1766015881.064807,39
1766015881.064814,37
1766015881.064821,37
1766015881.064828,36
1766015881.064836,40
1766015881.064843,35
1766015881.0648499,36
1766015881.064857,36
1766015881.064864,38
1766015881.064872,36
1766015881.0648792,36
1766015881.0648892,39
1766015881.064899,37
1766015881.064906,36
1766015881.0649128,35
1766015881.06492,39
1766015881.0649269,38
1766015881.0649338,37
1766015881.0649421,35
1766015881.064949,37
1766015881.064956,34
1766015881.064963,36
1766015881.064971,36
1766015881.064978,35
1766015881.064985,32
1766015881.064992,36
1766015881.0649989,34
1766015881.065006,33
1766015881.0650141,34
1766015881.065021,32
1766015881.0650282,33
1766015881.065035,34
1766015881.065042,35
1766015881.0650492,29
1766015881.065057,33
1766015881.065064,34
1766015881.065071,33
1766015881.065078,29
1766015881.065085,31
1766015881.065092,34
1766015881.065099,33
1766015881.065106,33
1766015881.065114,36
1766015881.065121,31
1766015881.065134,31
1766015881.065143,31
1766015881.06515,34
1766015881.0651572,31
1766015881.065165,30
1766015881.065172,31
1766015881.0651789,29
1766015881.065186,32
1766015881.065193,31
1766015881.0652,30
1766015881.065207,31
1766015881.065214,28
1766015881.065221,31
1766015881.065228,29
1766015881.0652359,29
1766015881.0652428,26
1766015881.0652502,31
1766015881.065257,31
1766015881.0652642,29
1766015881.0652711,29
1766015881.065278,31
1766015881.0652852,32
1766015881.0652921,28
1766015881.065299,29
1766015881.0653062,32
1766015881.065314,30
1766015881.065321,30
1766015881.0653281,30
1766015881.065335,31
1766015881.065342,28
1766015881.0653498,26
1766015881.065357,30
1766015881.065364,29
1766015881.065374,29
1766015881.065381,29
1766015881.06539,29
1766015881.065397,29
1766015881.065404,27
1766015881.065412,25
1766015881.065419,28
1766015881.0654259,29
1766015881.065433,31
1766015881.06544,31
1766015881.0654469,31
1766015881.0654552,31
1766015881.065462,29
1766015881.065469,32
1766015881.0654762,29
1766015881.065483,29
1766015881.06549,26
1766015881.0654972,30
1766015881.065504,26
1766015881.065512,29
1766015881.065519,30
1766015881.065526,31
1766015881.065533,29
1766015881.06554,31
1766015881.065547,29
1766015881.065554,30
1766015881.065561,28
1766015881.065568,28
1766015881.0655758,28
1766015881.065583,30
1766015881.06559,25
1766015881.0655968,26
1766015881.0656052,25
1766015881.065613,29
1766015881.065622,29
1766015881.065629,26
1766015881.0656378,27
1766015881.0656462,27
1766015881.065653,32
1766015881.06566,29
1766015881.0656672,30
1766015881.065674,27
1766015881.065681,26
1766015881.065689,26
1766015881.065696,28
1766015881.065703,26
1766015881.06571,28
1766015881.065717,25
1766015881.065724,27
1766015881.065731,28
1766015881.065739,27
1766015881.0657458,27
1766015881.065753,26
1766015881.06576,25
1766015881.0657668,29
1766015881.0657752,29
1766015881.065782,27
1766015881.065789,23
1766015881.0657961,26
1766015881.065803,26
1766015881.06581,25
1766015881.065817,27
1766015881.065825,23
1766015881.065832,28
1766015881.065839,27
1766015881.065846,27
1766015881.0658529,26
1766015881.0658612,25
1766015881.06587,24
1766015881.065878,23
1766015881.065886,27
1766015881.0658932,23
1766015881.065901,25
1766015881.065908,27
1766015881.0659149,24
1766015881.065922,27
1766015881.065929,25
1766015881.0659359,27
1766015881.065943,26
1766015881.065949,24
1766015881.065956,25
1766015881.065962,26
1766015881.065969,23
1766015881.065975,24
1766015881.0659819,25
1766015881.065989,24
1766015881.065995,27
1766015881.066001,25
1766015881.066008,24
1766015881.066015,28
1766015881.0660212,25
1766015881.066028,28
1766015881.0660338,25
1766015881.066041,24
1766015881.066047,25
1766015881.0660539,24
1766015881.06606,23
1766015881.066067,26
1766015881.0660732,26
1766015881.06608,29
1766015881.066087,25
1766015881.066093,24
1766015881.066102,26
1766015881.066114,26
1766015881.0661209,24
1766015881.0661278,24
1766015881.066134,26
1766015881.066141,24
1766015881.066147,25
1766015881.066154,22
1766015881.066161,27
1766015881.066167,26
1766015881.066174,27
1766015881.06618,23
1766015881.066187,23
1766015881.0661938,26
1766015881.0662,22
1766015881.066207,23
1766015881.0662131,27
1766015881.06622,23
1766015881.066226,24
1766015881.0662332,26
1766015881.0662389,26
1766015881.0662458,23
1766015881.066253,26
1766015881.066259,25
1766015881.066266,21
1766015881.066272,26
1766015881.066279,22
1766015881.0662851,21
1766015881.066292,22
1766015881.066298,24
1766015881.066305,22
1766015881.0663118,25
1766015881.066318,22
1766015881.066327,26
1766015881.066334,21
1766015881.0663419,24
1766015881.066348,23
1766015881.066355,23
1766015881.0663612,25
1766015881.066368,24
1766015881.0663738,26
1766015881.066381,24
1766015881.066387,25
1766015881.066394,24
1766015881.0664,24
1766015881.066407,23
1766015881.0664132,23
1766015881.06642,22
1766015881.066427,24
1766015881.066433,24
1766015881.0664399,22
1766015881.066447,22
1766015881.066453,25
1766015881.06646,25
1766015881.066466,19
1766015881.066473,21
1766015881.0664792,24
1766015881.0664861,23
1766015881.066493,25
1766015881.0665002,23
1766015881.066506,23
1766015881.0665128,25
1766015881.066519,25
1766015881.066526,24
1766015881.066533,22
1766015881.066539,24
1766015881.066546,25
1766015881.0665548,22
1766015881.066564,24
1766015881.066571,22
1766015881.066577,22
1766015881.066584,24
1766015881.06659,26
1766015881.0665972,23
1766015881.0666041,24
1766015881.0666099,23
1766015881.066617,24
1766015881.066623,26
1766015881.06663,24
1766015881.066636,24
1766015881.066643,26
1766015881.0666492,21
1766015881.066656,24
1766015881.0666618,22
1766015881.066669,26
1766015881.066676,20
1766015881.066682,26
1766015881.066689,25
1766015881.066695,27
1766015881.0667021,24
1766015881.066709,24
1766015881.0667148,29
1766015881.0667222,26
1766015881.0667279,26
1766015881.066735,26
1766015881.066742,27
1766015881.066748,26
1766015881.066755,26
1766015881.066762,26
1766015881.066768,25
1766015881.066777,27
1766015881.066784,27
1766015881.066793,24
1766015881.0668,27
1766015881.066807,25
1766015881.066813,24
1766015881.0668201,24
1766015881.066827,26
1766015881.0668328,27
1766015881.0668402,26
1766015881.066846,31
1766015881.066853,27
1766015881.066859,25
1766015881.066866,29
1766015881.0668721,27
1766015881.066879,26
1766015881.0668852,31
1766015881.0668921,28
1766015881.0668979,28
1766015881.066905,26
1766015881.066911,26
1766015881.066918,32
1766015881.066925,26
1766015881.066931,30
1766015881.0669382,29
1766015881.066944,30
1766015881.0669508,29
1766015881.0669582,30
1766015881.066964,28
1766015881.0669708,30
1766015881.066977,28
1766015881.066984,27
1766015881.0669901,29
1766015881.066997,28
1766015881.0670059,29
1766015881.067013,26
1766015881.0670211,28
1766015881.067028,30
1766015881.067034,28
1766015881.067041,33
1766015881.0670478,31
1766015881.067054,32
1766015881.067061,32
1766015881.0670679,31
1766015881.067074,31
1766015881.067081,29
1766015881.0670872,32
1766015881.067094,32
1766015881.067101,29
1766015881.067107,32
1766015881.0671139,30
1766015881.06712,30
1766015881.067127,28
1766015881.067134,31
1766015881.06714,32
1766015881.067147,29
1766015881.067153,28
1766015881.0671601,32
1766015881.0671659,33
1766015881.067173,29
1766015881.06718,32
1766015881.0671859,28
1766015881.067193,31
1766015881.067199,35
1766015881.067206,32
1766015881.067212,29
1766015881.067219,31
1766015881.0672262,29
1766015881.067234,32
1766015881.067241,32
1766015881.06725,32
1766015881.0672572,32
1766015881.067263,34
1766015881.0672698,33
1766015881.067276,34
1766015881.067283,34
1766015881.06729,33
1766015881.067296,32
1766015881.067303,32
1766015881.0673091,33
1766015881.067316,30
1766015881.067322,28
1766015881.067329,31
1766015881.067335,30
1766015881.067342,31
1766015881.067349,34
1766015881.067355,33
1766015881.067362,31
1766015881.067369,31
1766015881.0673752,34
1766015881.067382,34
1766015881.0673878,31
1766015881.067395,29
1766015881.067402,32
1766015881.0674078,33
1766015881.067415,34
1766015881.067421,30
1766015881.067428,33
1766015881.067435,27
1766015881.067441,31
1766015881.0674481,31
1766015881.0674539,32
1766015881.067463,28
1766015881.06747,31
1766015881.0674791,27
1766015881.0674849,32
1766015881.067492,31
1766015881.067499,32
1766015881.067505,30
1766015881.067512,33
1766015881.067519,34
1766015881.0675251,32
1766015881.067532,33
1766015881.067539,31
1766015881.0675452,30
1766015881.067552,30
1766015881.067559,30
1766015881.067565,33
1766015881.0675719,33
1766015881.067578,31
1766015881.067585,32
1766015881.067592,33
1766015881.067598,32
1766015881.067605,29
1766015881.067611,31
1766015881.0676181,33
1766015881.067625,32
1766015881.067631,34
1766015881.067638,31
1766015881.067644,31
1766015881.067651,31
1766015881.0676649,31
1766015881.067672,32
1766015881.067679,31
1766015881.0676851,31
1766015881.067692,32
1766015881.067701,34
1766015881.067708,32
1766015881.067717,32
1766015881.067723,32
1766015881.06773,32
1766015881.0677361,33
1766015881.067743,31
1766015881.06775,34
1766015881.067756,35
1766015881.0677629,33
1766015881.067769,33
1766015881.067776,33
1766015881.067782,31
1766015881.067789,33
1766015881.067795,30
1766015881.0678022,32
1766015881.067808,37
1766015881.0678148,33
1766015881.067822,33
1766015881.067828,32
1766015881.0678349,32
1766015881.067841,32
1766015881.067848,35
1766015881.0678551,34
1766015881.067861,34
1766015881.067868,35
1766015881.0678751,31
1766015881.0678809,31
1766015881.067889,34
1766015881.0678961,36
1766015881.067903,34
1766015881.067909,30
1766015881.067916,34
1766015881.0679219,32
1766015881.067931,33
1766015881.0679412,32
1766015881.067948,34
1766015881.067955,33
1766015881.067961,33
1766015881.067968,32
1766015881.0679748,35
1766015881.067981,34
1766015881.0679948,31
1766015881.068008,35
1766015881.068015,35
1766015881.068021,35
1766015881.068028,33
1766015881.0680351,34
1766015881.0680408,34
1766015881.0680478,34
1766015881.0680552,37
1766015881.0680609,34
1766015881.068068,33
1766015881.068074,32
1766015881.068081,33
1766015881.068088,35
1766015881.068094,34
1766015881.0681012,35
1766015881.068107,36
1766015881.0681138,34
1766015881.06812,33
1766015881.068127,35
1766015881.068133,34
1766015881.06814,33
1766015881.068146,37
1766015881.0681531,33
1766015881.0681589,36
1766015881.0681658,31
1766015881.0681741,34
1766015881.068182,37
1766015881.068188,31
1766015881.068195,34
1766015881.068201,33
1766015881.0682082,34
1766015881.0682151,34
1766015881.0682209,36
1766015881.068228,31
1766015881.068234,33
1766015881.068241,34
1766015881.068248,33
1766015881.068254,33
1766015881.0682602,32
1766015881.068267,32
1766015881.068274,32
1766015881.0682812,35
1766015881.068287,30
1766015881.0682938,33
1766015881.068301,32
1766015881.068307,33
1766015881.068314,32
1766015881.06832,32
1766015881.068327,37
1766015881.0683331,33
1766015881.06834,32
1766015881.068347,33
1766015881.068353,34
1766015881.0683599,33
1766015881.068367,31
1766015881.068373,32
1766015881.0683799,35
1766015881.068386,29
1766015881.068396,32
1766015881.068403,34
1766015881.068429,34
1766015881.068439,32
1766015881.068446,32
1766015881.068453,34
1766015881.068459,31
1766015881.068466,33
1766015881.068473,32
1766015881.068479,30
1766015881.068486,32
1766015881.068492,34
1766015881.0684988,31
1766015881.068506,34
1766015881.068512,31
1766015881.0685189,31
1766015881.068525,31
1766015881.068532,32
1766015881.0685382,31
1766015881.068545,33
1766015881.0685508,35
1766015881.068558,31
1766015881.068564,28
1766015881.0685709,33
1766015881.068578,31
1766015881.068584,33
1766015881.068591,33
1766015881.068597,32
1766015881.068604,34
1766015881.06861,32
1766015881.0686169,34
1766015881.068623,33
1766015881.06863,32
1766015881.068636,33
1766015881.0686452,34
1766015881.068653,34
1766015881.06866,32
1766015881.0686662,33
1766015881.0686731,32
1766015881.0686789,31
1766015881.068686,34
1766015881.068692,35
1766015881.068699,31
1766015881.068705,31
1766015881.068712,32
1766015881.0687182,31
1766015881.068725,32
1766015881.0687308,31
1766015881.068738,31
1766015881.068744,31
1766015881.068751,31
1766015881.068757,31
1766015881.068764,32
1766015881.06877,35
1766015881.0687768,31
1766015881.068783,33
1766015881.06879,35
1766015881.0687969,31
1766015881.068803,29
1766015881.06881,32
1766015881.068816,33
1766015881.068823,33
1766015881.0688288,33
1766015881.0688362,31
1766015881.068842,33
1766015881.0688488,32
1766015881.068855,35
1766015881.068867,33
1766015881.068874,32
1766015881.068882,28
1766015881.068888,28
1766015881.0688949,30
1766015881.068901,32
1766015881.068908,29
1766015881.068914,30
1766015881.068921,30
1766015881.068928,30
1766015881.068934,33
1766015881.06894,33
1766015881.0689468,31
1766015881.068953,33
1766015881.06896,30
1766015881.068966,28
1766015881.068973,30
1766015881.068979,31
1766015881.0689862,27
1766015881.068992,33
1766015881.0689988,30
1766015881.069005,30
1766015881.069012,32
1766015881.0690188,30
1766015881.069025,34
1766015881.069032,30
1766015881.0690382,30
1766015881.0690439,29
1766015881.0690508,30
1766015881.069058,30
1766015881.069064,31
1766015881.069071,30
1766015881.069077,32
1766015881.069084,27
1766015881.0690958,32
1766015881.069102,31
1766015881.06911,31
1766015881.0691168,31
1766015881.069123,29
1766015881.06913,32
1766015881.069136,33
1766015881.069143,30
1766015881.069149,28
1766015881.0691562,31
1766015881.069162,30
1766015881.0691688,28
1766015881.069175,29
1766015881.069182,28
1766015881.069188,28
1766015881.069195,29
1766015881.069201,33
1766015881.0692081,31
1766015881.0692139,30
1766015881.069221,29
1766015881.069227,30
1766015881.069234,31
1766015881.06924,32
1766015881.069247,32
1766015881.0692532,34
1766015881.0692601,33
1766015881.069267,32
1766015881.069273,30
1766015881.06928,29
1766015881.069292,31
1766015881.069299,29
1766015881.0693061,28
1766015881.069312,28
1766015881.069319,31
1766015881.069333,30
1766015881.069341,31
1766015881.0693471,30
1766015881.069354,33
1766015881.06936,29
1766015881.069367,31
1766015881.0693738,32
1766015881.06938,31
1766015881.069387,32
1766015881.069393,29
1766015881.069403,31
1766015881.0694091,32
1766015881.069416,32
1766015881.069422,31
1766015881.069429,32
1766015881.069435,28
1766015881.069442,32
1766015881.069448,32
1766015881.0694551,32
1766015881.069462,31
1766015881.069468,30
1766015881.069474,31
1766015881.069481,31
1766015881.069487,30
1766015881.069497,31
1766015881.069503,33
1766015881.06951,28
1766015881.069516,29
1766015881.0695229,31
1766015881.069529,33
1766015881.069536,29
1766015881.069542,30
1766015881.069549,29
1766015881.069561,30
1766015881.069569,29
1766015881.06958,33
1766015881.069587,31
1766015881.0695941,29
1766015881.0696,28
1766015881.069607,32
1766015881.069613,29
1766015881.06962,29
1766015881.069626,29
1766015881.069633,29
1766015881.069639,28
1766015881.0696461,28
1766015881.069652,26
1766015881.069659,30
1766015881.0696661,30
1766015881.0696719,31
1766015881.069679,31
1766015881.069686,28
1766015881.0696929,28
1766015881.069699,29
1766015881.069706,28
1766015881.069712,28
1766015881.0697548,30
1766015881.069765,29
1766015881.069772,26
1766015881.069779,26
1766015881.069786,30
1766015881.069793,29
1766015881.0698,30
1766015881.069807,31
1766015881.069814,28
1766015881.06982,27
1766015881.069827,30
1766015881.0698361,25
1766015881.069844,26
1766015881.069851,27
1766015881.0698571,25
1766015881.069864,25
1766015881.0698712,29
1766015881.069877,27
1766015881.0698838,28
1766015881.069891,28
1766015881.069898,25
1766015881.0699039,27
1766015881.069911,30
1766015881.069917,26
1766015881.069924,27
1766015881.069931,25
1766015881.069937,23
1766015881.0699441,27
1766015881.0699499,26
1766015881.069957,29
1766015881.069964,26
1766015881.06997,25
1766015881.069979,26
1766015881.069986,24
1766015881.069993,26
1766015881.0699992,26
1766015881.0700061,25
1766015881.0700119,25
1766015881.070019,28
1766015881.070026,28
1766015881.070032,26
1766015881.070039,25
1766015881.070046,26
1766015881.0700521,24
1766015881.070059,26
1766015881.070067,27
1766015881.070074,26
1766015881.07008,27
1766015881.070087,24
1766015881.070094,27
1766015881.0701,26
1766015881.070107,27
1766015881.070113,23
1766015881.0701199,25
1766015881.070126,25
1766015881.070133,24
1766015881.070139,26
1766015881.070146,27
1766015881.070153,23
1766015881.0701592,23
1766015881.070166,29
1766015881.070173,26
1766015881.070179,25
1766015881.070186,24
1766015881.070192,26
1766015881.070199,26
1766015881.070205,26
1766015881.0702121,25
1766015881.070218,25
1766015881.070225,25
1766015881.070231,25
1766015881.0702379,24
1766015881.070244,24
1766015881.070251,26
1766015881.070257,25
1766015881.070264,26
1766015881.070271,24
1766015881.0702772,23
1766015881.0702841,25
1766015881.0702899,26
1766015881.070297,26
1766015881.070303,26
1766015881.0703099,28
1766015881.070317,26
1766015881.070323,25
1766015881.0703301,27
1766015881.070336,23
1766015881.070343,23
1766015881.0703502,28
1766015881.070356,23
1766015881.0703628,23
1766015881.070369,26
1766015881.070376,27
1766015881.070383,25
1766015881.070389,23
1766015881.070396,24
1766015881.070403,27
1766015881.070409,24
1766015881.070416,24
1766015881.070422,24
1766015881.0704288,26
1766015881.070435,26
1766015881.070442,25
1766015881.0704482,24
1766015881.070455,25
1766015881.070462,23
1766015881.0704682,26
1766015881.070475,20
1766015881.0704808,25
1766015881.070488,21
1766015881.070494,22
1766015881.070501,22
1766015881.070508,23
1766015881.070514,23
1766015881.070521,21
1766015881.070527,23
1766015881.070534,24
1766015881.07054,24
1766015881.0705469,24
1766015881.070554,23
1766015881.07056,25
1766015881.070567,23
1766015881.070573,22
1766015881.0705879,26
1766015881.070595,21
1766015881.070602,19
1766015881.0706098,23
1766015881.070616,21
1766015881.070623,21
1766015881.0706291,24
1766015881.070636,26
1766015881.070643,22
1766015881.0706491,22
1766015881.070656,25
1766015881.0706618,21
1766015881.0706692,22
1766015881.070675,20
1766015881.070682,22
1766015881.070689,25
1766015881.070695,24
1766015881.070702,25
1766015881.070708,23
1766015881.070715,21
1766015881.070721,22
1766015881.0707278,22
1766015881.0707352,26
1766015881.070741,24
1766015881.0707479,23
1766015881.070754,21
1766015881.070761,24
1766015881.0707672,25
1766015881.070774,21
1766015881.0707798,21
1766015881.070787,22
1766015881.070793,22
1766015881.0707998,23
1766015881.070806,23
1766015881.07082,21
1766015881.070826,24
1766015881.070833,24
1766015881.070839,22
1766015881.0708458,23
1766015881.070852,22
1766015881.070859,21
1766015881.070865,22
1766015881.070872,25
1766015881.070878,23
1766015881.0708852,24
1766015881.070891,25
1766015881.0708978,22
1766015881.070904,21
1766015881.070911,21
1766015881.0709178,22
1766015881.070925,23
1766015881.070931,23
1766015881.070938,24
1766015881.070944,21
1766015881.070951,24
1766015881.0709581,23
1766015881.0709639,23
1766015881.0709708,20
1766015881.070977,23
1766015881.070984,23
1766015881.07099,24
1766015881.070997,21
1766015881.071004,23
1766015881.07101,21
1766015881.0710158,23
1766015881.071023,21
1766015881.07103,21
1766015881.0710359,24
1766015881.071043,22
1766015881.071049,24
1766015881.071056,24
1766015881.071062,24
1766015881.071069,24
1766015881.0710762,20
1766015881.0710819,21
1766015881.0710888,20
1766015881.071095,25
1766015881.071102,22
1766015881.071109,21
1766015881.071115,23
1766015881.071122,22
1766015881.071129,24
1766015881.071135,23
1766015881.071142,25
1766015881.071148,23
1766015881.0711548,21
1766015881.071161,20
1766015881.071168,22
1766015881.071174,22
1766015881.071181,22
1766015881.071187,20
1766015881.0711942,22
1766015881.0712,22
1766015881.0712068,22
1766015881.0712142,24
1766015881.07122,22
1766015881.0712268,25
1766015881.071233,23
1766015881.07124,22
1766015881.0712461,23
1766015881.071253,24
1766015881.0712588,22
1766015881.071266,21
1766015881.071272,20
1766015881.071279,23
1766015881.071285,23
1766015881.071292,22
1766015881.071299,24
1766015881.071305,25
1766015881.071312,28
1766015881.071319,25
1766015881.0713248,23
1766015881.071332,20
1766015881.071338,25
1766015881.0713449,20
1766015881.071351,22
1766015881.071358,25
1766015881.0713642,24
1766015881.071371,22
1766015881.0713768,22
1766015881.071384,25
1766015881.07139,22
1766015881.071397,22
1766015881.071404,24
1766015881.07141,25
1766015881.071417,26
1766015881.071423,21
1766015881.07143,23
1766015881.071436,21
1766015881.0714428,23
1766015881.071449,23
1766015881.071456,19
1766015881.0714629,21
1766015881.071469,22
1766015881.071476,24
1766015881.0714822,23
1766015881.071489,23
1766015881.0714948,23
1766015881.071502,23
1766015881.07165,26
1766015881.0726368,22
1766015881.073635,21
1766015881.074708,23
1766015881.075683,22
1766015881.076726,21
1766015881.0776582,23
1766015881.0786319,23
1766015881.079656,20
1766015881.08071,23
1766015881.0817122,23
1766015881.082724,22
1766015881.08368,25
1766015881.0847008,23
1766015881.085702,24
1766015881.086676,25
1766015881.087678,21
1766015881.088748,23
1766015881.089738,22
1766015881.09072,20
1766015881.091743,25
1766015881.092749,23
1766015881.093724,20
1766015881.09483,23
1766015881.095756,23
1766015881.09677,24
1766015881.0977752,22
1766015881.098751,22
1766015881.099742,21
1766015881.100768,21
1766015881.1017642,23
1766015881.102765,19
1766015881.1038458,22
1766015881.104762,25
1766015881.105767,23
1766015881.106768,21
1766015881.107808,22
1766015881.108768,23
1766015881.109729,20
1766015881.110755,23
1766015881.111726,23
1766015881.112845,22
1766015881.1138,20
1766015881.114788,19
1766015881.115783,21
1766015881.116794,21
1766015881.11778,23
1766015881.118811,20
1766015881.1197922,22
1766015881.120867,21
1766015881.121815,22
1766015881.122831,19
1766015881.123805,21
1766015881.12481,25
1766015881.125799,21
1766015881.12683,26
1766015881.1278138,24
1766015881.1287942,24
1766015881.1298418,23
1766015881.130854,22
1766015881.131826,24
1766015881.13283,24
1766015881.133843,23
1766015881.134848,22
1766015881.1358452,23
1766015881.136805,21
1766015881.137867,21
1766015881.138849,23
1766015881.1398668,21
1766015881.140856,22
1766015881.14185,26
1766015881.14287,22
1766015881.143863,21
1766015881.144851,23
1766015881.14593,22
1766015881.146894,25
1766015881.147899,23
1766015881.148876,24
1766015881.1498518,22
1766015881.150883,23
1766015881.151903,21
1766015881.152896,23
1766015881.153884,22
1766015881.154965,21
1766015881.1559198,22
1766015881.1569211,23
1766015881.1578948,24
1766015881.158918,23
1766015881.159913,24
1766015881.1609201,21
1766015881.161876,22
1766015881.162899,21
1766015881.1639419,22
1766015881.164918,22
1766015881.165926,22
1766015881.166912,20
1766015881.167938,23
1766015881.168942,22
1766015881.169921,23
1766015881.170933,23
1766015881.1719491,20
1766015881.172976,24
1766015881.173959,24
1766015881.174967,22
1766015881.175949,23
1766015881.176971,23
1766015881.1779609,23
1766015881.178934,21
1766015881.17998,21
1766015881.180981,23
1766015881.1819441,23
1766015881.182992,20
1766015881.184,22
1766015881.184991,25
1766015881.185993,22
1766015881.18695,21
1766015881.188035,21
1766015881.188996,26
1766015881.189985,25
1766015881.191075,22
1766015881.1920798,24
1766015881.1930828,21
1766015881.194077,23
1766015881.195062,23
1766015881.1960819,23
1766015881.197079,23
1766015881.198077,23
1766015881.199081,24
1766015881.200086,20
1766015881.201104,24
1766015881.20208,22
1766015881.203101,21
1766015881.204075,22
1766015881.205081,23
1766015881.206082,21
1766015881.2070882,20
1766015881.208075,21
1766015881.209136,23
1766015881.2101219,23
1766015881.2110379,24
1766015881.2120352,24
1766015881.213035,24
1766015881.214071,21
1766015881.215074,20
1766015881.216088,21
1766015881.217062,24
1766015881.218039,18
1766015881.2190561,25
1766015881.220049,21
1766015881.2210612,18
1766015881.222055,24
1766015881.223095,23
1766015881.2240589,19
1766015881.225111,21
1766015881.22611,24
1766015881.2271092,23
1766015881.228116,22
1766015881.2290611,22
1766015881.230134,23
1766015881.231118,22
1766015881.23212,25
1766015881.2331269,25
1766015881.234138,22
1766015881.235132,24
1766015881.23614,22
1766015881.23709,25
1766015881.238158,22
1766015881.239156,23
1766015881.240142,21
1766015881.2411368,22
1766015881.242105,21
1766015881.243159,22
1766015881.244176,21
1766015881.245124,23
1766015881.246134,23
1766015881.247166,21
1766015881.248173,21
1766015881.249185,22
1766015881.250144,20
1766015881.251179,19
1766015881.252231,22
1766015881.253149,21
1766015881.254147,24
1766015881.2552052,20
1766015881.256206,21
1766015881.2571971,23
1766015881.258163,23
1766015881.259191,19
1766015881.260166,23
1766015881.261173,22
1766015881.262163,22
1766015881.263167,24
1766015881.264216,19
1766015881.265218,22
1766015881.266231,25
1766015881.267232,23
1766015881.268244,23
1766015881.2692192,22
1766015881.270232,23
1766015881.271232,21
1766015881.272233,20
1766015881.273243,20
1766015881.274225,22
1766015881.275247,23
1766015881.276242,23
1766015881.277258,20
1766015881.2782469,24
1766015881.279254,23
1766015881.280276,20
1766015881.281257,20
1766015881.282274,22
1766015881.2832792,20
1766015881.2843158,21
1766015881.2852669,24
1766015881.286303,23
1766015881.287296,23
1766015881.288311,20
1766015881.289296,21
1766015881.290287,19
1766015881.2912798,25
1766015881.292285,24
1766015881.293301,25
1766015881.294307,22
1766015881.295297,22
1766015881.296308,21
1766015881.297298,23
1766015881.298311,24
1766015881.299309,21
1766015881.300308,23
1766015881.301346,20
1766015881.302322,23
1766015881.303344,19
1766015881.304338,24
1766015881.305341,22
1766015881.306331,20
1766015881.307327,21
1766015881.308328,20
1766015881.309352,23
1766015881.310349,22
1766015881.311351,21
1766015881.3123589,21
1766015881.313355,21
1766015881.314361,23
1766015881.3153322,22
1766015881.316342,21
1766015881.317355,23
1766015881.318335,21
1766015881.3193731,19
1766015881.3203351,23
1766015881.321373,23
1766015881.322386,21
1766015881.3233979,24
1766015881.324388,21
1766015881.325405,23
1766015881.326398,22
1766015881.327411,21
1766015881.328392,22
1766015881.329397,18
1766015881.330404,23
1766015881.331417,23
1766015881.3324192,22
1766015881.3334122,20
1766015881.3344169,23
1766015881.335422,22
1766015881.336431,24
1766015881.337433,24
1766015881.3384352,24
1766015881.339432,27
1766015881.340448,25
1766015881.34142,25
1766015881.3424199,23
1766015881.343434,27
1766015881.3444512,26
1766015881.345461,22
1766015881.346447,25
1766015881.34746,25
1766015881.348472,22
1766015881.349463,23
1766015881.3504581,26
1766015881.351508,27
1766015881.352478,27
1766015881.353481,25
1766015881.35448,25
1766015881.355489,26
1766015881.356498,26
1766015881.357483,26
1766015881.358478,24
1766015881.359497,28
1766015881.360482,29
1766015881.361523,24
1766015881.362506,27
1766015881.3635058,29
1766015881.364506,28
1766015881.365504,25
1766015881.366494,28
1766015881.367506,27
1766015881.368501,27
1766015881.369524,24
1766015881.3705258,25
1766015881.371511,26
1766015881.3725498,25
1766015881.373518,27
1766015881.374531,25
1766015881.375541,29
1766015881.376539,29
1766015881.377537,24
1766015881.3785589,25
1766015881.3795588,28
1766015881.3805592,23
1766015881.3815548,24
1766015881.382557,28
1766015881.383567,28
1766015881.384563,26
1766015881.38556,24
1766015881.38657,25
1766015881.3875608,25
1766015881.388577,25
1766015881.389591,26
1766015881.390584,28
1766015881.391571,24
1766015881.392592,29
1766015881.3935869,26
1766015881.3945842,28
1766015881.3955882,27
1766015881.396611,28
1766015881.397587,28
1766015881.3985898,28
1766015881.399605,26
1766015881.400618,27
1766015881.40162,25
1766015881.402605,29
1766015881.4036238,28
1766015881.404615,27
1766015881.405617,29
1766015881.4065962,26
1766015881.407607,30
1766015881.408612,30
1766015881.409645,29
1766015881.410614,29
1766015881.411633,29
1766015881.412616,30
1766015881.413644,29
1766015881.414635,31
1766015881.415612,28
1766015881.416651,31
1766015881.417654,32
1766015881.418643,29
1766015881.419638,29
1766015881.420667,30
1766015881.421657,29
1766015881.4226649,32
1766015881.423667,31
1766015881.424664,29
1766015881.4256551,26
1766015881.4266791,29
1766015881.4276931,30
1766015881.42869,29
1766015881.4296849,29
1766015881.4307032,32
1766015881.4316878,31
1766015881.4326851,30
1766015881.433711,30
1766015881.434707,32
1766015881.4357069,34
1766015881.436705,31
1766015881.437712,29
1766015881.438709,30
1766015881.439708,31
1766015881.440716,31
1766015881.44171,33
1766015881.442733,34
1766015881.443726,33
1766015881.444705,34
1766015881.445725,31
1766015881.4467242,34
1766015881.447725,33
1766015881.44872,35
1766015881.449718,33
1766015881.450756,33
1766015881.4517472,34
1766015881.452748,34
1766015881.4537458,34
1766015881.454755,31
1766015881.4557571,32
1766015881.456717,27
1766015881.457721,32
1766015881.4587688,31
1766015881.459764,34
1766015881.460762,32
1766015881.461756,31
1766015881.462776,31
1766015881.463778,31
1766015881.464777,29
1766015881.4657679,34
1766015881.466773,33
1766015881.467791,29
1766015881.468779,33
1766015881.46979,33
1766015881.47078,31
1766015881.471811,32
1766015881.47279,29
1766015881.4737961,32
1766015881.474798,31
1766015881.475811,30
1766015881.476813,32
1766015881.477812,34
1766015881.478836,33
1766015881.4798138,34
1766015881.48081,35
1766015881.4818351,33
1766015881.482826,33
1766015881.483818,34
1766015881.48484,31
1766015881.485837,33
1766015881.486839,32
1766015881.4878578,32
1766015881.488848,32
1766015881.489852,32
1766015881.490842,34
1766015881.491842,33
1766015881.492863,34
1766015881.493856,30
1766015881.494866,35
1766015881.495876,32
1766015881.496872,32
1766015881.497879,32
1766015881.4988658,33
1766015881.499868,33
1766015881.500891,28
1766015881.5018828,31
1766015881.5028899,31
1766015881.503886,32
1766015881.504888,29
1766015881.505888,32
1766015881.506907,31
1766015881.5079029,33
1766015881.508904,34
1766015881.509902,31
1766015881.5109272,30
1766015881.511904,32
1766015881.5129118,33
1766015881.513927,33
1766015881.5149171,30
1766015881.5159261,31
1766015881.516922,30
1766015881.517952,34
1766015881.518929,33
1766015881.519934,33
1766015881.520937,28
1766015881.521944,30
1766015881.522942,31
1766015881.523947,32
1766015881.524949,34
1766015881.5259452,32
1766015881.526956,37
1766015881.527953,33
1766015881.528953,33
1766015881.529952,30
1766015881.5309691,31
1766015881.531955,32
1766015881.532959,30
1766015881.533997,33
1766015881.53507,33
1766015881.535987,31
1766015881.537073,32
1766015881.53809,31
1766015881.53899,31
1766015881.540072,31
1766015881.541075,32
1766015881.5420759,30
1766015881.543069,29
1766015881.544074,30
1766015881.545074,31
1766015881.546082,29
1766015881.5470731,31
1766015881.548059,31
1766015881.5490701,29
1766015881.550066,34
1766015881.551091,31
1766015881.552076,34
1766015881.553076,32
1766015881.5540679,32
1766015881.555073,29
1766015881.5560691,30
1766015881.557066,33
1766015881.558069,31
1766015881.559077,33
1766015881.560072,35
1766015881.561072,36
1766015881.562064,35
1766015881.5630789,31
1766015881.564069,35
1766015881.565074,36
1766015881.566071,36
1766015881.5670762,38
1766015881.568081,34
1766015881.569071,35
1766015881.5700648,37
1766015881.571074,37
1766015881.5720792,37
1766015881.573077,36
1766015881.574087,34
1766015881.575087,37
1766015881.5760908,36
1766015881.577111,33
1766015881.578092,36
1766015881.5791192,39
1766015881.580074,37
1766015881.5810938,36
1766015881.58211,35
1766015881.583102,35
1766015881.584098,35
1766015881.585114,35
1766015881.586116,37
1766015881.58713,32
1766015881.5881238,36
1766015881.58914,36
1766015881.5901241,35
1766015881.591129,35
1766015881.5921311,34
1766015881.593166,35
1766015881.594152,32
1766015881.59516,36
1766015881.5961568,34
1766015881.597147,35
1766015881.598155,40
1766015881.5991669,38
1766015881.60018,39
1766015881.601171,41
1766015881.602143,40
1766015881.603158,43
1766015881.604162,39
1766015881.605193,41
1766015881.606184,43
1766015881.60718,44
1766015881.608186,46
1766015881.609185,43
1766015881.610187,44
1766015881.611202,44
1766015881.6122,44
1766015881.6132019,45
1766015881.614199,45
1766015881.615212,42
1766015881.61621,45
1766015881.617207,44
1766015881.6182039,44
1766015881.619231,46
1766015881.620218,44
1766015881.621208,43
1766015881.62223,40
1766015881.6232278,45
1766015881.624224,44
1766015881.625247,42
1766015881.62625,45
1766015881.62724,43
1766015881.628235,43
1766015881.629267,42
1766015881.630254,43
1766015881.63125,46
1766015881.632257,44
1766015881.6332521,45
1766015881.634283,46
1766015881.63528,43
1766015881.636263,44
1766015881.637274,45
1766015881.638277,45
1766015881.639265,47
1766015881.640269,41
1766015881.641279,45
1766015881.6422899,46
1766015881.64329,46
1766015881.6442828,48
1766015881.645291,49
1766015881.646299,49
1766015881.647298,50
1766015881.6482902,51
1766015881.649315,52
1766015881.65029,50
1766015881.651299,51
1766015881.652319,56
1766015881.653315,54
1766015881.6543128,55
1766015881.655306,58
1766015881.6563141,57
1766015881.657311,55
1766015881.6583092,56
1766015881.659341,56
1766015881.660327,55
1766015881.661336,53
1766015881.662325,55
1766015881.663336,58
1766015881.66435,60
1766015881.6653361,62
1766015881.6663349,67
1766015881.6673448,66
1766015881.6683462,65
1766015881.669378,74
1766015881.67036,75
1766015881.671371,76
1766015881.6723719,78
1766015881.673358,78
1766015881.6743731,74
1766015881.675358,74
1766015881.676382,76
1766015881.677373,73
1766015881.6784031,76
1766015881.6793869,76
1766015881.6803808,74
1766015881.681382,75
1766015881.682385,74
1766015881.683394,73
1766015881.684406,72
1766015881.685398,73
1766015881.686412,73
1766015881.6874151,70
1766015881.6884081,75
1766015881.689417,74
1766015881.690419,75
1766015881.691423,73
1766015881.692446,70
1766015881.693439,72
1766015881.694425,70
1766015881.695445,71
1766015881.69645,69
1766015881.6974661,69
1766015881.698462,69
1766015881.699469,69
1766015881.700471,66
1766015881.701504,66
1766015881.702451,66
1766015881.703455,64
1766015881.7044852,66
1766015881.705476,64
1766015881.706478,66
1766015881.7074711,70
1766015881.7084649,71
1766015881.7094588,73
1766015881.710506,74
1766015881.711488,72
1766015881.712489,75
1766015881.7134879,72
1766015881.714485,71
1766015881.715488,67
1766015881.716518,70
1766015881.717536,69
1766015881.718514,68
1766015881.719498,67
1766015881.720521,69
1766015881.7215092,72
1766015881.722502,69
1766015881.723522,71
1766015881.724554,67
1766015881.725539,68
1766015881.726559,67
1766015881.72753,64
1766015881.728554,65
1766015881.729565,67
1766015881.730564,64
1766015881.731541,66
1766015881.732547,65
1766015881.733556,64
1766015881.7345421,63
1766015881.7355351,63
1766015881.736556,65
1766015881.737517,64
1766015881.738524,64
1766015881.739542,63
1766015881.7405388,63
1766015881.741536,64
1766015881.7425542,66
1766015881.7435489,68
1766015881.744556,74
1766015881.7455318,75
1766015881.7466161,72
1766015881.7476108,77
1766015881.748616,79
1766015881.749614,78
1766015881.750605,79
1766015881.751586,80
1766015881.752595,77
1766015881.753612,75
1766015881.7546072,75
1766015881.755598,74
1766015881.756605,73
1766015881.7575748,76
1766015881.758612,74
1766015881.75965,75
1766015881.760627,72
1766015881.761587,72
1766015881.762626,75
1766015881.763634,74
1766015881.764618,75
1766015881.765622,75
1766015881.76663,73
1766015881.767622,73
1766015881.7686331,72
1766015881.769622,70
1766015881.770655,73
1766015881.771637,71
1766015881.772637,74
1766015881.773612,73
1766015881.774606,75
1766015881.775614,71
1766015881.776692,70
1766015881.777647,70
1766015881.778622,70
1766015881.779653,71
1766015881.780662,69
1766015881.781674,68
1766015881.782669,69
1766015881.783672,67
1766015881.7846751,67
1766015881.785707,66
1766015881.78667,65
1766015881.787703,68
1766015881.788689,66
1766015881.789681,64
1766015881.7906828,65
1766015881.79168,64
1766015881.7926981,63
1766015881.793705,64
1766015881.794701,63
1766015881.795703,64
1766015881.796706,62
1766015881.797708,64
1766015881.798678,65
1766015881.799696,66
1766015881.800731,65
1766015881.8017359,64
1766015881.802701,64
1766015881.803723,66
1766015881.804725,67
1766015881.805723,63
1766015881.8066938,62
1766015881.80773,65
1766015881.8087418,63
1766015881.8097339,62
1766015881.810709,61
1766015881.811744,65
1766015881.812757,62
1766015881.813751,61
1766015881.814723,61
1766015881.815739,61
1766015881.816759,62
1766015881.817756,61
1766015881.81876,64
1766015881.8197792,62
1766015881.820771,60
1766015881.8217769,63
1766015881.8227751,62
1766015881.8237782,65
1766015881.8247712,62
1766015881.8257768,65
1766015881.8267891,63
1766015881.8277602,61
1766015881.828796,64
1766015881.8297868,61
1766015881.8307881,61
1766015881.831777,63
1766015881.8328068,61
1766015881.833807,60
1766015881.8348129,64
1766015881.835783,65
1766015881.836815,63
1766015881.837825,65
1766015881.838822,66
1766015881.8397949,68
1766015881.840821,66
1766015881.8418298,65
1766015881.8428311,68
1766015881.843828,68
1766015881.844831,64
1766015881.845844,67
1766015881.84686,65
1766015881.8478541,65
1766015881.848851,64
1766015881.8498628,61
1766015881.8508642,62
1766015881.851857,63
1766015881.852853,64
1766015881.8538501,62
1766015881.8548422,63
1766015881.855836,63
1766015881.8568408,63
1766015881.857833,62
1766015881.858835,61
1766015881.8598368,61
1766015881.860847,60
1766015881.861853,58
1766015881.8628511,57
1766015881.863853,59
1766015881.8648589,56
1766015881.865854,60
1766015881.866858,54
1766015881.867867,58
1766015881.8688881,55
1766015881.8699079,56
1766015881.870904,52
1766015881.871904,53
1766015881.872897,53
1766015881.87393,55
1766015881.874913,52
1766015881.875905,53
1766015881.876897,52
1766015881.8779368,53
1766015881.8788962,52
1766015881.8799329,54
1766015881.880951,52
1766015881.881957,51
1766015881.882933,50
1766015881.8839521,51
1766015881.8849459,52
1766015881.885948,54
1766015881.886917,54
1766015881.8879302,50
1766015881.8889558,50
1766015881.889971,50
1766015881.890964,48
1766015881.8919659,51
1766015881.892973,50
1766015881.893962,50
1766015881.895048,53
1766015881.8959801,50
1766015881.897065,51
1766015881.8979788,49
1766015881.899075,53
1766015881.90007,59
1766015881.901067,54
1766015881.902071,56
1766015881.9030972,59
1766015881.904077,66
1766015881.9050822,64
1766015881.906081,63
1766015881.907072,67
1766015881.908073,66
1766015881.909076,69
1766015881.910079,66
1766015881.911071,66
1766015881.912073,64
1766015881.9130712,64
1766015881.9140859,65
1766015881.9150789,62
1766015881.916074,67
1766015881.9171112,64
1766015881.918068,63
1766015881.91903,65
1766015881.9200351,63
1766015881.921078,63
1766015881.922038,62
1766015881.923062,61
1766015881.9240692,59
1766015881.925035,62
1766015881.926034,61
1766015881.92704,59
1766015881.92804,60
1766015881.929034,61
1766015881.93002,61
1766015881.9310641,62
1766015881.932121,57
1766015881.933096,57
1766015881.934035,58
1766015881.935081,61
1766015881.936102,59
1766015881.937053,55
1766015881.938078,61
1766015881.939111,60
1766015881.940109,56
1766015881.941111,59
1766015881.9421198,58
1766015881.943093,59
1766015881.9441228,62
1766015881.945076,55
1766015881.946091,57
1766015881.947118,56
1766015881.948129,59
1766015881.949119,56
1766015881.950123,55
1766015881.951136,53
1766015881.9521458,53
1766015881.953144,56
1766015881.954148,56
1766015881.955106,53
1766015881.956237,51
1766015881.957144,51
1766015881.9581661,54
1766015881.95914,51
1766015881.960143,53
1766015881.961167,51
1766015881.962167,48
1766015881.963137,52
1766015881.964148,49
1766015881.965153,50
1766015881.966175,50
1766015881.96718,51
1766015881.9681861,51
1766015881.969177,51
1766015881.970179,52
1766015881.9711769,54
1766015881.972183,52
1766015881.973182,51
1766015881.974205,51
1766015881.975212,54
1766015881.976216,53
1766015881.9772,53
1766015881.9782012,54
1766015881.979208,57
1766015881.980216,57
1766015881.981215,53
1766015881.982224,59
1766015881.983216,54
1766015881.984223,51
1766015881.985226,54
1766015881.986229,53
1766015881.9872499,52
1766015881.988221,51
1766015881.989234,52
1766015881.990243,52
1766015881.991251,50
1766015881.99226,54
1766015881.993258,53
1766015881.9942641,51
1766015881.9952698,51
1766015881.9962509,49
1766015881.9972548,50
1766015881.9982688,50
1766015881.999264,52
1766015882.0002801,49
1766015882.001261,48
1766015882.0022788,50
1766015882.00328,50
1766015882.004273,49
1766015882.005273,49
1766015882.0062962,45
1766015882.007278,48
1766015882.008286,45
1766015882.009282,48
1766015882.010311,43
1766015882.0112882,51
1766015882.012296,47
1766015882.013301,45
1766015882.014307,47
1766015882.01531,48
1766015882.0163069,48
1766015882.017329,48
1766015882.0183198,49
1766015882.019319,47
1766015882.020332,45
1766015882.0213308,47
1766015882.0223439,48
1766015882.023332,49
1766015882.024349,49
1766015882.025357,44
1766015882.026355,49
1766015882.027358,48
1766015882.028372,48
1766015882.029367,46
1766015882.0303721,47
1766015882.031363,48
1766015882.032369,47
1766015882.0333881,47
1766015882.034373,48
1766015882.035381,49
1766015882.036361,49
1766015882.037376,46
1766015882.03839,48
1766015882.039367,47
1766015882.0403662,48
1766015882.0413609,48
1766015882.042367,47
1766015882.0433621,45
1766015882.04437,47
1766015882.04537,49
1766015882.046356,46
1766015882.047359,47
1766015882.048364,45
1766015882.049383,48
1766015882.0503721,47
1766015882.051363,43
1766015882.0523882,47
1766015882.053385,46
1766015882.0543911,49
1766015882.055383,47
1766015882.0563881,48
1766015882.057379,49
1766015882.058385,50
1766015882.0593972,49
1766015882.060441,48
1766015882.061437,46
1766015882.062453,48
1766015882.063444,49
