timestamp,emg_value
1766015885.426466,57
1766015885.426485,57
1766015885.426498,58
1766015885.4265118,57
1766015885.4265249,58
1766015885.426539,55
1766015885.426552,55
1766015885.426566,54
1766015885.426582,57
1766015885.4265978,59
1766015885.426612,56
1766015885.426628,58
1766015885.426641,58
1766015885.4266539,61
1766015885.426667,59
1766015885.42668,63
1766015885.426692,60
1766015885.4267058,61
1766015885.426718,59
1766015885.426731,63
1766015885.426744,58
1766015885.4267561,61
1766015885.4267688,59
1766015885.426782,61
1766015885.426794,57
1766015885.426808,59
1766015885.4268212,58
1766015885.4268339,57
1766015885.426847,55
1766015885.426859,59
1766015885.426872,58
1766015885.4268851,57
1766015885.426906,57
1766015885.426919,53
1766015885.4269319,58
1766015885.426945,56
1766015885.426958,58
1766015885.42697,56
1766015885.4269829,55
1766015885.4270039,55
1766015885.427017,56
1766015885.42703,57
1766015885.427043,54
1766015885.4270551,53
1766015885.427068,53
1766015885.4270809,57
1766015885.427093,52
1766015885.4271061,54
1766015885.427121,52
1766015885.427135,54
1766015885.427148,52
1766015885.427161,53
1766015885.4271731,49
1766015885.427187,48
1766015885.427211,55
1766015885.427225,50
1766015885.42724,53
1766015885.4272552,50
1766015885.427267,51
1766015885.42728,50
1766015885.427296,50
1766015885.42731,47
1766015885.4273229,45
1766015885.427336,48
1766015885.42735,50
1766015885.427367,45
1766015885.427379,47
1766015885.427392,49
1766015885.427405,51
1766015885.427418,53
1766015885.42743,50
1766015885.427443,53
1766015885.427456,50
1766015885.427469,51
1766015885.4274821,51
1766015885.427495,49
1766015885.4275079,49
1766015885.4275231,47
1766015885.4275358,51
1766015885.427549,47
1766015885.427562,49
1766015885.427574,47
1766015885.427587,47
1766015885.4276,47
1766015885.427614,44
1766015885.427629,49
1766015885.427642,48
1766015885.427655,47
1766015885.4276679,46
1766015885.42768,47
1766015885.4276931,46
1766015885.427705,45
1766015885.427718,46
1766015885.427731,46
1766015885.427744,46
1766015885.427757,45
1766015885.4277701,49
1766015885.427787,47
1766015885.4278002,49
1766015885.427813,48
1766015885.427826,47
1766015885.42784,49
1766015885.427853,50
1766015885.4278662,48
1766015885.4278789,49
1766015885.427892,52
1766015885.427905,46
1766015885.427917,49
1766015885.42793,47
1766015885.427947,48
1766015885.4279602,47
1766015885.427973,49
1766015885.427986,48
1766015885.428,48
1766015885.428015,49
1766015885.4280279,47
1766015885.428042,50
1766015885.428056,45
1766015885.428069,48
1766015885.428083,50
1766015885.428098,46
1766015885.428111,46
1766015885.428123,48
1766015885.4281359,46
1766015885.428149,46
1766015885.428162,46
1766015885.4281752,51
1766015885.428187,43
1766015885.4282,48
1766015885.4282172,46
1766015885.428232,48
1766015885.428245,50
1766015885.428258,47
1766015885.428271,46
1766015885.428283,44
1766015885.4282959,47
1766015885.428309,51
1766015885.4283211,48
1766015885.428334,42
1766015885.4283469,47
1766015885.42836,46
1766015885.428373,44
1766015885.428385,46
1766015885.4283981,48
1766015885.4284108,45
1766015885.428423,47
1766015885.428437,44
1766015885.428451,45
1766015885.4284642,46
1766015885.4284768,43
1766015885.42849,43
1766015885.428502,45
1766015885.428515,43
1766015885.428528,44
1766015885.42854,46
1766015885.4285529,45
1766015885.428566,48
1766015885.428579,48
1766015885.4285939,47
1766015885.428608,46
1766015885.4286232,46
1766015885.428635,49
1766015885.4286542,48
1766015885.4286668,43
1766015885.42868,44
1766015885.4286919,45
1766015885.428705,45
1766015885.428718,45
1766015885.42873,47
1766015885.428743,49
1766015885.428756,49
1766015885.428769,49
1766015885.428781,46
1766015885.4287949,49
1766015885.428807,45
1766015885.42882,45
1766015885.428833,46
1766015885.4288461,45
1766015885.428858,45
1766015885.428871,48
1766015885.4288828,46
1766015885.428896,45
1766015885.428909,44
1766015885.428921,47
1766015885.4289339,46
1766015885.428946,44
1766015885.428959,45
1766015885.428972,46
1766015885.428985,47
1766015885.428998,45
1766015885.42901,48
1766015885.429024,48
1766015885.4290402,46
1766015885.4290528,50
1766015885.429068,52
1766015885.4290838,49
1766015885.429098,50
1766015885.429111,49
1766015885.4291232,50
1766015885.4291358,48
1766015885.429149,50
1766015885.429162,50
1766015885.429177,51
1766015885.4291909,52
1766015885.429204,49
1766015885.429216,53
1766015885.429229,52
1766015885.4292421,55
1766015885.4292538,57
1766015885.429267,52
1766015885.429287,53
1766015885.429303,53
1766015885.429316,51
1766015885.429329,52
1766015885.429342,50
1766015885.429355,52
1766015885.4293709,53
1766015885.429384,53
1766015885.429397,54
1766015885.42941,54
1766015885.4294221,52
1766015885.4294348,53
1766015885.429447,56
1766015885.42946,57
1766015885.429473,55
1766015885.429494,55
1766015885.429507,58
1766015885.429523,51
1766015885.429538,52
1766015885.4295511,55
1766015885.4295628,53
1766015885.429576,52
1766015885.429589,54
1766015885.429604,52
1766015885.429617,52
1766015885.42963,51
1766015885.429642,53
1766015885.429655,52
1766015885.4296682,55
1766015885.4296808,52
1766015885.429693,51
1766015885.429706,51
1766015885.429719,52
1766015885.4297311,51
1766015885.4297442,52
1766015885.429764,54
1766015885.429777,53
1766015885.42979,53
1766015885.429802,54
1766015885.429815,49
1766015885.4298282,52
1766015885.4298398,51
1766015885.429853,48
1766015885.429865,51
1766015885.429878,49
1766015885.429891,49
1766015885.429904,52
1766015885.4299169,48
1766015885.429933,48
1766015885.429947,45
1766015885.429964,48
1766015885.4299772,49
1766015885.4299898,45
1766015885.430003,47
1766015885.430018,51
1766015885.430031,48
1766015885.430044,48
1766015885.430059,48
1766015885.430072,47
1766015885.4300852,48
1766015885.4300978,51
1766015885.430111,49
1766015885.430122,48
1766015885.430133,49
1766015885.430144,49
1766015885.430156,47
1766015885.430167,49
1766015885.4301782,48
1766015885.4301891,49
1766015885.4302,48
1766015885.430211,47
1766015885.430222,47
1766015885.430233,48
1766015885.4302442,46
1766015885.4302552,48
1766015885.4302669,47
1766015885.4302778,45
1766015885.4302888,44
1766015885.4303,46
1766015885.430311,47
1766015885.430322,44
1766015885.430333,45
1766015885.430346,45
1766015885.430358,46
1766015885.4303691,44
1766015885.43038,43
1766015885.430391,46
1766015885.430402,45
1766015885.430413,44
1766015885.430424,47
1766015885.4304352,49
1766015885.4304461,47
1766015885.430457,47
1766015885.430469,46
1766015885.4304798,46
1766015885.430491,49
1766015885.430509,50
1766015885.430521,50
1766015885.430539,48
1766015885.4305542,46
1766015885.4305742,46
1766015885.430588,48
1766015885.4306,49
1766015885.430611,50
1766015885.4306219,50
1766015885.430633,50
1766015885.430644,52
1766015885.430656,52
1766015885.430667,50
1766015885.4306781,52
1766015885.430689,48
1766015885.4307,47
1766015885.430711,47
1766015885.430722,48
1766015885.430733,43
1766015885.430746,47
1766015885.430757,50
1766015885.430768,47
1766015885.43078,47
1766015885.430791,46
1766015885.4308019,48
1766015885.4308128,46
1766015885.430824,50
1766015885.430835,45
1766015885.430846,45
1766015885.430857,44
1766015885.430868,46
1766015885.43088,42
1766015885.430891,47
1766015885.430902,45
1766015885.4309142,44
1766015885.4309251,44
1766015885.430936,44
1766015885.430947,43
1766015885.430958,45
1766015885.430969,43
1766015885.4309802,43
1766015885.430992,42
1766015885.4310021,39
1766015885.431019,41
1766015885.431031,43
1766015885.431042,42
1766015885.4310532,42
1766015885.431065,42
1766015885.431076,44
1766015885.431087,39
1766015885.4310982,39
1766015885.4311109,41
1766015885.431123,40
1766015885.431134,42
1766015885.431145,39
1766015885.431156,40
1766015885.431167,38
1766015885.431178,43
1766015885.43119,39
1766015885.431201,36
1766015885.4312131,39
1766015885.431224,39
1766015885.431235,38
1766015885.431246,39
1766015885.4312582,37
1766015885.4312692,40
1766015885.4312801,39
1766015885.4312918,37
1766015885.431303,37
1766015885.431314,37
1766015885.431325,37
1766015885.431336,41
1766015885.431347,39
1766015885.4313579,37
1766015885.431369,38
1766015885.43138,40
1766015885.431391,37
1766015885.431402,37
1766015885.431413,34
1766015885.431424,38
1766015885.431436,37
1766015885.431447,37
1766015885.431457,37
1766015885.431468,35
1766015885.4314811,38
1766015885.431492,38
1766015885.4315038,35
1766015885.431515,35
1766015885.431526,34
1766015885.431537,33
1766015885.4315479,38
1766015885.4315588,40
1766015885.4315698,37
1766015885.431582,39
1766015885.431593,39
1766015885.431605,35
1766015885.431616,35
1766015885.431627,39
1766015885.431638,38
1766015885.431649,37
1766015885.43166,36
1766015885.4316711,36
1766015885.431682,37
1766015885.431693,37
1766015885.431704,36
1766015885.431715,35
1766015885.431726,37
1766015885.4317372,35
1766015885.431749,37
1766015885.4317598,35
1766015885.4317708,37
1766015885.4317818,36
1766015885.431793,35
1766015885.431804,38
1766015885.431815,38
1766015885.4318259,35
1766015885.43184,36
1766015885.431851,33
1766015885.431862,31
1766015885.431873,33
1766015885.431885,31
1766015885.431896,32
1766015885.4319072,32
1766015885.4319181,32
1766015885.431929,34
1766015885.43194,32
1766015885.431951,33
1766015885.431962,34
1766015885.431982,33
1766015885.431995,34
1766015885.4320068,30
1766015885.4320178,30
1766015885.432031,32
1766015885.432043,30
1766015885.432054,32
1766015885.432065,34
1766015885.432076,34
1766015885.432087,31
1766015885.4320982,31
1766015885.432109,30
1766015885.43212,31
1766015885.432131,31
1766015885.4321432,31
1766015885.4321542,33
1766015885.4321651,32
1766015885.432176,31
1766015885.4321868,31
1766015885.4321978,27
1766015885.43221,27
1766015885.432225,29
1766015885.432238,31
1766015885.43225,28
1766015885.4322612,28
1766015885.432272,29
1766015885.432286,30
1766015885.432297,27
1766015885.432309,26
1766015885.43232,29
1766015885.432331,29
1766015885.432344,28
1766015885.4323552,30
1766015885.4323661,27
1766015885.432377,26
1766015885.432388,28
1766015885.4324,26
1766015885.432411,27
1766015885.432422,29
1766015885.432433,26
1766015885.4324439,28
1766015885.432456,26
1766015885.432467,28
1766015885.432478,28
1766015885.432491,30
1766015885.432502,26
1766015885.432514,29
1766015885.4325252,28
1766015885.4325361,26
1766015885.432547,25
1766015885.432618,28
1766015885.4326332,27
1766015885.432645,26
1766015885.432659,29
1766015885.432671,27
1766015885.432683,26
1766015885.432694,25
1766015885.432705,27
1766015885.4327161,26
1766015885.432728,29
1766015885.432739,26
1766015885.43275,27
1766015885.4327621,26
1766015885.432773,27
1766015885.4327838,25
1766015885.432796,23
1766015885.432808,26
1766015885.432819,26
1766015885.432831,25
1766015885.432842,27
1766015885.432853,26
1766015885.432864,28
1766015885.432875,26
1766015885.4328861,24
1766015885.432898,24
1766015885.432909,25
1766015885.43292,27
1766015885.432933,23
1766015885.432944,26
1766015885.4329548,26
1766015885.432966,27
1766015885.432978,24
1766015885.4329898,25
1766015885.4330082,24
1766015885.433019,27
1766015885.433059,26
1766015885.433078,25
1766015885.433095,24
1766015885.433107,26
1766015885.4331179,25
1766015885.43313,24
1766015885.433141,26
1766015885.433152,25
1766015885.433163,25
1766015885.433175,25
1766015885.433186,26
1766015885.433197,23
1766015885.433208,27
1766015885.4332201,22
1766015885.433231,22
1766015885.433242,26
1766015885.433253,22
1766015885.433265,22
1766015885.433276,23
1766015885.433287,23
1766015885.4332979,24
1766015885.4333088,25
1766015885.43332,23
1766015885.433331,26
1766015885.433343,25
1766015885.433355,24
1766015885.433366,23
1766015885.433377,23
1766015885.433388,22
1766015885.433399,26
1766015885.43341,25
1766015885.433422,25
1766015885.433434,26
1766015885.433446,21
1766015885.433459,24
1766015885.43347,23
1766015885.433481,25
1766015885.433493,26
1766015885.433504,26
1766015885.433515,26
1766015885.433526,27
1766015885.433537,24
1766015885.433548,25
1766015885.4335601,22
1766015885.433571,22
1766015885.433582,22
1766015885.433593,26
1766015885.4336052,23
1766015885.433616,28
1766015885.433627,23
1766015885.4336379,23
1766015885.43365,26
1766015885.433661,27
1766015885.433672,25
1766015885.433683,22
1766015885.433695,24
1766015885.433706,25
1766015885.433717,23
1766015885.433729,23
1766015885.433741,25
1766015885.433752,25
1766015885.433763,25
1766015885.4337752,28
1766015885.4337862,25
1766015885.4337971,24
1766015885.4338088,24
1766015885.433822,26
1766015885.433833,24
1766015885.4338439,26
1766015885.433855,24
1766015885.433866,22
1766015885.433877,24
1766015885.433888,25
1766015885.433899,23
1766015885.4339142,26
1766015885.4339259,26
1766015885.43394,25
1766015885.433951,24
1766015885.4339619,23
1766015885.4339762,23
1766015885.433989,26
1766015885.4340029,22
1766015885.434015,25
1766015885.434025,25
1766015885.434037,24
1766015885.4340491,21
1766015885.434058,25
1766015885.434069,25
1766015885.434079,27
1766015885.434089,24
1766015885.434099,27
1766015885.434109,22
1766015885.43412,25
1766015885.43413,25
1766015885.43414,26
1766015885.434151,25
1766015885.434162,22
1766015885.434174,25
1766015885.434187,23
1766015885.434197,23
1766015885.434208,25
1766015885.434217,24
1766015885.434227,24
1766015885.434237,27
1766015885.434247,24
1766015885.4342568,22
1766015885.4342668,23
1766015885.434277,23
1766015885.434287,25
1766015885.4342961,22
1766015885.4343061,22
1766015885.434317,25
1766015885.434326,22
1766015885.434336,26
1766015885.434346,24
1766015885.434356,25
1766015885.434366,24
1766015885.434376,25
1766015885.434386,21
1766015885.4343958,23
1766015885.4344058,23
1766015885.434416,25
1766015885.434426,23
1766015885.434436,25
1766015885.434446,24
1766015885.434456,23
1766015885.4344661,24
1766015885.4344761,22
1766015885.434486,23
1766015885.434496,26
1766015885.434506,24
1766015885.434517,22
1766015885.434527,25
1766015885.434537,22
1766015885.434548,25
1766015885.4345589,26
1766015885.434569,25
1766015885.434579,23
1766015885.434589,24
1766015885.434599,22
1766015885.434609,25
1766015885.434619,26
1766015885.434628,25
1766015885.4346392,21
1766015885.434649,23
1766015885.434658,27
1766015885.434669,26
1766015885.434679,23
1766015885.434689,23
1766015885.434699,26
1766015885.434709,23
1766015885.434719,22
1766015885.4347289,24
1766015885.4347389,24
1766015885.4347498,24
1766015885.4347599,24
1766015885.4347699,25
1766015885.43478,25
1766015885.4347908,24
1766015885.4348009,22
1766015885.4348109,27
1766015885.4348211,22
1766015885.4348311,23
1766015885.4348412,26
1766015885.434853,26
1766015885.434863,23
1766015885.434873,23
1766015885.434883,24
1766015885.434894,25
1766015885.434904,22
1766015885.434913,20
1766015885.434923,24
1766015885.434933,22
1766015885.434943,24
1766015885.434953,21
1766015885.434963,26
1766015885.434973,24
1766015885.434983,21
1766015885.4349928,24
1766015885.4350028,21
1766015885.435018,26
1766015885.435029,23
1766015885.435039,24
1766015885.435049,25
1766015885.4350588,21
1766015885.435068,25
1766015885.435078,23
1766015885.435088,25
1766015885.4350982,24
1766015885.4351082,25
1766015885.4351182,23
1766015885.435128,25
1766015885.435138,27
1766015885.435148,24
1766015885.435158,23
1766015885.435168,24
1766015885.435179,24
1766015885.435189,23
1766015885.435199,21
1766015885.435209,20
1766015885.435219,22
1766015885.4352288,22
1766015885.4352388,20
1766015885.4352489,24
1766015885.4352589,23
1766015885.435269,21
1766015885.4352782,24
1766015885.4352891,22
1766015885.4352992,22
1766015885.4353092,22
1766015885.435318,23
1766015885.435328,25
1766015885.435338,24
1766015885.435348,22
1766015885.435359,22
1766015885.435369,19
1766015885.435379,22
1766015885.4353878,24
1766015885.4353979,22
1766015885.4354079,22
1766015885.4354181,24
1766015885.435431,23
1766015885.4354408,24
1766015885.4354508,25
1766015885.435461,23
1766015885.435471,23
1766015885.435481,18
1766015885.435491,23
1766015885.4355001,22
1766015885.435512,22
1766015885.435522,23
1766015885.43554,26
1766015885.435551,24
1766015885.435563,23
1766015885.435574,26
1766015885.435584,25
1766015885.435594,21
1766015885.435606,22
1766015885.4356182,24
1766015885.435628,25
1766015885.435638,25
1766015885.435648,24
1766015885.435659,25
1766015885.435669,26
1766015885.435678,22
1766015885.435688,24
1766015885.435698,25
1766015885.4357078,22
1766015885.4357178,23
1766015885.4357278,23
1766015885.435738,23
1766015885.435748,21
1766015885.4357572,24
1766015885.435767,25
1766015885.4357781,20
1766015885.435787,26
1766015885.435797,21
1766015885.435807,25
1766015885.435817,22
1766015885.435827,24
1766015885.435837,23
1766015885.435848,23
1766015885.435859,23
1766015885.4358678,22
1766015885.4358778,22
1766015885.435888,24
1766015885.435898,21
1766015885.435908,22
1766015885.435918,24
1766015885.43593,25
1766015885.435942,23
1766015885.436028,24
1766015885.436047,24
1766015885.43606,23
1766015885.436073,26
1766015885.436086,24
1766015885.436099,22
1766015885.4361112,24
1766015885.4361238,24
1766015885.436136,25
1766015885.436149,23
1766015885.436162,25
1766015885.4361742,24
1766015885.436186,24
1766015885.436199,22
1766015885.4362109,23
1766015885.436224,23
1766015885.4362361,23
1766015885.436249,19
1766015885.4362612,21
1766015885.4362738,23
1766015885.436286,20
1766015885.436299,25
1766015885.436311,21
1766015885.436329,24
1766015885.436342,23
1766015885.436359,21
1766015885.436372,24
1766015885.436384,21
1766015885.436397,24
1766015885.436409,21
1766015885.4364219,25
1766015885.436435,21
1766015885.436447,21
1766015885.436459,23
1766015885.4364722,20
1766015885.436484,20
1766015885.436497,20
1766015885.4365098,22
1766015885.436523,23
1766015885.4365351,23
1766015885.436548,22
1766015885.4365609,24
1766015885.436573,21
1766015885.436585,21
1766015885.436598,24
1766015885.43661,20
1766015885.436623,22
1766015885.4366348,21
1766015885.436648,23
1766015885.43666,20
1766015885.436673,22
1766015885.436686,20
1766015885.4366982,21
1766015885.43671,23
1766015885.436723,23
1766015885.436739,23
1766015885.436755,23
1766015885.436768,23
1766015885.4367812,23
1766015885.436793,24
1766015885.436805,24
1766015885.436818,21
1766015885.43683,20
1766015885.436843,21
1766015885.436855,20
1766015885.4368682,22
1766015885.4368799,22
1766015885.436893,21
1766015885.436905,22
1766015885.436918,24
1766015885.43693,24
1766015885.436945,24
1766015885.4369578,22
1766015885.43697,21
1766015885.436982,25
1766015885.436995,24
1766015885.4370072,20
1766015885.4370198,25
1766015885.437032,21
1766015885.437045,24
1766015885.437057,20
1766015885.4370701,21
1766015885.437082,21
1766015885.437094,23
1766015885.4371068,22
1766015885.437119,21
1766015885.4371321,23
1766015885.437144,23
1766015885.4371588,22
1766015885.437176,22
1766015885.4371881,26
1766015885.4372008,23
1766015885.437213,24
1766015885.437226,20
1766015885.437238,22
1766015885.437251,23
1766015885.437263,24
1766015885.437275,25
1766015885.437288,21
1766015885.4373,20
1766015885.437313,21
1766015885.437325,23
1766015885.437338,23
1766015885.4373498,21
1766015885.437363,22
1766015885.437375,23
1766015885.437387,21
1766015885.4374,21
1766015885.437412,24
1766015885.4374242,23
1766015885.4374368,20
1766015885.437449,21
1766015885.437462,22
1766015885.437475,22
1766015885.4374871,22
1766015885.4375,20
1766015885.437512,20
1766015885.437525,21
1766015885.437537,23
1766015885.43755,21
1766015885.4375622,21
1766015885.437577,23
1766015885.437593,26
1766015885.4376059,22
1766015885.437618,22
1766015885.437631,22
1766015885.437643,21
1766015885.4376562,23
1766015885.437668,23
1766015885.4376802,20
1766015885.4376929,21
1766015885.437705,23
1766015885.437717,21
1766015885.43773,23
1766015885.437742,22
1766015885.4377549,19
1766015885.437768,24
1766015885.43778,22
1766015885.437792,21
1766015885.437805,22
1766015885.437817,25
1766015885.43783,25
1766015885.437842,21
1766015885.437854,22
1766015885.437867,23
1766015885.437879,24
1766015885.4378922,22
1766015885.437904,21
1766015885.4379158,21
1766015885.437929,23
1766015885.437941,23
1766015885.437954,23
1766015885.437966,23
1766015885.437978,20
1766015885.437994,23
1766015885.438009,20
1766015885.4380212,20
1766015885.4380338,24
1766015885.438046,20
1766015885.438059,22
1766015885.438071,24
1766015885.4380841,23
1766015885.438097,21
1766015885.438109,23
1766015885.4381208,21
1766015885.438134,25
1766015885.438146,22
1766015885.438159,23
1766015885.4381719,21
1766015885.438184,20
1766015885.438197,21
1766015885.438209,22
1766015885.4382222,22
1766015885.438234,21
1766015885.438247,21
1766015885.438259,22
1766015885.438272,24
1766015885.4383051,22
1766015885.438318,20
1766015885.4383302,21
1766015885.4383428,22
1766015885.438356,23
1766015885.438369,19
1766015885.4383821,25
1766015885.4383948,22
1766015885.438407,23
1766015885.4384189,20
1766015885.438432,25
1766015885.4384441,21
1766015885.438457,20
1766015885.4384692,22
1766015885.4384818,22
1766015885.438494,22
1766015885.438506,20
1766015885.438519,21
1766015885.4385312,21
1766015885.4385438,24
1766015885.438556,23
1766015885.4385679,24
1766015885.438581,22
1766015885.438593,21
1766015885.438606,22
1766015885.4386182,22
1766015885.4386299,21
1766015885.438643,20
1766015885.438655,25
1766015885.438668,21
1766015885.4386802,24
1766015885.438692,22
1766015885.438705,21
1766015885.438717,21
1766015885.43873,23
1766015885.438742,22
1766015885.438755,23
1766015885.4387672,22
1766015885.4387789,20
1766015885.4387908,22
1766015885.438804,24
1766015885.438816,19
1766015885.438828,21
1766015885.438841,19
1766015885.438853,21
1766015885.438865,22
1766015885.438878,22
1766015885.43889,20
1766015885.438903,22
1766015885.438915,20
1766015885.438928,20
1766015885.4389398,23
1766015885.438953,20
1766015885.438965,25
1766015885.438977,22
1766015885.43899,23
1766015885.439002,21
1766015885.439015,25
1766015885.4390268,20
1766015885.43904,23
1766015885.439053,19
1766015885.439065,22
1766015885.4390779,23
1766015885.439091,25
1766015885.439103,20
1766015885.439115,20
1766015885.4391282,23
1766015885.43914,22
1766015885.4391522,22
1766015885.439164,24
1766015885.439177,22
1766015885.439189,22
1766015885.439201,23
1766015885.439213,20
1766015885.4392262,21
1766015885.4392378,22
1766015885.439251,21
1766015885.4392629,22
1766015885.439276,24
1766015885.4392881,20
1766015885.4393,25
1766015885.439313,22
1766015885.4393249,21
1766015885.439338,22
1766015885.4393501,23
1766015885.439362,22
1766015885.4393752,21
1766015885.4393868,20
1766015885.439399,22
1766015885.4394119,21
1766015885.439424,24
1766015885.4394372,21
1766015885.439449,18
1766015885.439462,22
1766015885.4394739,20
1766015885.439496,22
1766015885.439509,22
1766015885.439521,24
1766015885.4395342,21
1766015885.439546,21
1766015885.439559,23
1766015885.439571,20
1766015885.439585,23
1766015885.439598,22
1766015885.43961,22
1766015885.4396229,21
1766015885.439635,21
1766015885.439647,22
1766015885.43966,25
1766015885.439672,22
1766015885.439685,23
1766015885.4396968,21
1766015885.439709,23
1766015885.439722,23
1766015885.439734,22
1766015885.4397461,17
1766015885.439759,22
1766015885.439771,22
1766015885.439784,20
1766015885.439796,20
1766015885.439808,23
1766015885.439821,21
1766015885.4398332,21
1766015885.4398458,23
1766015885.439858,21
1766015885.439871,24
1766015885.439883,22
1766015885.439896,19
1766015885.439908,18
1766015885.439921,21
1766015885.4399328,21
1766015885.439946,23
1766015885.439957,21
1766015885.439967,23
1766015885.439978,20
1766015885.439988,23
1766015885.4399989,19
1766015885.4400089,21
1766015885.44002,19
1766015885.440042,21
1766015885.440052,22
1766015885.440063,20
1766015885.440073,22
1766015885.440084,20
1766015885.440094,22
1766015885.440105,21
1766015885.440115,23
1766015885.440126,21
1766015885.440137,23
1766015885.440147,22
1766015885.440157,22
1766015885.440168,25
1766015885.440178,24
1766015885.440189,25
1766015885.440199,24
1766015885.4402099,24
1766015885.4402199,21
1766015885.4402308,24
1766015885.4402409,21
1766015885.4402509,22
1766015885.4402618,21
1766015885.4402728,22
1766015885.4402828,25
1766015885.440293,23
1766015885.440304,24
1766015885.440314,22
1766015885.440325,24
1766015885.440335,23
1766015885.440346,24
1766015885.440356,24
1766015885.440366,23
1766015885.440377,22
1766015885.440387,24
1766015885.440398,25
1766015885.440408,26
1766015885.440418,23
1766015885.440429,22
1766015885.440439,25
1766015885.44045,20
1766015885.44046,23
1766015885.440471,24
1766015885.440481,20
1766015885.440492,26
1766015885.440502,23
1766015885.440512,22
1766015885.440523,24
1766015885.440533,23
1766015885.440544,25
1766015885.440554,24
1766015885.440565,26
1766015885.440575,23
1766015885.440585,26
1766015885.4405959,23
1766015885.4406059,25
1766015885.4406168,24
1766015885.440628,24
1766015885.440638,25
1766015885.440649,26
1766015885.440659,25
1766015885.44067,26
1766015885.440681,24
1766015885.440691,21
1766015885.440702,25
1766015885.440713,25
1766015885.440723,22
1766015885.440734,23
1766015885.440744,23
1766015885.440755,25
1766015885.440765,26
1766015885.440775,24
1766015885.440786,21
1766015885.440796,25
1766015885.440806,23
1766015885.4408169,24
1766015885.4408278,23
1766015885.4408379,20
1766015885.441108,25
1766015885.442114,25
1766015885.443108,27
1766015885.4441018,27
1766015885.4450948,24
1766015885.446134,21
1766015885.4472,27
1766015885.448153,22
1766015885.44913,22
1766015885.450114,25
1766015885.451205,24
1766015885.4521332,21
1766015885.4531589,24
1766015885.454159,26
1766015885.455179,24
1766015885.45616,24
1766015885.4571662,24
1766015885.458142,25
1766015885.459202,25
1766015885.460174,26
1766015885.461202,24
1766015885.462206,27
1766015885.463209,27
1766015885.4642,25
1766015885.465191,25
1766015885.466156,24
1766015885.467214,26
1766015885.468268,29
1766015885.469224,25
1766015885.470183,27
1766015885.471206,28
1766015885.4721909,25
1766015885.473191,24
1766015885.474196,27
1766015885.475219,26
1766015885.4762418,25
1766015885.4772139,26
1766015885.4782422,28
1766015885.479203,27
1766015885.480204,27
1766015885.481206,22
1766015885.482216,22
1766015885.483217,25
1766015885.4842172,27
1766015885.485227,24
1766015885.486214,27
1766015885.487224,26
1766015885.488218,26
1766015885.489213,24
1766015885.4902358,26
1766015885.4912388,26
1766015885.4922829,26
1766015885.4932249,29
1766015885.494227,24
1766015885.495255,26
1766015885.496277,25
1766015885.4972239,25
1766015885.498255,27
1766015885.499269,25
1766015885.500263,22
1766015885.5012648,28
1766015885.502233,25
1766015885.503274,24
1766015885.504256,24
1766015885.5052538,23
1766015885.5062761,26
1766015885.507266,26
1766015885.508279,26
1766015885.5092669,28
1766015885.5102751,28
1766015885.511285,25
1766015885.512265,27
1766015885.5132852,23
1766015885.514307,26
1766015885.515292,26
1766015885.516302,24
1766015885.51733,25
1766015885.518334,24
1766015885.5193112,23
1766015885.520303,25
1766015885.5213661,25
1766015885.522398,27
1766015885.523366,23
1766015885.524365,23
1766015885.5253482,25
1766015885.526349,27
1766015885.527363,27
1766015885.5283551,26
1766015885.529366,28
1766015885.5304089,28
1766015885.5313878,23
1766015885.532379,26
1766015885.5333838,24
1766015885.534367,23
1766015885.53538,24
1766015885.536427,27
1766015885.537457,26
1766015885.538431,21
1766015885.5394182,25
1766015885.540415,25
1766015885.54142,27
1766015885.542418,23
1766015885.543417,26
1766015885.5444171,27
1766015885.5454268,26
1766015885.54645,25
1766015885.547463,24
1766015885.5484202,26
1766015885.549403,26
1766015885.550441,24
1766015885.551435,25
1766015885.5524411,26
1766015885.553418,29
1766015885.554514,27
1766015885.5554829,22
1766015885.556454,22
1766015885.557483,23
1766015885.5584798,25
1766015885.559437,29
1766015885.560477,26
1766015885.5614731,26
1766015885.562421,26
1766015885.563468,23
1766015885.56448,27
1766015885.5654762,26
1766015885.566496,25
1766015885.567484,28
1766015885.568498,24
1766015885.569525,23
1766015885.570443,24
1766015885.5715258,27
1766015885.572504,24
1766015885.573496,25
1766015885.5745,28
1766015885.575499,26
1766015885.5765388,26
1766015885.577525,24
1766015885.578481,26
1766015885.579542,27
1766015885.5805252,27
1766015885.581506,26
1766015885.582535,27
1766015885.583532,27
1766015885.5845308,24
1766015885.585533,25
1766015885.586515,28
1766015885.587601,25
1766015885.5885508,26
1766015885.589563,26
1766015885.590553,26
1766015885.591549,27
1766015885.592565,26
1766015885.593565,25
1766015885.594581,28
1766015885.5955799,24
1766015885.596571,25
1766015885.597569,26
1766015885.598581,23
1766015885.599595,25
1766015885.600586,26
1766015885.601595,25
1766015885.602599,23
1766015885.603561,28
1766015885.604618,23
1766015885.605609,22
1766015885.606604,27
1766015885.607636,23
1766015885.608626,25
1766015885.6096199,22
1766015885.610615,24
1766015885.611626,26
1766015885.6126888,25
1766015885.6136398,25
1766015885.614645,22
1766015885.615637,26
1766015885.6166432,26
1766015885.617645,23
1766015885.618639,25
1766015885.6196501,27
1766015885.6206222,24
1766015885.6216471,25
1766015885.622626,27
1766015885.62366,28
1766015885.624684,24
1766015885.625661,27
1766015885.626647,25
1766015885.62766,28
1766015885.628629,28
1766015885.629672,29
1766015885.630683,27
1766015885.6316779,26
1766015885.6326988,28
1766015885.633705,32
1766015885.634666,29
1766015885.6356852,32
1766015885.636663,31
1766015885.637665,28
1766015885.638695,30
1766015885.639692,33
1766015885.640702,33
1766015885.641705,34
1766015885.6427038,38
1766015885.643714,38
1766015885.644702,38
1766015885.645749,36
1766015885.6467462,38
1766015885.6477199,41
1766015885.6487198,42
1766015885.649733,41
1766015885.650742,41
1766015885.651731,41
1766015885.652728,37
1766015885.653711,39
1766015885.654777,41
1766015885.655753,39
1766015885.6567302,38
1766015885.657753,40
1766015885.658756,40
1766015885.659743,38
1766015885.6607502,39
1766015885.661742,39
1766015885.662795,41
1766015885.663774,43
1766015885.664762,41
1766015885.66582,43
1766015885.666841,45
1766015885.6678028,42
1766015885.668763,46
1766015885.6697972,42
1766015885.6707342,45
1766015885.671822,47
1766015885.672796,42
1766015885.6737978,43
1766015885.6748102,44
1766015885.675765,45
1766015885.6767738,47
1766015885.677808,45
1766015885.6787488,43
1766015885.6797729,46
1766015885.680806,44
1766015885.681839,46
1766015885.682848,44
1766015885.6838,45
1766015885.68481,46
1766015885.685809,44
1766015885.6867762,44
1766015885.687787,45
1766015885.688831,45
1766015885.689833,43
1766015885.690847,42
1766015885.691819,42
1766015885.6928089,43
1766015885.6938071,41
1766015885.694824,43
1766015885.6958048,43
1766015885.6968489,40
1766015885.697844,40
1766015885.698862,43
1766015885.699877,40
1766015885.7008882,41
1766015885.701855,41
1766015885.702847,43
1766015885.703837,41
1766015885.7048671,43
1766015885.705873,43
1766015885.7068841,42
1766015885.707885,39
1766015885.708887,44
1766015885.7098932,46
1766015885.7108521,42
1766015885.7118652,43
1766015885.712896,44
1766015885.7139,41
1766015885.71491,41
1766015885.7159228,41
1766015885.716946,39
1766015885.7179048,43
1766015885.718889,40
1766015885.719893,42
1766015885.720917,43
1766015885.721928,43
1766015885.722924,41
1766015885.723938,42
1766015885.7249331,41
1766015885.725951,41
1766015885.7269409,42
1766015885.727941,41
1766015885.728968,43
1766015885.729963,43
1766015885.730962,44
1766015885.73197,44
1766015885.7329721,43
1766015885.733959,46
1766015885.7349582,43
1766015885.735978,42
1766015885.736964,41
1766015885.737976,39
1766015885.738972,43
1766015885.7399712,44
1766015885.740986,45
1766015885.7420712,42
1766015885.743076,44
1766015885.744073,43
1766015885.745074,45
1766015885.7460601,47
1766015885.747066,44
1766015885.7480588,44
1766015885.749077,47
1766015885.7500741,43
1766015885.751067,43
1766015885.752071,47
1766015885.753067,44
1766015885.754067,43
1766015885.7550678,45
1766015885.756062,43
1766015885.75706,46
1766015885.758074,44
1766015885.759069,46
1766015885.7600682,46
1766015885.761059,47
1766015885.762063,43
1766015885.763068,44
1766015885.764052,42
1766015885.765066,42
1766015885.766072,45
1766015885.767078,45
1766015885.768091,44
1766015885.769067,44
1766015885.7700942,45
1766015885.771084,48
1766015885.7720718,49
1766015885.773063,49
1766015885.774088,49
1766015885.775093,50
1766015885.776093,49
1766015885.777108,51
1766015885.778102,52
1766015885.779113,50
1766015885.780117,51
1766015885.7810938,50
1766015885.782114,53
1766015885.783112,51
1766015885.784137,49
1766015885.7851222,53
1766015885.786112,50
1766015885.787128,51
1766015885.788131,48
1766015885.789139,49
1766015885.7901251,48
1766015885.791122,49
1766015885.7921238,52
1766015885.793122,52
1766015885.794135,52
1766015885.795155,54
1766015885.7961369,51
1766015885.797146,55
1766015885.798136,54
1766015885.79917,53
1766015885.80015,54
1766015885.801156,52
1766015885.802156,54
1766015885.8031712,55
1766015885.804158,55
1766015885.805186,53
1766015885.806156,55
1766015885.807153,53
1766015885.808191,52
1766015885.809182,52
1766015885.810169,50
1766015885.811168,53
1766015885.812178,52
1766015885.8131762,51
1766015885.814193,51
1766015885.8151948,55
1766015885.8161962,54
1766015885.817194,53
1766015885.81818,52
1766015885.819194,50
1766015885.820191,51
1766015885.821205,52
1766015885.8222258,48
1766015885.8232021,50
1766015885.824245,49
1766015885.8252292,51
1766015885.826228,47
1766015885.827225,49
1766015885.828226,52
1766015885.829237,49
1766015885.830236,51
1766015885.831239,51
1766015885.832236,47
1766015885.8332312,50
1766015885.834244,49
1766015885.835239,50
1766015885.836252,48
1766015885.8372412,51
1766015885.838258,50
1766015885.839241,48
1766015885.8402429,48
1766015885.841242,50
1766015885.842268,51
1766015885.843266,49
1766015885.844277,50
1766015885.845284,48
1766015885.8462741,49
1766015885.847287,52
1766015885.848264,50
1766015885.849292,50
1766015885.850278,46
1766015885.851291,50
1766015885.852273,50
1766015885.853296,49
1766015885.854293,50
1766015885.855296,49
1766015885.856301,49
1766015885.8572989,48
1766015885.858303,52
1766015885.859319,47
1766015885.8603232,51
1766015885.861326,49
1766015885.862335,52
1766015885.8633118,53
1766015885.864324,56
1766015885.8653178,54
1766015885.866323,52
1766015885.8673432,54
1766015885.868345,55
1766015885.8693671,52
1766015885.8703308,55
1766015885.871338,53
1766015885.872363,51
1766015885.873346,51
1766015885.874364,51
1766015885.8753579,52
1766015885.876388,51
1766015885.877364,52
1766015885.878349,49
1766015885.879355,53
1766015885.880376,54
1766015885.881391,55
1766015885.882379,53
1766015885.88338,56
1766015885.884396,55
1766015885.8853881,57
1766015885.886391,55
1766015885.8873951,56
1766015885.888412,57
1766015885.8893921,54
1766015885.890387,57
1766015885.8913898,55
1766015885.892406,53
1766015885.893413,54
1766015885.8943942,55
1766015885.8954089,58
1766015885.896416,58
1766015885.897426,56
1766015885.8984241,59
1766015885.899422,62
1766015885.9004228,62
1766015885.901417,60
1766015885.902447,65
1766015885.903463,66
1766015885.9044669,66
1766015885.9054499,67
1766015885.906454,62
1766015885.9074519,63
1766015885.9084532,66
1766015885.909454,66
1766015885.910516,65
1766015885.911505,61
1766015885.9124658,63
1766015885.913492,61
1766015885.9144561,64
1766015885.9154508,59
1766015885.916477,59
1766015885.917482,61
1766015885.918487,60
1766015885.919481,57
1766015885.920507,56
1766015885.92149,56
1766015885.922483,58
1766015885.923504,56
1766015885.924515,54
1766015885.925505,56
1766015885.926516,56
1766015885.927556,54
1766015885.928552,54
1766015885.929572,56
1766015885.930565,55
1766015885.9315572,54
1766015885.932543,57
1766015885.933537,57
1766015885.934529,57
1766015885.935539,57
1766015885.936524,57
1766015885.9375098,57
1766015885.9385228,60
1766015885.939552,57
1766015885.9405499,56
1766015885.941545,59
1766015885.942552,58
1766015885.9435678,56
1766015885.944538,56
1766015885.945534,57
1766015885.9465768,59
1766015885.947547,56
1766015885.948556,57
1766015885.949558,53
1766015885.950571,54
1766015885.9515772,55
1766015885.952567,54
1766015885.953609,58
1766015885.954581,57
1766015885.95558,54
1766015885.9565928,54
1766015885.9575958,54
1766015885.9586072,51
1766015885.959606,56
1766015885.960603,57
1766015885.9616032,55
1766015885.962662,52
1766015885.963614,53
1766015885.964638,52
1766015885.965591,51
1766015885.9665852,55
1766015885.967623,55
1766015885.9686038,52
1766015885.969617,52
1766015885.970638,53
1766015885.971624,52
1766015885.97264,51
1766015885.97362,51
1766015885.974648,50
1766015885.975688,51
1766015885.976722,55
1766015885.977653,53
1766015885.978682,53
1766015885.979667,54
1766015885.980644,56
1766015885.9816551,55
1766015885.9826639,55
1766015885.9836748,56
1766015885.984661,53
1766015885.9856598,56
1766015885.9866781,54
1766015885.98766,54
1766015885.988647,55
1766015885.9896479,54
1766015885.9906712,55
1766015885.9916658,58
1766015885.9927151,62
1766015885.993674,62
1766015885.994668,64
1766015885.995765,64
1766015885.996772,64
1766015885.997702,63
1766015885.998698,64
1766015885.999705,63
1766015886.000756,65
1766015886.001754,63
1766015886.0027268,61
1766015886.0037289,61
1766015886.004735,60
1766015886.0057049,60
1766015886.006742,63
1766015886.007759,59
1766015886.0087411,59
1766015886.00973,59
1766015886.0107572,59
1766015886.0117671,58
1766015886.012762,60
1766015886.0137641,61
1766015886.0147579,60
1766015886.015759,61
1766015886.0167549,64
1766015886.017803,63
1766015886.018751,61
1766015886.0197601,61
1766015886.020757,60
1766015886.021795,59
1766015886.0227818,59
1766015886.023765,60
1766015886.0247738,60
1766015886.02578,57
1766015886.026768,58
1766015886.0278049,59
1766015886.028807,58
1766015886.0297642,57
1766015886.0308092,60
1766015886.031809,61
1766015886.0328262,62
1766015886.033798,61
1766015886.034795,61
1766015886.035796,62
1766015886.036799,59
1766015886.037805,60
1766015886.038805,62
1766015886.039841,60
1766015886.040842,60
1766015886.0418408,60
1766015886.04284,59
1766015886.043861,63
1766015886.0448442,66
1766015886.04585,68
1766015886.046846,67
1766015886.047872,67
1766015886.0488691,67
1766015886.0498612,66
1766015886.05087,67
1766015886.051893,68
1766015886.052873,68
1766015886.0538611,66
1766015886.054862,63
1766015886.055882,63
1766015886.056854,67
1766015886.057889,62
1766015886.0588841,60
1766015886.0598679,62
1766015886.0608718,63
1766015886.061891,61
1766015886.062925,63
1766015886.0638878,60
1766015886.064904,61
1766015886.065923,59
1766015886.066931,59
1766015886.0679302,60
1766015886.0689359,61
1766015886.0699542,58
1766015886.070935,58
1766015886.071959,60
1766015886.0729442,59
1766015886.07395,56
1766015886.07495,56
1766015886.075935,56
1766015886.076961,56
1766015886.077923,59
1766015886.078943,56
1766015886.0799491,55
1766015886.080935,57
1766015886.081978,54
1766015886.082962,55
1766015886.083955,57
1766015886.08497,58
1766015886.085963,57
1766015886.086962,60
1766015886.087981,58
1766015886.0889668,57
1766015886.090058,60
1766015886.090967,58
1766015886.091977,58
1766015886.093065,59
1766015886.0940642,56
1766015886.095071,56
1766015886.096061,54
1766015886.097065,56
1766015886.0980532,53
1766015886.099023,54
1766015886.100024,54
1766015886.101026,55
1766015886.1020648,53
1766015886.103076,56
1766015886.104049,53
1766015886.105057,57
1766015886.106059,54
1766015886.1070569,51
1766015886.108055,53
1766015886.109056,50
1766015886.1100569,54
1766015886.111077,53
1766015886.1120489,55
1766015886.11306,54
1766015886.114063,56
1766015886.115056,56
1766015886.1160572,58
1766015886.117065,57
1766015886.118059,57
1766015886.119039,57
1766015886.1200588,53
1766015886.1210759,55
1766015886.122077,54
1766015886.123032,56
1766015886.124032,55
1766015886.125023,55
1766015886.126037,57
1766015886.1270301,52
1766015886.128038,53
1766015886.129041,55
1766015886.130048,56
1766015886.131047,56
1766015886.132052,56
1766015886.133038,54
1766015886.134055,54
1766015886.135062,55
1766015886.136061,51
1766015886.137063,55
1766015886.1380732,54
1766015886.139112,53
1766015886.140096,53
1766015886.1410959,51
1766015886.142109,50
1766015886.1431339,51
1766015886.144094,53
1766015886.145091,56
1766015886.1461198,54
1766015886.1471438,51
1766015886.148132,53
1766015886.1491451,52
1766015886.1501539,53
1766015886.1511302,53
1766015886.152145,49
1766015886.153143,52
1766015886.154133,52
1766015886.1551511,51
1766015886.15613,49
1766015886.157172,49
1766015886.158154,49
1766015886.159161,51
1766015886.160178,55
1766015886.161184,49
1766015886.162188,52
1766015886.1631842,53
1766015886.164191,51
1766015886.1651819,53
1766015886.1661792,50
1766015886.167207,53
1766015886.1681962,50
1766015886.1691961,52
1766015886.170186,51
1766015886.1711879,54
1766015886.1722062,53
1766015886.173198,51
1766015886.1742132,50
1766015886.175213,52
1766015886.1762161,51
1766015886.177241,52
1766015886.178219,51
1766015886.1792388,54
1766015886.180223,52
1766015886.181259,52
1766015886.182247,53
1766015886.183279,51
1766015886.184245,54
1766015886.185261,51
1766015886.186244,51
1766015886.1873121,50
1766015886.1882591,51
1766015886.189256,48
1766015886.1902452,49
1766015886.1912582,50
1766015886.192242,54
1766015886.193266,50
1766015886.1942568,55
1766015886.19525,56
1766015886.196278,51
1766015886.1972768,55
1766015886.198272,53
1766015886.199285,55
1766015886.200292,57
1766015886.2012851,55
1766015886.2022898,55
1766015886.203259,60
1766015886.2042959,55
1766015886.205292,57
1766015886.20629,59
1766015886.207304,59
1766015886.2082932,58
1766015886.209265,60
1766015886.21031,59
1766015886.211309,62
1766015886.212322,61
1766015886.2132769,59
1766015886.214304,62
1766015886.215342,60
1766015886.216344,57
1766015886.2172842,58
1766015886.2183318,58
1766015886.219331,62
1766015886.220302,56
1766015886.221348,55
1766015886.22234,59
1766015886.223309,56
1766015886.224305,58
1766015886.225311,55
1766015886.226348,54
1766015886.227359,57
1766015886.228313,57
1766015886.229325,54
1766015886.2303302,58
1766015886.231353,56
1766015886.2323542,58
1766015886.233356,54
1766015886.234369,57
1766015886.2353652,55
1766015886.236383,58
1766015886.237379,57
1766015886.23838,56
1766015886.239386,59
1766015886.2403991,59
1766015886.2414,59
1766015886.242404,59
1766015886.2433841,60
1766015886.244403,59
1766015886.245405,60
1766015886.246403,61
1766015886.247402,58
1766015886.2484229,59
1766015886.249419,58
1766015886.250415,60
1766015886.2513962,59
1766015886.252425,58
1766015886.253417,59
1766015886.254438,59
1766015886.255444,55
1766015886.2564402,57
1766015886.25744,56
1766015886.258443,57
1766015886.2594419,52
1766015886.2604449,56
1766015886.261442,56
1766015886.2624588,51
1766015886.2634702,55
1766015886.264462,55
1766015886.265457,51
1766015886.266467,52
1766015886.267463,53
1766015886.2684748,51
1766015886.2694771,52
1766015886.270468,54
1766015886.2714791,53
1766015886.2724779,55
1766015886.273477,49
1766015886.2744892,47
1766015886.275477,52
1766015886.276499,52
1766015886.277496,51
1766015886.27849,50
1766015886.279489,49
1766015886.2805161,48
1766015886.281507,50
1766015886.282512,51
1766015886.283512,50
1766015886.284514,51
1766015886.2855282,50
1766015886.286525,50
1766015886.287533,49
1766015886.288537,49
1766015886.289529,48
1766015886.29053,45
1766015886.2915251,50
1766015886.2925491,47
1766015886.2935538,49
1766015886.29455,52
1766015886.295555,54
1766015886.2965472,54
1766015886.297554,56
1766015886.2985768,52
1766015886.299556,53
1766015886.300576,54
1766015886.301569,53
1766015886.302571,56
1766015886.303596,54
1766015886.3045561,52
1766015886.3055701,51
1766015886.3066082,54
1766015886.307646,53
1766015886.3086138,51
1766015886.3096058,49
1766015886.310625,54
1766015886.3115919,53
1766015886.3126159,50
1766015886.313623,51
1766015886.314603,50
1766015886.315598,49
1766015886.316601,50
1766015886.317607,51
1766015886.318593,52
1766015886.3195891,52
1766015886.320611,53
1766015886.3216052,53
1766015886.322591,52
1766015886.323607,49
1766015886.324606,52
1766015886.32561,53
1766015886.326595,52
1766015886.327614,50
1766015886.328602,51
1766015886.329608,49
1766015886.330604,48
1766015886.3316228,51
1766015886.332746,50
1766015886.333633,50
1766015886.334624,50
1766015886.335628,49
1766015886.33663,50
1766015886.337625,51
1766015886.3386612,48
1766015886.339666,47
1766015886.340669,46
1766015886.341675,46
1766015886.3426938,46
1766015886.3436701,45
1766015886.344662,46
1766015886.345664,46
1766015886.346661,45
1766015886.3476741,49
1766015886.348662,46
1766015886.3496718,48
1766015886.350677,48
1766015886.351676,49
1766015886.352675,49
1766015886.3536708,49
1766015886.354667,46
1766015886.35567,49
1766015886.356704,45
1766015886.357704,46
1766015886.358731,49
1766015886.359734,48
1766015886.360773,50
1766015886.361724,48
1766015886.36275,50
1766015886.363756,49
1766015886.364713,52
1766015886.365736,49
1766015886.366739,50
1766015886.367723,53
1766015886.368712,53
1766015886.36972,51
1766015886.3707452,52
1766015886.371723,49
1766015886.3727229,51
1766015886.373732,51
1766015886.374759,49
1766015886.3757389,51
1766015886.376735,52
1766015886.377735,49
1766015886.378732,49
1766015886.379734,50
1766015886.380736,51
1766015886.381739,50
1766015886.382765,49
1766015886.383753,50
1766015886.384744,48
1766015886.3857422,48
1766015886.386794,49
1766015886.387775,48
1766015886.3887649,50
1766015886.389781,46
1766015886.3907661,47
1766015886.3917701,51
1766015886.392761,49
1766015886.393773,47
1766015886.3947861,51
1766015886.39584,50
1766015886.396822,54
1766015886.3977861,53
1766015886.398793,53
1766015886.3998,48
1766015886.400797,48
1766015886.4017842,51
1766015886.402804,49
1766015886.403797,50
1766015886.4048069,48
1766015886.405823,49
1766015886.406823,48
1766015886.407796,47
1766015886.4088051,47
1766015886.4098501,49
1766015886.410811,47
1766015886.4118102,51
1766015886.412822,47
1766015886.413849,44
1766015886.414829,48
1766015886.415842,45
1766015886.416833,45
1766015886.4178329,46
1766015886.4188318,45
1766015886.419882,46
1766015886.420894,43
1766015886.421932,46
1766015886.422904,45
1766015886.423913,48
1766015886.4249191,45
1766015886.425919,44
1766015886.426909,42
