timestamp,emg_value
1766015902.066988,43
1766015902.066995,40
1766015902.067001,43
1766015902.0670059,42
1766015902.067011,43
1766015902.067016,42
1766015902.0670211,41
1766015902.067026,40
1766015902.0670311,41
1766015902.067035,41
1766015902.06704,40
1766015902.0670452,36
1766015902.06705,39
1766015902.067055,38
1766015902.067059,43
1766015902.067064,40
1766015902.0670688,37
1766015902.067074,39
1766015902.0670779,41
1766015902.0670831,38
1766015902.067088,36
1766015902.067093,39
1766015902.0670972,42
1766015902.067102,38
1766015902.067107,39
1766015902.067111,38
1766015902.067116,36
1766015902.0671208,34
1766015902.067126,34
1766015902.06713,37
1766015902.0671349,39
1766015902.06714,36
1766015902.067147,41
1766015902.067155,36
1766015902.0671601,35
1766015902.067164,36
1766015902.067169,38
1766015902.067174,35
1766015902.067179,39
1766015902.067183,35
1766015902.067188,36
1766015902.067193,33
1766015902.067198,33
1766015902.067202,35
1766015902.0672069,35
1766015902.067212,32
1766015902.067216,35
1766015902.067221,34
1766015902.0672262,35
1766015902.06723,36
1766015902.067235,32
1766015902.06724,35
1766015902.067244,32
1766015902.0672488,32
1766015902.067254,36
1766015902.0672588,32
1766015902.067264,33
1766015902.067273,33
1766015902.0672781,33
1766015902.067283,30
1766015902.0672882,35
1766015902.067292,32
1766015902.067297,32
1766015902.067302,32
1766015902.067306,34
1766015902.067314,35
1766015902.06732,32
1766015902.0673249,31
1766015902.0673301,34
1766015902.067335,32
1766015902.067339,36
1766015902.067344,31
1766015902.067349,34
1766015902.0673542,32
1766015902.067358,31
1766015902.067363,33
1766015902.067368,32
1766015902.067374,31
1766015902.067379,32
1766015902.067384,33
1766015902.0673878,34
1766015902.067393,30
1766015902.067397,32
1766015902.067401,35
1766015902.067405,35
1766015902.0674088,36
1766015902.067414,37
1766015902.067418,33
1766015902.067422,34
1766015902.0674272,32
1766015902.0674329,35
1766015902.067439,33
1766015902.067445,36
1766015902.0674508,34
1766015902.067457,35
1766015902.067462,33
1766015902.067467,34
1766015902.067471,35
1766015902.067476,34
1766015902.067482,34
1766015902.067488,35
1766015902.067492,32
1766015902.067497,34
1766015902.067501,34
1766015902.067505,33
1766015902.0675101,33
1766015902.0675142,31
1766015902.067518,32
1766015902.067522,30
1766015902.067528,35
1766015902.067532,34
1766015902.0675359,34
1766015902.06754,33
1766015902.0675452,31
1766015902.067549,35
1766015902.067553,34
1766015902.067557,36
1766015902.0675619,36
1766015902.0675662,32
1766015902.06757,35
1766015902.067574,35
1766015902.0675788,37
1766015902.067583,33
1766015902.0675871,35
1766015902.067592,35
1766015902.067596,34
1766015902.067601,33
1766015902.067606,37
1766015902.06761,32
1766015902.067616,29
1766015902.0676212,32
1766015902.067626,32
1766015902.0676322,34
1766015902.067637,32
1766015902.0676422,32
1766015902.067647,35
1766015902.067652,34
1766015902.067656,32
1766015902.067661,31
1766015902.0676658,32
1766015902.06767,31
1766015902.0676749,28
1766015902.06768,34
1766015902.0676851,33
1766015902.067689,32
1766015902.0676942,31
1766015902.067699,31
1766015902.067704,31
1766015902.067708,31
1766015902.067713,30
1766015902.0677178,31
1766015902.067723,30
1766015902.067727,30
1766015902.0677319,31
1766015902.067737,29
1766015902.067741,29
1766015902.0677462,31
1766015902.067751,29
1766015902.067756,29
1766015902.0677602,30
1766015902.067765,28
1766015902.06777,31
1766015902.067775,28
1766015902.067779,31
1766015902.0677838,29
1766015902.067795,30
1766015902.0678,30
1766015902.067808,32
1766015902.0678122,28
1766015902.067817,31
1766015902.067822,30
1766015902.067826,30
1766015902.067831,29
1766015902.0678358,31
1766015902.067841,29
1766015902.067845,26
1766015902.0678499,31
1766015902.0678551,31
1766015902.06786,29
1766015902.0678642,29
1766015902.067869,27
1766015902.067874,30
1766015902.067879,29
1766015902.067883,27
1766015902.067888,29
1766015902.067892,29
1766015902.067897,29
1766015902.067901,27
1766015902.067905,29
1766015902.06791,30
1766015902.067914,27
1766015902.067918,28
1766015902.0679219,28
1766015902.067926,30
1766015902.067931,29
1766015902.067935,28
1766015902.067939,28
1766015902.067944,30
1766015902.067948,25
1766015902.067957,30
1766015902.0679622,27
1766015902.067968,27
1766015902.0679722,25
1766015902.067977,26
1766015902.0679822,29
1766015902.067986,28
1766015902.067991,27
1766015902.0679958,30
1766015902.068001,27
1766015902.068005,28
1766015902.06801,25
1766015902.068015,25
1766015902.0680199,29
1766015902.0680242,24
1766015902.068029,30
1766015902.068034,29
1766015902.068039,26
1766015902.068043,26
1766015902.0680478,28
1766015902.068053,25
1766015902.068057,26
1766015902.068062,28
1766015902.068067,26
1766015902.0680718,28
1766015902.068077,26
1766015902.068081,28
1766015902.068086,28
1766015902.068091,28
1766015902.068095,26
1766015902.0681002,24
1766015902.068106,26
1766015902.0681112,26
1766015902.068116,28
1766015902.0681221,27
1766015902.068127,25
1766015902.0681338,27
1766015902.068138,24
1766015902.0681431,27
1766015902.068148,27
1766015902.0681531,27
1766015902.068157,28
1766015902.068162,23
1766015902.068167,26
1766015902.068172,25
1766015902.0681758,25
1766015902.068181,25
1766015902.068186,24
1766015902.068191,27
1766015902.068195,26
1766015902.0681999,25
1766015902.068205,28
1766015902.06821,25
1766015902.068214,24
1766015902.068219,24
1766015902.068224,24
1766015902.0682292,29
1766015902.068233,27
1766015902.068238,25
1766015902.068243,24
1766015902.068247,28
1766015902.0682518,24
1766015902.068257,23
1766015902.0682611,24
1766015902.068266,24
1766015902.0682712,24
1766015902.068275,22
1766015902.06828,26
1766015902.068286,25
1766015902.0682912,29
1766015902.068297,25
1766015902.0683022,22
1766015902.068307,23
1766015902.068311,27
1766015902.068316,23
1766015902.068321,24
1766015902.068325,21
1766015902.06833,22
1766015902.068335,24
1766015902.0683389,23
1766015902.068344,23
1766015902.068349,24
1766015902.068353,26
1766015902.068358,23
1766015902.068363,25
1766015902.068368,24
1766015902.068372,26
1766015902.068377,23
1766015902.068382,26
1766015902.068386,20
1766015902.0683908,25
1766015902.068396,23
1766015902.0684009,23
1766015902.068405,28
1766015902.0684102,20
1766015902.068415,24
1766015902.0684202,26
1766015902.068424,22
1766015902.068429,24
1766015902.068434,22
1766015902.068438,24
1766015902.0684428,22
1766015902.068449,26
1766015902.068455,23
1766015902.06846,21
1766015902.068465,22
1766015902.068469,27
1766015902.068474,24
1766015902.068479,24
1766015902.068483,21
1766015902.068488,21
1766015902.0684931,26
1766015902.068498,25
1766015902.0685031,26
1766015902.068507,25
1766015902.068512,23
1766015902.0685172,26
1766015902.068521,22
1766015902.068526,26
1766015902.068531,21
1766015902.068536,24
1766015902.0685399,21
1766015902.068545,20
1766015902.0685499,25
1766015902.068555,24
1766015902.0685592,26
1766015902.068564,24
1766015902.0685692,21
1766015902.068574,26
1766015902.068579,24
1766015902.068583,24
1766015902.068588,24
1766015902.0685928,20
1766015902.068598,23
1766015902.068602,22
1766015902.068607,22
1766015902.068614,26
1766015902.068619,23
1766015902.0686238,26
1766015902.068629,22
1766015902.068634,25
1766015902.068639,22
1766015902.068643,24
1766015902.0686479,23
1766015902.068653,23
1766015902.0686579,25
1766015902.0686631,23
1766015902.068667,25
1766015902.068672,23
1766015902.0686772,27
1766015902.068682,27
1766015902.0686872,26
1766015902.068692,25
1766015902.068696,23
1766015902.068702,25
1766015902.068706,23
1766015902.0687108,26
1766015902.068716,21
1766015902.0687208,26
1766015902.068725,26
1766015902.06873,25
1766015902.068735,25
1766015902.0687392,24
1766015902.068744,26
1766015902.068749,25
1766015902.068754,24
1766015902.068758,26
1766015902.0687628,26
1766015902.068768,26
1766015902.068774,24
1766015902.068779,25
1766015902.068785,22
1766015902.068789,25
1766015902.068794,24
1766015902.068799,28
1766015902.068804,26
1766015902.068809,27
1766015902.068815,26
1766015902.06882,25
1766015902.068825,27
1766015902.06883,24
1766015902.068835,27
1766015902.0688388,27
1766015902.068844,26
1766015902.0688488,30
1766015902.068854,24
1766015902.0688589,28
1766015902.068864,24
1766015902.0688682,26
1766015902.068873,26
1766015902.0688782,26
1766015902.068883,27
1766015902.068887,26
1766015902.068892,25
1766015902.068897,27
1766015902.0689018,28
1766015902.068907,29
1766015902.068911,28
1766015902.068916,30
1766015902.068921,27
1766015902.0689259,24
1766015902.068931,29
1766015902.0689359,28
1766015902.068942,29
1766015902.0689468,28
1766015902.0689542,31
1766015902.068959,28
1766015902.068963,25
1766015902.0689678,28
1766015902.068973,29
1766015902.068979,28
1766015902.068985,28
1766015902.068991,27
1766015902.0689962,27
1766015902.069001,31
1766015902.069006,29
1766015902.069011,28
1766015902.069015,29
1766015902.0690198,27
1766015902.069025,30
1766015902.069029,30
1766015902.069034,27
1766015902.069039,27
1766015902.0690439,25
1766015902.0690482,28
1766015902.069053,28
1766015902.069058,31
1766015902.069063,29
1766015902.069067,25
1766015902.0690718,27
1766015902.069077,30
1766015902.069082,31
1766015902.0690858,30
1766015902.069091,31
1766015902.0690958,31
1766015902.0691001,30
1766015902.069105,29
1766015902.069112,31
1766015902.0691168,31
1766015902.069122,30
1766015902.069128,32
1766015902.069133,31
1766015902.0691378,32
1766015902.069143,31
1766015902.0691469,29
1766015902.069152,32
1766015902.0691571,30
1766015902.069162,28
1766015902.0691662,29
1766015902.069171,30
1766015902.069176,30
1766015902.06918,32
1766015902.069185,30
1766015902.0691898,28
1766015902.069194,31
1766015902.069199,29
1766015902.0692039,31
1766015902.069209,29
1766015902.0692139,28
1766015902.0692182,33
1766015902.069223,31
1766015902.069228,31
1766015902.069233,32
1766015902.069237,30
1766015902.069242,30
1766015902.069247,33
1766015902.069251,30
1766015902.0692558,29
1766015902.069261,30
1766015902.0692658,30
1766015902.0692701,33
1766015902.069275,31
1766015902.069281,32
1766015902.0692859,30
1766015902.069292,31
1766015902.0692968,29
1766015902.069302,28
1766015902.0693069,30
1766015902.069311,33
1766015902.0693161,33
1766015902.069321,31
1766015902.0693262,28
1766015902.06933,31
1766015902.069335,32
1766015902.06934,30
1766015902.069344,29
1766015902.069349,32
1766015902.069354,30
1766015902.069359,32
1766015902.0693629,29
1766015902.0693681,32
1766015902.069373,34
1766015902.0693781,27
1766015902.069382,32
1766015902.069387,32
1766015902.069392,32
1766015902.069397,33
1766015902.069401,34
1766015902.069406,31
1766015902.069411,31
1766015902.0694149,30
1766015902.06942,31
1766015902.0694249,30
1766015902.06943,32
1766015902.0694342,30
1766015902.069439,28
1766015902.0694442,29
1766015902.06945,30
1766015902.0694551,30
1766015902.069462,33
1766015902.0694668,27
1766015902.069471,32
1766015902.0694761,29
1766015902.069481,31
1766015902.069485,32
1766015902.06949,30
1766015902.069495,32
1766015902.0695,29
1766015902.069504,28
1766015902.069509,27
1766015902.069514,27
1766015902.069518,29
1766015902.0695229,30
1766015902.069528,31
1766015902.0695329,28
1766015902.069537,28
1766015902.069542,29
1766015902.069547,31
1766015902.069551,32
1766015902.069556,31
1766015902.069561,28
1766015902.069566,27
1766015902.06957,28
1766015902.0695748,29
1766015902.06958,28
1766015902.069584,30
1766015902.069589,31
1766015902.0695941,29
1766015902.069598,30
1766015902.069603,29
1766015902.069608,29
1766015902.0696142,31
1766015902.069619,29
1766015902.0696251,31
1766015902.06963,29
1766015902.0696352,28
1766015902.06964,30
1766015902.069644,29
1766015902.069649,28
1766015902.069654,27
1766015902.069658,27
1766015902.069663,31
1766015902.069668,27
1766015902.069673,27
1766015902.069677,29
1766015902.069682,27
1766015902.0696871,29
1766015902.069692,29
1766015902.069696,26
1766015902.0697012,27
1766015902.069706,27
1766015902.06971,27
1766015902.069715,27
1766015902.069721,28
1766015902.069726,25
1766015902.069731,29
1766015902.0697348,27
1766015902.06974,25
1766015902.0697448,28
1766015902.06975,26
1766015902.0697541,27
1766015902.069759,27
1766015902.0697641,27
1766015902.069768,28
1766015902.069773,29
1766015902.069778,26
1766015902.069786,26
1766015902.069791,30
1766015902.069798,29
1766015902.069803,26
1766015902.0698082,28
1766015902.069813,26
1766015902.069817,26
1766015902.0698218,25
1766015902.069827,27
1766015902.0698318,27
1766015902.0698361,26
1766015902.069841,24
1766015902.069846,28
1766015902.069851,26
1766015902.069855,24
1766015902.06986,28
1766015902.069865,28
1766015902.06987,27
1766015902.0698738,26
1766015902.069879,26
1766015902.0698838,29
1766015902.069888,27
1766015902.0698931,27
1766015902.069898,27
1766015902.0699031,29
1766015902.069907,25
1766015902.069912,26
1766015902.069917,25
1766015902.069922,25
1766015902.069927,26
1766015902.069931,29
1766015902.069936,24
1766015902.069941,29
1766015902.069946,27
1766015902.069953,27
1766015902.069957,27
1766015902.069963,29
1766015902.069969,27
1766015902.069974,26
1766015902.069979,30
1766015902.069983,29
1766015902.069988,29
1766015902.069993,26
1766015902.069998,29
1766015902.0700018,26
1766015902.070007,27
1766015902.0700119,25
1766015902.070017,27
1766015902.0700212,26
1766015902.070026,25
1766015902.0700312,29
1766015902.070035,28
1766015902.07004,26
1766015902.070045,26
1766015902.070049,28
1766015902.0700538,24
1766015902.070059,26
1766015902.070063,29
1766015902.070068,25
1766015902.0700731,26
1766015902.070078,28
1766015902.0700831,28
1766015902.070087,24
1766015902.070092,25
1766015902.070097,25
1766015902.070101,27
1766015902.070106,27
1766015902.070111,25
1766015902.070116,28
1766015902.070122,25
1766015902.070127,28
1766015902.070134,27
1766015902.070139,28
1766015902.070143,29
1766015902.070148,30
1766015902.070153,26
1766015902.070158,27
1766015902.0701618,28
1766015902.070167,26
1766015902.0701718,28
1766015902.070177,25
1766015902.0701811,27
1766015902.070186,29
1766015902.0701911,25
1766015902.070196,27
1766015902.0702,23
1766015902.070205,26
1766015902.07021,28
1766015902.070215,26
1766015902.070219,29
1766015902.0702238,24
1766015902.070229,24
1766015902.070234,28
1766015902.0702379,29
1766015902.0702431,27
1766015902.070248,26
1766015902.0702531,27
1766015902.070257,27
1766015902.070262,28
1766015902.070267,26
1766015902.070271,26
1766015902.070276,30
1766015902.070281,27
1766015902.070288,30
1766015902.070293,28
1766015902.0702982,24
1766015902.070306,27
1766015902.0703108,27
1766015902.070316,24
1766015902.0703208,27
1766015902.070326,27
1766015902.0703309,22
1766015902.070335,26
1766015902.0703402,28
1766015902.070345,26
1766015902.0703502,24
1766015902.070355,28
1766015902.070359,28
1766015902.070364,27
1766015902.070369,25
1766015902.0703738,24
1766015902.070379,24
1766015902.070383,25
1766015902.070388,27
1766015902.070393,27
1766015902.0703979,29
1766015902.070403,25
1766015902.070407,25
1766015902.070412,23
1766015902.070417,27
1766015902.070422,24
1766015902.0704262,23
1766015902.070431,25
1766015902.070436,25
1766015902.07044,25
1766015902.070445,24
1766015902.0704498,23
1766015902.070455,25
1766015902.070461,24
1766015902.070466,26
1766015902.070473,25
1766015902.070478,24
1766015902.070497,25
1766015902.070503,26
1766015902.070509,27
1766015902.070514,25
1766015902.070519,24
1766015902.0705228,27
1766015902.070528,28
1766015902.070533,24
1766015902.070538,25
1766015902.070543,23
1766015902.070548,22
1766015902.070553,27
1766015902.070558,23
1766015902.070563,26
1766015902.070582,23
1766015902.0705888,24
1766015902.070595,23
1766015902.0706,25
1766015902.070605,25
1766015902.0706089,24
1766015902.070614,27
1766015902.0706189,24
1766015902.070624,25
1766015902.0706291,25
1766015902.070634,26
1766015902.0706391,26
1766015902.070644,24
1766015902.0706491,26
1766015902.070654,25
1766015902.0706592,25
1766015902.070673,24
1766015902.070678,28
1766015902.0706828,23
1766015902.070688,23
1766015902.070693,25
1766015902.070698,23
1766015902.070703,25
1766015902.0707068,24
1766015902.070712,20
1766015902.0707169,23
1766015902.070722,24
1766015902.0707269,25
1766015902.070732,22
1766015902.070737,22
1766015902.0707421,21
1766015902.070747,25
1766015902.070752,25
1766015902.0707572,24
1766015902.070762,24
1766015902.0707672,22
1766015902.070772,26
1766015902.070776,25
1766015902.070781,23
1766015902.070786,26
1766015902.070791,24
1766015902.070796,24
1766015902.0708008,22
1766015902.070805,26
1766015902.07081,20
1766015902.070815,24
1766015902.07082,25
1766015902.0708249,23
1766015902.0708292,25
1766015902.070834,22
1766015902.070839,25
1766015902.070844,25
1766015902.070849,25
1766015902.070854,21
1766015902.070859,23
1766015902.070864,24
1766015902.070869,24
1766015902.070873,23
1766015902.070878,25
1766015902.070883,22
1766015902.070888,22
1766015902.070893,25
1766015902.0708978,22
1766015902.070903,23
1766015902.0709078,24
1766015902.070912,21
1766015902.0709171,23
1766015902.070922,22
1766015902.0709271,26
1766015902.070932,25
1766015902.0709372,23
1766015902.070942,24
1766015902.070946,22
1766015902.070951,23
1766015902.070956,21
1766015902.070961,25
1766015902.070966,24
1766015902.0709708,25
1766015902.070976,25
1766015902.070981,23
1766015902.070986,21
1766015902.070991,25
1766015902.0709949,23
1766015902.071,23
1766015902.0710049,20
1766015902.07101,21
1766015902.071015,26
1766015902.0710201,21
1766015902.071025,24
1766015902.071029,21
1766015902.0710342,23
1766015902.071039,19
1766015902.0710442,25
1766015902.071049,24
1766015902.071063,24
1766015902.071069,23
1766015902.071074,20
1766015902.071079,25
1766015902.071084,22
1766015902.0710888,23
1766015902.071094,23
1766015902.0710988,24
1766015902.071104,23
1766015902.071109,26
1766015902.071114,22
1766015902.071119,23
1766015902.071124,23
1766015902.071129,24
1766015902.0711339,22
1766015902.071139,23
1766015902.0711439,23
1766015902.071149,22
1766015902.0711539,19
1766015902.0711591,24
1766015902.071163,23
1766015902.071168,22
1766015902.0711732,22
1766015902.071178,23
1766015902.0711832,21
1766015902.071188,20
1766015902.071193,23
1766015902.071198,23
1766015902.071203,26
1766015902.071208,26
1766015902.071213,23
1766015902.071218,23
1766015902.071222,19
1766015902.0712268,20
1766015902.071232,22
1766015902.071237,20
1766015902.071243,21
1766015902.0712478,26
1766015902.071253,21
1766015902.071258,21
1766015902.071262,22
1766015902.0712671,25
1766015902.071272,23
1766015902.0712771,24
1766015902.071282,25
1766015902.0712872,22
1766015902.071292,23
1766015902.071297,24
1766015902.071302,23
1766015902.071307,21
1766015902.071312,22
1766015902.071317,19
1766015902.0713222,26
1766015902.071327,19
1766015902.071331,20
1766015902.071336,23
1766015902.071341,22
1766015902.0713458,22
1766015902.071351,21
1766015902.0713558,23
1766015902.071361,21
1766015902.071365,23
1766015902.07137,21
1766015902.0713751,22
1766015902.07138,21
1766015902.0713851,23
1766015902.071389,25
1766015902.071394,20
1766015902.071399,24
1766015902.071404,21
1766015902.071409,25
1766015902.071414,21
1766015902.0714188,24
1766015902.071423,24
1766015902.071428,23
1766015902.071433,25
1766015902.071438,25
1766015902.0714428,20
1766015902.071448,22
1766015902.071452,22
1766015902.071457,23
1766015902.071462,23
1766015902.071467,22
1766015902.0714722,24
1766015902.071477,22
1766015902.0714822,23
1766015902.071487,22
1766015902.071491,21
1766015902.071496,22
1766015902.071501,24
1766015902.071506,20
1766015902.071511,25
1766015902.0715158,23
1766015902.071521,24
1766015902.071525,22
1766015902.0715299,22
1766015902.071535,24
1766015902.0715399,20
1766015902.0715451,23
1766015902.07155,20
1766015902.0715551,23
1766015902.071559,24
1766015902.071564,22
1766015902.071569,23
1766015902.071574,24
1766015902.071579,22
1766015902.071583,24
1766015902.071588,22
1766015902.071593,25
1766015902.071598,26
1766015902.071603,22
1766015902.071608,22
1766015902.071612,21
1766015902.0716171,25
1766015902.071622,22
1766015902.071627,22
1766015902.0716312,24
1766015902.071636,21
1766015902.0716412,22
1766015902.071646,21
1766015902.071651,22
1766015902.071656,20
1766015902.07166,22
1766015902.0716648,22
1766015902.07167,24
1766015902.0716748,22
1766015902.07168,22
1766015902.0716841,22
1766015902.071689,22
1766015902.0716941,22
1766015902.071699,22
1766015902.071705,22
1766015902.071711,23
1766015902.071716,24
1766015902.071721,20
1766015902.071726,24
1766015902.07173,20
1766015902.0717351,23
1766015902.072341,25
1766015902.073355,23
1766015902.074348,21
1766015902.075346,25
1766015902.076344,23
1766015902.077357,25
1766015902.07836,23
1766015902.0793548,24
1766015902.080354,24
1766015902.0813482,22
1766015902.082363,22
1766015902.083355,21
1766015902.084369,25
1766015902.085366,25
1766015902.086365,22
1766015902.087371,23
1766015902.088383,24
1766015902.08939,25
1766015902.0903811,20
1766015902.091372,21
1766015902.0923798,23
1766015902.09339,21
1766015902.094398,22
1766015902.0953972,24
1766015902.096407,25
1766015902.097427,25
1766015902.098392,23
1766015902.099395,22
1766015902.100409,24
1766015902.101426,22
1766015902.102426,25
1766015902.103434,22
1766015902.1044412,22
1766015902.1054451,23
1766015902.106434,21
1766015902.107442,19
1766015902.108439,23
1766015902.109453,22
1766015902.1104472,25
1766015902.1114612,24
1766015902.11243,22
1766015902.113488,24
1766015902.114439,23
1766015902.1154602,23
1766015902.1164842,22
1766015902.1174731,21
1766015902.1184692,23
1766015902.119473,24
1766015902.120477,25
1766015902.121481,21
1766015902.1224709,22
1766015902.123484,23
1766015902.1245,22
1766015902.125488,23
1766015902.126484,19
1766015902.1274939,21
1766015902.12851,21
1766015902.1295092,23
1766015902.130506,20
1766015902.13151,25
1766015902.1325178,23
1766015902.133517,25
1766015902.134534,24
1766015902.13553,22
1766015902.136523,24
1766015902.137537,21
1766015902.138544,24
1766015902.139543,26
1766015902.140548,24
1766015902.141551,22
1766015902.142555,23
1766015902.143561,23
1766015902.144565,21
1766015902.14561,25
1766015902.1465979,26
1766015902.1476102,25
1766015902.148577,23
1766015902.149591,25
1766015902.1505868,25
1766015902.151573,23
1766015902.15257,25
1766015902.1535711,21
1766015902.1545641,23
1766015902.155583,22
1766015902.156585,26
1766015902.157609,24
1766015902.158595,21
1766015902.159633,26
1766015902.160627,25
1766015902.161618,24
1766015902.1625972,27
1766015902.163612,24
1766015902.164619,23
1766015902.1656342,23
1766015902.1666718,24
1766015902.167638,24
1766015902.1686301,25
1766015902.1696498,24
1766015902.170638,26
1766015902.171628,22
1766015902.1726348,27
1766015902.1736488,29
1766015902.174669,29
1766015902.175651,26
1766015902.176651,26
1766015902.177651,26
1766015902.178664,26
1766015902.179649,28
1766015902.180665,26
1766015902.181665,28
1766015902.182682,26
1766015902.183672,23
1766015902.1846762,28
1766015902.1857548,29
1766015902.18668,28
1766015902.187674,26
1766015902.188693,25
1766015902.189709,27
1766015902.190697,28
1766015902.191705,27
1766015902.192706,25
1766015902.193721,28
1766015902.194726,24
1766015902.195724,26
1766015902.196697,25
1766015902.197727,25
1766015902.198735,25
1766015902.199723,27
1766015902.20073,26
1766015902.201737,25
1766015902.202733,29
1766015902.203733,26
1766015902.204727,28
1766015902.205749,24
1766015902.206759,25
1766015902.207777,25
1766015902.20878,26
1766015902.2097611,25
1766015902.210769,26
1766015902.211752,24
1766015902.212778,26
1766015902.2137768,25
1766015902.214773,22
1766015902.215868,27
1766015902.216862,24
1766015902.21779,27
1766015902.218831,29
1766015902.219799,26
1766015902.220781,27
1766015902.221836,27
1766015902.2227929,27
1766015902.223825,27
1766015902.224822,26
1766015902.2258,28
1766015902.2268019,29
1766015902.2278059,23
1766015902.228841,27
1766015902.22981,25
1766015902.2308218,28
1766015902.2318249,29
1766015902.232882,31
1766015902.233923,26
1766015902.234823,26
1766015902.2358441,29
1766015902.236821,26
1766015902.237828,25
1766015902.238851,28
1766015902.239825,27
1766015902.240832,25
1766015902.2418518,29
1766015902.2428539,26
1766015902.243846,28
1766015902.244849,28
1766015902.245833,29
1766015902.246828,26
1766015902.247872,28
1766015902.2488582,28
1766015902.2498748,28
1766015902.250875,32
1766015902.251869,28
1766015902.252873,28
1766015902.253883,28
1766015902.254866,29
1766015902.255875,29
1766015902.256881,31
1766015902.257885,30
1766015902.258893,29
1766015902.259889,30
1766015902.2609012,30
1766015902.261916,28
1766015902.26291,30
1766015902.2639081,28
1766015902.264885,29
1766015902.26604,29
1766015902.2670121,32
1766015902.267904,29
1766015902.2690182,32
1766015902.269999,30
1766015902.2709959,33
1766015902.271996,32
1766015902.2730188,30
1766015902.274018,31
1766015902.2750552,31
1766015902.2760372,33
1766015902.27701,33
1766015902.278074,31
1766015902.2790039,32
1766015902.2800362,33
1766015902.281009,33
1766015902.2820292,31
1766015902.283082,32
1766015902.2840629,32
1766015902.285048,33
1766015902.286032,33
1766015902.287005,31
1766015902.2879932,32
1766015902.288981,34
1766015902.290037,31
1766015902.2911072,32
1766015902.292047,36
1766015902.293021,33
1766015902.2940412,33
1766015902.295035,35
1766015902.2960079,31
1766015902.29705,30
1766015902.298018,32
1766015902.299061,34
1766015902.300046,32
1766015902.3010828,33
1766015902.302061,32
1766015902.30305,33
1766015902.304012,29
1766015902.305038,32
1766015902.306011,31
1766015902.307057,30
1766015902.308077,29
1766015902.3091002,32
1766015902.310047,31
1766015902.311059,29
1766015902.312057,34
1766015902.313138,31
1766015902.314091,34
1766015902.3150852,34
1766015902.3160992,31
1766015902.317099,34
1766015902.318061,32
1766015902.3191218,33
1766015902.320124,34
1766015902.321142,33
1766015902.32211,34
1766015902.3231208,34
1766015902.32412,34
1766015902.325127,31
1766015902.326112,35
1766015902.327119,32
1766015902.328131,37
1766015902.329076,35
1766015902.3301508,33
1766015902.33118,34
1766015902.332151,34
1766015902.333162,35
1766015902.3341382,31
1766015902.33517,33
1766015902.3361201,34
1766015902.337109,35
1766015902.338136,32
1766015902.339246,36
1766015902.340186,37
1766015902.341187,34
1766015902.342155,33
1766015902.343149,33
1766015902.344178,31
1766015902.3451781,31
1766015902.3461661,32
1766015902.3471591,33
1766015902.348186,36
1766015902.349163,36
1766015902.3501928,35
1766015902.351176,34
1766015902.3522098,32
1766015902.353195,33
1766015902.354166,31
1766015902.3551738,30
1766015902.356214,34
1766015902.3572228,31
1766015902.35822,31
1766015902.359242,31
1766015902.360249,30
1766015902.361281,31
1766015902.362199,37
1766015902.3632839,34
1766015902.364279,30
1766015902.3652532,32
1766015902.366254,33
1766015902.3672729,32
1766015902.368237,33
1766015902.369266,34
1766015902.370259,32
1766015902.371274,31
1766015902.372295,30
1766015902.373269,34
1766015902.374284,33
1766015902.375283,31
1766015902.37625,33
1766015902.377289,31
1766015902.378326,34
1766015902.379333,32
1766015902.3803039,31
1766015902.3812969,29
1766015902.382297,30
1766015902.383308,30
1766015902.384309,31
1766015902.385299,35
1766015902.386323,28
1766015902.3872619,29
1766015902.388383,33
1766015902.389277,32
1766015902.3903081,31
1766015902.391339,31
1766015902.392332,33
1766015902.393302,30
1766015902.3943338,31
1766015902.395315,31
1766015902.3963132,29
1766015902.397353,28
1766015902.398345,30
1766015902.399342,30
1766015902.4003541,33
1766015902.401334,31
1766015902.402349,29
1766015902.40335,31
1766015902.4044118,31
1766015902.405375,33
1766015902.406368,32
1766015902.4073431,34
1766015902.408351,34
1766015902.409361,33
1766015902.410374,34
1766015902.4113789,32
1766015902.4123409,32
1766015902.41341,29
1766015902.414389,35
1766015902.41539,30
1766015902.416395,34
1766015902.4173598,31
1766015902.418365,37
1766015902.419401,33
1766015902.420369,30
1766015902.421428,33
1766015902.422395,34
1766015902.423419,31
1766015902.4244008,35
1766015902.425421,31
1766015902.426395,32
1766015902.427413,34
1766015902.428399,31
1766015902.429417,33
1766015902.430393,31
1766015902.431435,32
1766015902.432426,31
1766015902.433436,33
1766015902.434471,31
1766015902.435434,31
1766015902.4364538,33
1766015902.437411,34
1766015902.438449,34
1766015902.439455,36
1766015902.440434,30
1766015902.441484,34
1766015902.442529,33
1766015902.443472,31
1766015902.444441,30
1766015902.445452,32
1766015902.446483,34
1766015902.447469,33
1766015902.448481,32
1766015902.449496,33
1766015902.450507,36
1766015902.451493,35
1766015902.452503,38
1766015902.453496,34
1766015902.4544609,37
1766015902.455481,38
1766015902.456495,37
1766015902.457481,37
1766015902.4585018,37
1766015902.4595141,37
1766015902.4605,38
1766015902.461505,38
1766015902.462495,36
1766015902.46352,39
1766015902.464531,35
1766015902.4655418,38
1766015902.466538,36
1766015902.467532,37
1766015902.468545,34
1766015902.469544,36
1766015902.470509,35
1766015902.471499,38
1766015902.4725409,34
1766015902.473533,36
1766015902.474538,36
1766015902.4755478,35
1766015902.476536,34
1766015902.4775538,35
1766015902.4785411,35
1766015902.479591,37
1766015902.48056,35
1766015902.481571,37
1766015902.4825768,33
1766015902.483586,34
1766015902.4846442,34
1766015902.485615,35
1766015902.486573,35
1766015902.487535,33
1766015902.48858,35
1766015902.489592,35
1766015902.4905632,32
1766015902.4916291,35
1766015902.492627,34
1766015902.4935539,34
1766015902.4946098,36
1766015902.495561,36
1766015902.4965749,35
1766015902.4976058,34
1766015902.498643,33
1766015902.4996228,36
1766015902.500583,34
1766015902.501598,36
1766015902.502624,37
1766015902.503573,37
1766015902.5046048,37
1766015902.5056052,36
1766015902.506641,36
1766015902.5076458,36
1766015902.508613,35
1766015902.509652,37
1766015902.510647,31
1766015902.51161,33
1766015902.512622,35
1766015902.513619,34
1766015902.514685,35
1766015902.515635,33
1766015902.516686,34
1766015902.517636,33
1766015902.518719,33
1766015902.519655,38
1766015902.5206778,35
1766015902.521646,34
1766015902.5226848,37
1766015902.523662,36
1766015902.524686,36
1766015902.525716,35
1766015902.5266402,37
1766015902.5277,39
1766015902.528666,38
1766015902.529675,34
1766015902.530709,36
1766015902.5317209,39
1766015902.53272,38
1766015902.5336692,35
1766015902.534692,35
1766015902.5357099,36
1766015902.536698,37
1766015902.537695,38
1766015902.5387268,35
1766015902.539722,37
1766015902.540724,34
1766015902.541707,35
1766015902.542738,34
1766015902.543693,37
1766015902.544727,37
1766015902.545704,37
1766015902.5467148,38
1766015902.547762,39
1766015902.548748,40
1766015902.549726,39
1766015902.550716,39
1766015902.551745,43
1766015902.5527492,39
1766015902.553767,44
1766015902.5547788,43
1766015902.555788,43
1766015902.556778,44
1766015902.557776,44
1766015902.558789,46
1766015902.559807,47
1766015902.560792,52
1766015902.561814,52
1766015902.5628018,50
1766015902.563812,50
1766015902.5647979,52
1766015902.565809,48
1766015902.566814,51
1766015902.5678358,51
1766015902.5688,47
1766015902.5698109,48
1766015902.570816,50
1766015902.571816,45
1766015902.572831,46
1766015902.573836,47
1766015902.574826,47
1766015902.575816,47
1766015902.5768352,47
1766015902.577843,47
1766015902.578851,45
1766015902.579867,46
1766015902.5808482,45
1766015902.581855,44
1766015902.5828412,45
1766015902.5838542,43
1766015902.584876,44
1766015902.585859,42
1766015902.586845,46
1766015902.5878668,41
1766015902.588872,44
1766015902.58987,42
1766015902.590871,41
1766015902.591886,43
1766015902.5928981,40
1766015902.593889,42
1766015902.594893,45
1766015902.595896,41
1766015902.5968902,42
1766015902.5978959,42
1766015902.598906,42
1766015902.599905,43
1766015902.6009018,40
1766015902.601902,42
1766015902.602896,40
1766015902.603907,45
1766015902.604909,46
1766015902.605896,46
1766015902.6068869,46
1766015902.607878,44
1766015902.608921,45
1766015902.609901,44
1766015902.6108952,41
1766015902.611897,44
1766015902.613009,47
1766015902.613903,47
1766015902.6150458,47
1766015902.615932,42
1766015902.617027,46
1766015902.617926,43
1766015902.6189618,42
1766015902.620032,43
1766015902.6210392,43
1766015902.621949,45
1766015902.623049,41
1766015902.624026,43
1766015902.625035,43
1766015902.626045,44
1766015902.6270342,41
1766015902.6280231,41
1766015902.629031,43
1766015902.630044,39
1766015902.631031,40
1766015902.632023,42
1766015902.633013,39
1766015902.634026,43
1766015902.635021,37
1766015902.6360488,41
1766015902.637035,42
1766015902.638048,41
1766015902.639026,39
1766015902.640022,39
1766015902.641047,38
1766015902.6420412,37
1766015902.643029,37
1766015902.644022,39
1766015902.6450272,37
1766015902.6460092,36
1766015902.6470242,39
1766015902.648032,36
1766015902.649018,37
1766015902.650027,40
1766015902.651026,35
1766015902.652033,36
1766015902.653049,37
1766015902.654052,36
1766015902.655057,36
1766015902.6560352,34
1766015902.657035,35
1766015902.658057,35
1766015902.659075,39
1766015902.660063,36
1766015902.6610801,39
1766015902.6620648,37
1766015902.663082,39
1766015902.6640692,39
1766015902.665084,39
1766015902.6660821,38
1766015902.667077,37
1766015902.6680782,37
1766015902.669101,39
1766015902.67009,37
1766015902.671103,36
1766015902.672102,39
1766015902.673098,39
1766015902.674091,35
1766015902.6750998,40
1766015902.676123,39
1766015902.677095,39
1766015902.678114,36
1766015902.679127,40
1766015902.680129,37
1766015902.681128,38
1766015902.682116,40
1766015902.683121,38
1766015902.6841369,40
1766015902.68513,39
1766015902.6861281,38
1766015902.68715,36
1766015902.68816,40
1766015902.6891289,36
1766015902.6901388,39
1766015902.691165,41
1766015902.692162,38
1766015902.693165,38
1766015902.694162,39
1766015902.695164,39
1766015902.6961658,37
1766015902.697162,35
1766015902.6981719,37
1766015902.699161,36
1766015902.7001631,37
1766015902.701157,39
1766015902.702196,36
1766015902.703181,35
1766015902.704194,36
1766015902.705199,35
1766015902.706197,35
1766015902.70719,35
1766015902.7081878,37
1766015902.709187,35
1766015902.710207,36
1766015902.711206,36
1766015902.712209,35
1766015902.713231,33
1766015902.7142,33
1766015902.715204,36
1766015902.716216,36
1766015902.71725,36
1766015902.718241,35
1766015902.719222,35
1766015902.720223,36
1766015902.721239,35
1766015902.722244,35
1766015902.7232451,36
1766015902.724247,31
1766015902.725276,33
1766015902.726252,35
1766015902.727255,35
1766015902.728273,35
1766015902.729264,36
1766015902.730274,34
1766015902.731284,33
1766015902.732281,38
1766015902.733278,33
1766015902.734285,33
1766015902.735287,36
1766015902.7362828,35
1766015902.737278,36
1766015902.738293,34
1766015902.739286,34
1766015902.740298,33
1766015902.741287,33
1766015902.7422771,34
1766015902.743307,32
1766015902.7443142,35
1766015902.7453032,36
1766015902.746293,33
1766015902.74733,32
1766015902.748306,36
1766015902.749301,36
1766015902.750321,36
1766015902.751341,37
1766015902.7523258,40
1766015902.753321,38
1766015902.754339,35
1766015902.755332,37
1766015902.756345,38
1766015902.757331,39
1766015902.7583349,34
1766015902.759351,36
1766015902.760371,38
1766015902.761365,41
1766015902.762483,37
1766015902.763392,40
1766015902.7643788,42
1766015902.76536,41
1766015902.766381,42
1766015902.767402,44
1766015902.7684019,43
1766015902.7694058,44
1766015902.7704132,43
1766015902.771392,44
1766015902.7723782,44
1766015902.773375,45
1766015902.774399,41
1766015902.7753768,40
1766015902.776384,43
1766015902.7774231,42
1766015902.7784052,42
1766015902.7793658,41
1766015902.78037,42
1766015902.781385,44
1766015902.782411,39
1766015902.783427,40
1766015902.784446,42
1766015902.7854168,41
1766015902.786399,41
1766015902.7874188,43
1766015902.788439,41
1766015902.7894368,39
1766015902.790453,43
1766015902.7914398,42
1766015902.792445,41
1766015902.793479,42
1766015902.794448,42
1766015902.7954419,40
1766015902.7964091,42
1766015902.797411,42
1766015902.798435,41
1766015902.799435,40
1766015902.800451,41
1766015902.8014421,39
1766015902.802429,38
1766015902.8034308,40
1766015902.804441,38
1766015902.805467,37
1766015902.806443,38
1766015902.807455,39
1766015902.808486,40
1766015902.809506,37
1766015902.810514,40
1766015902.8114948,43
1766015902.812514,41
1766015902.813469,40
1766015902.814511,39
1766015902.8155,38
1766015902.816504,36
1766015902.8175092,43
1766015902.818491,39
1766015902.819496,39
1766015902.82054,38
1766015902.821553,39
1766015902.822537,37
1766015902.823541,36
1766015902.8245199,36
1766015902.82552,38
1766015902.826559,39
1766015902.8275359,36
1766015902.828567,37
1766015902.8295581,36
1766015902.830569,37
1766015902.831558,37
1766015902.832552,34
1766015902.833555,35
1766015902.834563,38
1766015902.8355799,38
1766015902.83658,37
1766015902.837572,37
1766015902.838572,35
1766015902.839563,38
1766015902.840567,37
1766015902.841574,33
1766015902.842582,37
1766015902.843588,37
1766015902.8445911,36
1766015902.8456,36
1766015902.846602,35
1766015902.8476028,35
1766015902.848605,32
1766015902.849619,36
1766015902.85061,34
1766015902.851618,34
1766015902.8526158,37
1766015902.853612,35
1766015902.854626,36
1766015902.855638,33
1766015902.856617,33
1766015902.8576262,37
1766015902.8586318,33
1766015902.859648,36
1766015902.86065,38
1766015902.861641,35
1766015902.862648,32
1766015902.86366,34
1766015902.8646588,36
1766015902.86565,33
1766015902.866653,37
1766015902.867681,37
1766015902.868674,35
1766015902.869681,34
1766015902.870656,32
1766015902.8716748,37
1766015902.872671,33
1766015902.8736808,34
1766015902.874676,36
1766015902.875693,35
1766015902.8767161,33
1766015902.8776991,35
1766015902.8786938,39
1766015902.879721,37
1766015902.8807008,42
1766015902.881702,35
1766015902.8827012,35
1766015902.8837152,39
1766015902.8847091,35
1766015902.88571,36
1766015902.886708,36
1766015902.8877409,36
1766015902.8887308,36
1766015902.889728,34
1766015902.8907251,33
1766015902.891737,34
1766015902.892756,36
1766015902.893725,33
1766015902.894727,37
1766015902.895746,34
1766015902.896771,35
1766015902.8977358,34
1766015902.8987331,35
1766015902.899768,35
1766015902.900756,37
1766015902.901778,33
1766015902.902765,35
1766015902.903768,33
1766015902.904792,35
1766015902.905778,34
1766015902.90678,34
1766015902.9077802,38
1766015902.908787,36
1766015902.909785,31
1766015902.9107819,36
1766015902.91178,34
1766015902.91279,34
1766015902.913833,36
1766015902.914816,35
1766015902.9158132,35
1766015902.916797,35
1766015902.917824,35
1766015902.918818,36
1766015902.919821,32
1766015902.920806,33
1766015902.921817,35
1766015902.9228191,35
1766015902.923808,33
1766015902.924816,33
1766015902.925835,35
1766015902.92683,35
1766015902.927839,35
1766015902.9288478,34
1766015902.929857,36
1766015902.930847,38
1766015902.931844,32
1766015902.932843,35
1766015902.9338582,34
1766015902.934873,32
1766015902.935851,36
1766015902.936884,33
1766015902.937866,36
1766015902.9388769,33
1766015902.939873,33
1766015902.9408882,34
1766015902.941876,34
1766015902.9428842,38
1766015902.943881,36
1766015902.944895,33
1766015902.945889,34
1766015902.9469042,33
1766015902.9478898,35
1766015902.948894,36
1766015902.949895,35
1766015902.950913,32
1766015902.9519129,35
1766015902.952896,34
1766015902.9539242,34
1766015902.9549172,31
1766015902.955915,33
1766015902.9569159,32
1766015902.957928,32
1766015902.9589288,35
1766015902.959935,33
1766015902.9609249,37
1766015902.96192,33
1766015902.9629362,33
1766015902.9639418,35
1766015902.965049,34
1766015902.966059,34
1766015902.966954,34
1766015902.968044,35
1766015902.969036,34
1766015902.970028,35
1766015902.97104,35
1766015902.97203,35
1766015902.973027,36
1766015902.974018,34
1766015902.975019,31
1766015902.976032,37
1766015902.977043,31
1766015902.978028,35
1766015902.979051,33
1766015902.980036,34
1766015902.981028,33
1766015902.982042,33
1766015902.9830358,35
1766015902.9840481,34
1766015902.9850361,33
1766015902.986042,35
1766015902.9870322,35
1766015902.98803,37
1766015902.989032,33
1766015902.9900448,35
1766015902.99103,37
1766015902.992029,36
1766015902.9930508,37
1766015902.9940338,33
1766015902.995042,35
1766015902.996036,35
1766015902.9970481,38
1766015902.998034,38
1766015902.9990232,36
1766015903.000035,36
1766015903.001066,36
1766015903.002039,35
1766015903.003071,37
1766015903.004079,36
1766015903.0050611,36
1766015903.006068,38
1766015903.0070558,35
1766015903.008072,37
1766015903.009082,36
1766015903.0100758,40
1766015903.0110772,35
1766015903.0120919,37
1766015903.0130801,39
1766015903.014119,37
1766015903.0151,35
1766015903.016097,34
1766015903.017101,34
1766015903.018104,38
1766015903.0191119,37
1766015903.020129,36
1766015903.021135,34
1766015903.022135,38
1766015903.0231302,36
1766015903.0241358,37
1766015903.0251389,38
1766015903.026168,37
1766015903.027154,38
1766015903.0281448,42
1766015903.0291572,43
1766015903.030158,40
1766015903.031159,39
1766015903.03216,39
1766015903.033181,41
1766015903.0342138,39
1766015903.035202,43
1766015903.036163,39
1766015903.0371919,37
1766015903.038194,41
1766015903.0391731,38
1766015903.040141,38
1766015903.041158,36
1766015903.042153,39
1766015903.043147,39
1766015903.044169,39
1766015903.045158,40
1766015903.046207,41
1766015903.047209,38
1766015903.048199,39
1766015903.049216,39
1766015903.050216,38
1766015903.051231,39
1766015903.052185,39
1766015903.053215,36
1766015903.0541902,40
1766015903.055211,35
1766015903.056222,39
1766015903.057197,39
1766015903.058218,36
1766015903.059205,39
1766015903.0602171,44
1766015903.061216,44
1766015903.062217,43
1766015903.06321,45
1766015903.064221,41
1766015903.065224,40
1766015903.0662332,42
1766015903.06723,42
