timestamp,emg_value
1766015889.8669188,41
1766015889.866952,39
1766015889.86698,42
1766015889.867006,40
1766015889.867032,42
1766015889.867059,39
1766015889.8670862,41
1766015889.8671129,41
1766015889.867139,41
1766015889.8671649,39
1766015889.867192,42
1766015889.8672168,40
1766015889.867243,38
1766015889.867268,39
1766015889.8672938,40
1766015889.86732,40
1766015889.8673458,37
1766015889.867373,40
1766015889.867399,41
1766015889.867425,41
1766015889.867451,37
1766015889.867487,43
1766015889.8675141,40
1766015889.86754,39
1766015889.867557,41
1766015889.867573,40
1766015889.8675892,40
1766015889.867604,40
1766015889.867619,40
1766015889.8676338,39
1766015889.867649,38
1766015889.8676639,41
1766015889.867687,41
1766015889.867702,40
1766015889.867717,39
1766015889.867732,39
1766015889.867747,39
1766015889.8677619,39
1766015889.867777,42
1766015889.867792,39
1766015889.867807,38
1766015889.8678231,39
1766015889.867837,37
1766015889.867852,40
1766015889.867867,38
1766015889.867882,36
1766015889.867897,35
1766015889.867912,38
1766015889.867927,38
1766015889.8679411,35
1766015889.867956,37
1766015889.8679712,35
1766015889.867986,32
1766015889.868002,38
1766015889.868017,37
1766015889.868032,38
1766015889.868047,39
1766015889.868062,36
1766015889.868077,40
1766015889.8680918,38
1766015889.868107,38
1766015889.868122,40
1766015889.868137,38
1766015889.8681521,40
1766015889.868169,38
1766015889.868193,39
1766015889.8682082,38
1766015889.868223,36
1766015889.868238,40
1766015889.868253,38
1766015889.868268,41
1766015889.8682828,39
1766015889.868298,39
1766015889.868313,35
1766015889.8683279,37
1766015889.868343,41
1766015889.868358,37
1766015889.868375,41
1766015889.8683891,36
1766015889.868404,35
1766015889.8684192,37
1766015889.868434,38
1766015889.868449,37
1766015889.868469,39
1766015889.8684852,36
1766015889.868499,39
1766015889.868514,35
1766015889.8685288,35
1766015889.868544,37
1766015889.8685591,36
1766015889.868574,39
1766015889.8685892,38
1766015889.868604,38
1766015889.868619,39
1766015889.868635,38
1766015889.86865,34
1766015889.868665,37
1766015889.868683,36
1766015889.8686981,35
1766015889.868713,32
1766015889.8687282,35
1766015889.868744,36
1766015889.8687592,36
1766015889.868774,36
1766015889.868789,38
1766015889.868804,35
1766015889.868819,38
1766015889.868834,38
1766015889.868861,40
1766015889.868884,37
1766015889.868899,38
1766015889.868914,36
1766015889.868931,34
1766015889.8689458,35
1766015889.868961,34
1766015889.8689768,37
1766015889.868992,36
1766015889.869007,40
1766015889.869021,37
1766015889.869036,37
1766015889.869051,39
1766015889.869066,39
1766015889.869081,41
1766015889.869096,40
1766015889.869111,38
1766015889.8691251,40
1766015889.86914,44
1766015889.8691552,42
1766015889.86917,41
1766015889.869189,44
1766015889.869204,43
1766015889.869219,47
1766015889.8692338,44
1766015889.869249,49
1766015889.869266,48
1766015889.869283,49
1766015889.869298,47
1766015889.869313,47
1766015889.8693278,49
1766015889.869345,50
1766015889.8693602,48
1766015889.869375,47
1766015889.86939,47
1766015889.869405,47
1766015889.86942,49
1766015889.8694348,47
1766015889.86945,48
1766015889.8694751,45
1766015889.8694952,49
1766015889.8695092,44
1766015889.869521,46
1766015889.869534,45
1766015889.869547,45
1766015889.86956,45
1766015889.869573,45
1766015889.8695848,43
1766015889.869598,43
1766015889.869611,41
1766015889.8696241,41
1766015889.869637,40
1766015889.86965,41
1766015889.869663,41
1766015889.8696792,40
1766015889.869694,39
1766015889.869707,43
1766015889.86972,42
1766015889.869733,43
1766015889.8697448,45
1766015889.869758,44
1766015889.869771,43
1766015889.869784,49
1766015889.869796,47
1766015889.869809,45
1766015889.869823,49
1766015889.869836,48
1766015889.8698492,44
1766015889.8698611,46
1766015889.869874,46
1766015889.8698869,43
1766015889.8699,44
1766015889.869913,43
1766015889.869925,46
1766015889.869938,44
1766015889.869951,41
1766015889.8699641,45
1766015889.869977,46
1766015889.8699892,42
1766015889.870002,43
1766015889.870015,40
1766015889.870028,43
1766015889.8700411,41
1766015889.870054,41
1766015889.870067,42
1766015889.870079,42
1766015889.870094,40
1766015889.87011,39
1766015889.870123,40
1766015889.870136,42
1766015889.8701491,39
1766015889.870162,40
1766015889.870175,40
1766015889.870188,45
1766015889.8702002,45
1766015889.870213,40
1766015889.870226,41
1766015889.870239,42
1766015889.8702521,42
1766015889.870265,45
1766015889.870278,46
1766015889.8702898,44
1766015889.870303,46
1766015889.870316,42
1766015889.8703291,41
1766015889.8703418,43
1766015889.870355,41
1766015889.870368,43
1766015889.870381,43
1766015889.870393,47
1766015889.870406,43
1766015889.870419,43
1766015889.870432,40
1766015889.870445,42
1766015889.8704581,40
1766015889.870471,42
1766015889.8704891,40
1766015889.870503,43
1766015889.870518,45
1766015889.870535,41
1766015889.87055,41
1766015889.870563,40
1766015889.8705761,41
1766015889.870589,39
1766015889.870602,42
1766015889.870616,42
1766015889.870629,43
1766015889.870642,46
1766015889.8706539,43
1766015889.870667,45
1766015889.87068,47
1766015889.8706932,44
1766015889.8707058,43
1766015889.870719,48
1766015889.870733,47
1766015889.8707469,45
1766015889.870761,46
1766015889.8707771,45
1766015889.870791,46
1766015889.870804,47
1766015889.870817,45
1766015889.87083,46
1766015889.8708422,47
1766015889.8708549,43
1766015889.870868,48
1766015889.870881,44
1766015889.870901,44
1766015889.870914,41
1766015889.870927,44
1766015889.87094,43
1766015889.8709528,42
1766015889.870968,41
1766015889.870985,42
1766015889.870999,44
1766015889.8710122,42
1766015889.8710248,44
1766015889.871037,36
1766015889.87105,38
1766015889.871063,39
1766015889.871076,40
1766015889.871089,38
1766015889.8711019,38
1766015889.871121,39
1766015889.871136,40
1766015889.871149,40
1766015889.871161,38
1766015889.8711739,36
1766015889.871187,42
1766015889.8712,36
1766015889.871213,39
1766015889.871225,39
1766015889.871239,39
1766015889.871252,39
1766015889.871265,37
1766015889.871278,37
1766015889.8713,38
1766015889.871312,41
1766015889.871325,37
1766015889.871338,39
1766015889.871351,39
1766015889.871364,38
1766015889.871377,39
1766015889.8713899,39
1766015889.871403,36
1766015889.871419,39
1766015889.871434,39
1766015889.871447,36
1766015889.8714602,39
1766015889.871477,37
1766015889.871491,35
1766015889.871511,37
1766015889.871526,39
1766015889.871541,35
1766015889.8715541,37
1766015889.871567,39
1766015889.87158,37
1766015889.871593,37
1766015889.871605,35
1766015889.871618,36
1766015889.8716311,34
1766015889.871644,35
1766015889.871657,33
1766015889.87167,36
1766015889.8716831,35
1766015889.8716958,37
1766015889.871711,37
1766015889.8717241,35
1766015889.871737,39
1766015889.8717499,34
1766015889.871762,34
1766015889.871775,35
1766015889.871788,33
1766015889.8718011,35
1766015889.8718138,33
1766015889.871827,35
1766015889.87184,33
1766015889.87186,33
1766015889.871875,34
1766015889.8719401,33
1766015889.8719559,34
1766015889.87197,34
1766015889.871983,34
1766015889.871996,35
1766015889.87201,33
1766015889.872022,35
1766015889.872035,34
1766015889.8720481,35
1766015889.872061,33
1766015889.872074,33
1766015889.872087,31
1766015889.8721,33
1766015889.872113,31
1766015889.8721259,31
1766015889.872138,29
1766015889.8721511,29
1766015889.872164,32
1766015889.872177,32
1766015889.87219,31
1766015889.872203,32
1766015889.872216,35
1766015889.872229,30
1766015889.872242,29
1766015889.872255,32
1766015889.872267,28
1766015889.8722801,30
1766015889.872295,32
1766015889.872308,30
1766015889.8723211,26
1766015889.872334,31
1766015889.87235,30
1766015889.872363,31
1766015889.872376,32
1766015889.872389,32
1766015889.872402,30
1766015889.872415,32
1766015889.872428,31
1766015889.872441,28
1766015889.872454,28
1766015889.872467,29
1766015889.87248,29
1766015889.8724968,31
1766015889.872511,29
1766015889.872524,31
1766015889.8725371,34
1766015889.8725498,31
1766015889.872563,30
1766015889.872575,31
1766015889.872588,30
1766015889.872601,30
1766015889.872614,31
1766015889.872627,28
1766015889.87264,30
1766015889.872653,27
1766015889.8726661,29
1766015889.872679,26
1766015889.8726919,29
1766015889.872704,30
1766015889.8727171,32
1766015889.87273,29
1766015889.872743,28
1766015889.872756,27
1766015889.87277,28
1766015889.872784,28
1766015889.872797,28
1766015889.872809,28
1766015889.872822,28
1766015889.8728352,27
1766015889.8728478,31
1766015889.872861,31
1766015889.872874,28
1766015889.8728871,28
1766015889.8729,27
1766015889.872913,28
1766015889.872927,30
1766015889.87294,26
1766015889.8729532,30
1766015889.872965,26
1766015889.872978,29
1766015889.872991,30
1766015889.873004,26
1766015889.873017,25
1766015889.87303,26
1766015889.873043,26
1766015889.873055,27
1766015889.873068,28
1766015889.873081,28
1766015889.8730938,30
1766015889.873107,27
1766015889.87312,27
1766015889.873133,23
1766015889.873146,27
1766015889.873159,24
1766015889.8731709,25
1766015889.873184,26
1766015889.8732018,26
1766015889.873215,25
1766015889.8732271,27
1766015889.87324,27
1766015889.873253,28
1766015889.873266,27
1766015889.873279,29
1766015889.873292,26
1766015889.873305,25
1766015889.873318,26
1766015889.8733308,27
1766015889.873344,26
1766015889.873357,26
1766015889.8733702,25
1766015889.8733828,26
1766015889.873396,27
1766015889.873409,26
1766015889.8734238,24
1766015889.873437,28
1766015889.8734531,26
1766015889.873466,25
1766015889.873479,25
1766015889.873495,25
1766015889.87351,26
1766015889.873525,25
1766015889.873544,25
1766015889.873557,25
1766015889.87357,24
1766015889.873583,23
1766015889.873596,23
1766015889.8736079,28
1766015889.873621,24
1766015889.873636,25
1766015889.873652,27
1766015889.873666,25
1766015889.8736792,25
1766015889.8736918,26
1766015889.873705,26
1766015889.873718,24
1766015889.873732,24
1766015889.873746,27
1766015889.873759,27
1766015889.873773,24
1766015889.8737862,24
1766015889.8737988,25
1766015889.873812,27
1766015889.8738282,24
1766015889.873844,23
1766015889.873857,23
1766015889.873871,26
1766015889.8738828,24
1766015889.873896,23
1766015889.873909,25
1766015889.873922,25
1766015889.8739352,27
1766015889.8739479,23
1766015889.873961,26
1766015889.873974,23
1766015889.873987,25
1766015889.8739998,22
1766015889.874013,24
1766015889.874026,24
1766015889.874039,24
1766015889.874052,25
1766015889.874065,25
1766015889.8740952,24
1766015889.874109,23
1766015889.874122,26
1766015889.874135,26
1766015889.8741481,23
1766015889.874161,26
1766015889.8741739,25
1766015889.874187,24
1766015889.8742,22
1766015889.8742132,23
1766015889.8742259,24
1766015889.874239,23
1766015889.874252,24
1766015889.8742652,26
1766015889.8742778,24
1766015889.874347,22
1766015889.874364,21
1766015889.874377,26
1766015889.8743901,24
1766015889.874403,22
1766015889.874416,21
1766015889.874429,23
1766015889.874442,25
1766015889.874455,25
1766015889.874468,21
1766015889.874481,23
1766015889.8744938,21
1766015889.874513,25
1766015889.874526,23
1766015889.874539,21
1766015889.874552,23
1766015889.8745651,25
1766015889.874581,23
1766015889.874594,24
1766015889.874608,22
1766015889.874621,21
1766015889.874635,24
1766015889.874648,24
1766015889.8746612,26
1766015889.8746738,25
1766015889.874687,24
1766015889.8747,19
1766015889.8747132,26
1766015889.8747258,21
1766015889.87474,25
1766015889.874752,23
1766015889.874766,22
1766015889.874778,24
1766015889.8747919,25
1766015889.874805,23
1766015889.874818,24
1766015889.8748312,23
1766015889.8748438,24
1766015889.874857,20
1766015889.87487,24
1766015889.8748832,21
1766015889.8748958,28
1766015889.874909,19
1766015889.8749208,23
1766015889.8749352,23
1766015889.874948,24
1766015889.87496,24
1766015889.8749728,23
1766015889.8749871,24
1766015889.875,20
1766015889.875015,22
1766015889.875028,24
1766015889.875041,23
1766015889.8750541,25
1766015889.875067,23
1766015889.8750799,19
1766015889.875093,25
1766015889.875106,20
1766015889.8751192,21
1766015889.8751318,23
1766015889.875145,23
1766015889.875158,22
1766015889.8751712,23
1766015889.875183,20
1766015889.875197,22
1766015889.87521,22
1766015889.875223,21
1766015889.875236,25
1766015889.875249,22
1766015889.875262,21
1766015889.875276,25
1766015889.8752892,22
1766015889.8753018,26
1766015889.875315,22
1766015889.875328,20
1766015889.8753421,22
1766015889.8753548,20
1766015889.8753679,22
1766015889.875381,21
1766015889.875394,25
1766015889.8754072,21
1766015889.8754199,24
1766015889.875436,25
1766015889.8754518,25
1766015889.875465,21
1766015889.875478,24
1766015889.8754911,21
1766015889.875509,23
1766015889.8755221,22
1766015889.875535,21
1766015889.875548,23
1766015889.875562,23
1766015889.875575,22
1766015889.8755882,23
1766015889.8756008,22
1766015889.875613,22
1766015889.875627,25
1766015889.875639,23
1766015889.875652,23
1766015889.875665,24
1766015889.875679,24
1766015889.875691,26
1766015889.875704,24
1766015889.8757172,23
1766015889.87573,24
1766015889.875743,24
1766015889.875756,21
1766015889.8757691,23
1766015889.8757818,22
1766015889.875796,25
1766015889.875809,21
1766015889.875821,25
1766015889.875835,26
1766015889.8758469,22
1766015889.87586,24
1766015889.875875,24
1766015889.8758888,23
1766015889.875902,28
1766015889.875915,26
1766015889.8759282,28
1766015889.875941,26
1766015889.8759549,23
1766015889.875967,22
1766015889.8759801,25
1766015889.8759942,24
1766015889.8760068,24
1766015889.87602,23
1766015889.876033,25
1766015889.8760462,25
1766015889.8760588,25
1766015889.876072,27
1766015889.876085,25
1766015889.8760982,25
1766015889.876111,28
1766015889.876124,24
1766015889.8761358,24
1766015889.8761501,24
1766015889.876162,24
1766015889.8761752,24
1766015889.8761878,21
1766015889.876201,27
1766015889.876214,24
1766015889.8762271,24
1766015889.8762398,24
1766015889.8762538,26
1766015889.876266,25
1766015889.876279,24
1766015889.876294,27
1766015889.876308,26
1766015889.87632,28
1766015889.876333,25
1766015889.876346,25
1766015889.876359,23
1766015889.8763719,25
1766015889.876385,25
1766015889.876398,27
1766015889.876411,25
1766015889.8764238,26
1766015889.876437,24
1766015889.87645,24
1766015889.8764632,25
1766015889.8764758,26
1766015889.876489,27
1766015889.8765068,25
1766015889.8765209,24
1766015889.876534,26
1766015889.876547,25
1766015889.87656,25
1766015889.876572,26
1766015889.876585,25
1766015889.8765981,24
1766015889.8766122,25
1766015889.8766248,26
1766015889.876638,24
1766015889.876651,25
1766015889.876663,24
1766015889.876676,26
1766015889.876689,27
1766015889.876702,24
1766015889.876714,23
1766015889.876729,22
1766015889.876742,24
1766015889.876755,24
1766015889.876768,25
1766015889.8767848,23
1766015889.876798,27
1766015889.87681,26
1766015889.876823,26
1766015889.876836,25
1766015889.876849,24
1766015889.876862,23
1766015889.876876,24
1766015889.876888,23
1766015889.8769011,26
1766015889.876914,23
1766015889.876927,26
1766015889.87694,26
1766015889.8769531,27
1766015889.876966,25
1766015889.8769789,28
1766015889.876991,23
1766015889.8770041,23
1766015889.877017,28
1766015889.87703,22
1766015889.877043,26
1766015889.877056,27
1766015889.877069,25
1766015889.877082,26
1766015889.877095,25
1766015889.8771079,27
1766015889.877121,28
1766015889.877134,27
1766015889.877151,26
1766015889.877165,25
1766015889.877185,29
1766015889.8772,27
1766015889.877215,25
1766015889.877228,24
1766015889.8772411,26
1766015889.8772569,24
1766015889.877271,25
1766015889.877284,25
1766015889.877297,28
1766015889.87731,26
1766015889.877323,26
1766015889.877336,28
1766015889.8773491,25
1766015889.877363,27
1766015889.877376,25
1766015889.877389,25
1766015889.877401,27
1766015889.877412,27
1766015889.8774242,27
1766015889.877435,26
1766015889.877446,29
1766015889.8774579,26
1766015889.8774688,24
1766015889.87748,26
1766015889.877491,28
1766015889.877507,27
1766015889.8775191,29
1766015889.87753,28
1766015889.877541,22
1766015889.877553,27
1766015889.877564,26
1766015889.877578,26
1766015889.87759,29
1766015889.877602,29
1766015889.877613,23
1766015889.877624,30
1766015889.8776362,27
1766015889.8776472,27
1766015889.8776588,29
1766015889.877673,28
1766015889.8776839,28
1766015889.877696,29
1766015889.8777092,26
1766015889.877721,27
1766015889.877734,28
1766015889.877747,26
1766015889.877758,28
1766015889.877769,27
1766015889.87778,29
1766015889.877792,28
1766015889.877804,29
1766015889.877818,26
1766015889.8778298,27
1766015889.877841,29
1766015889.877852,26
1766015889.877864,28
1766015889.8778749,27
1766015889.877886,29
1766015889.877897,29
1766015889.877909,26
1766015889.87792,27
1766015889.877931,26
1766015889.877943,28
1766015889.877954,28
1766015889.8779688,27
1766015889.877982,27
1766015889.8779929,28
1766015889.878004,26
1766015889.878015,30
1766015889.878027,27
1766015889.878038,27
1766015889.8780491,27
1766015889.878061,25
1766015889.878072,28
1766015889.878083,28
1766015889.8780942,29
1766015889.8781052,28
1766015889.878117,27
1766015889.878128,27
1766015889.8781388,28
1766015889.87815,27
1766015889.878162,26
1766015889.8781729,25
1766015889.8781838,30
1766015889.878195,25
1766015889.878207,25
1766015889.878218,24
1766015889.878229,27
1766015889.87824,26
1766015889.878251,25
1766015889.878263,29
1766015889.878274,25
1766015889.8782852,25
1766015889.878297,27
1766015889.878308,25
1766015889.8783202,26
1766015889.878332,29
1766015889.878346,27
1766015889.878359,28
1766015889.87837,27
1766015889.878381,28
1766015889.878392,29
1766015889.8784041,28
1766015889.878415,26
1766015889.878426,27
1766015889.878438,26
1766015889.878449,23
1766015889.87846,25
1766015889.878471,28
1766015889.878483,22
1766015889.878494,23
1766015889.878506,24
1766015889.878518,25
1766015889.878531,25
1766015889.8785431,24
1766015889.8785548,29
1766015889.8785658,23
1766015889.878577,27
1766015889.878589,23
1766015889.8786,26
1766015889.8786108,27
1766015889.878623,25
1766015889.878634,28
1766015889.878646,26
1766015889.878657,28
1766015889.878669,26
1766015889.87868,26
1766015889.878691,27
1766015889.878703,26
1766015889.878717,25
1766015889.878731,25
1766015889.878743,26
1766015889.8787541,23
1766015889.878765,26
1766015889.878777,24
1766015889.878788,24
1766015889.8788,24
1766015889.878811,26
1766015889.8788228,27
1766015889.878836,26
1766015889.878849,24
1766015889.878861,23
1766015889.878873,23
1766015889.878885,23
1766015889.8788962,27
1766015889.878908,23
1766015889.8789198,25
1766015889.878931,25
1766015889.878942,26
1766015889.878954,22
1766015889.878965,27
1766015889.878984,23
1766015889.878995,24
1766015889.879006,23
1766015889.8790169,23
1766015889.879029,26
1766015889.87904,26
1766015889.879051,23
1766015889.8790631,20
1766015889.879074,24
1766015889.879086,26
1766015889.8790982,24
1766015889.8791099,23
1766015889.8791208,27
1766015889.8791318,23
1766015889.879143,24
1766015889.879155,25
1766015889.879166,27
1766015889.8791769,25
1766015889.879194,25
1766015889.879206,23
1766015889.879217,25
1766015889.8792288,24
1766015889.87924,25
1766015889.879251,24
1766015889.879263,26
1766015889.879274,25
1766015889.879285,26
1766015889.879296,27
1766015889.879308,25
1766015889.879319,28
1766015889.8793302,25
1766015889.879343,23
1766015889.879356,22
1766015889.8793678,26
1766015889.879379,25
1766015889.87939,26
1766015889.879401,23
1766015889.879413,25
1766015889.879424,24
1766015889.879435,23
1766015889.879447,26
1766015889.87946,24
1766015889.879471,25
1766015889.879484,22
1766015889.8794959,23
1766015889.8795068,23
1766015889.879518,25
1766015889.879534,21
1766015889.8795462,21
1766015889.8795571,26
1766015889.8795679,24
1766015889.87958,23
1766015889.879591,27
1766015889.8796108,22
1766015889.879627,23
1766015889.87964,24
1766015889.879654,27
1766015889.879665,25
1766015889.8796759,23
1766015889.8796868,24
1766015889.879699,23
1766015889.87971,23
1766015889.879721,22
1766015889.879733,24
1766015889.879744,22
1766015889.879755,22
1766015889.879767,22
1766015889.8797781,24
1766015889.879789,23
1766015889.8798,22
1766015889.879812,24
1766015889.8798232,24
1766015889.8798342,22
1766015889.8798459,22
1766015889.8798568,20
1766015889.8798678,23
1766015889.879881,21
1766015889.879893,23
1766015889.879904,25
1766015889.879915,22
1766015889.879926,24
1766015889.879937,26
1766015889.879949,25
1766015889.87996,21
1766015889.879971,25
1766015889.879982,22
1766015889.8799932,23
1766015889.8800042,23
1766015889.8800159,23
1766015889.880032,24
1766015889.880045,25
1766015889.8800588,22
1766015889.880073,23
1766015889.8800929,21
1766015889.880106,23
1766015889.8801181,22
1766015889.88013,21
1766015889.880141,23
1766015889.880152,23
1766015889.880163,25
1766015889.880175,23
1766015889.880186,21
1766015889.880197,22
1766015889.8802078,23
1766015889.88022,23
1766015889.8802319,21
1766015889.880244,22
1766015889.880255,23
1766015889.880266,21
1766015889.880277,21
1766015889.880289,20
1766015889.8803,24
1766015889.880312,20
1766015889.8803232,23
1766015889.8803341,23
1766015889.880346,22
1766015889.880357,22
1766015889.8803682,22
1766015889.880379,20
1766015889.880391,23
1766015889.8804018,23
1766015889.8804128,22
1766015889.880424,22
1766015889.880435,23
1766015889.880447,22
1766015889.8804579,22
1766015889.880469,24
1766015889.88048,20
1766015889.880491,24
1766015889.880503,22
1766015889.880515,20
1766015889.880528,21
1766015889.880539,21
1766015889.880552,21
1766015889.880564,23
1766015889.880576,20
1766015889.880587,23
1766015889.880598,23
1766015889.880609,26
1766015889.88062,25
1766015889.8806322,24
1766015889.8806431,23
1766015889.880654,21
1766015889.880666,23
1766015889.8806772,22
1766015889.8806882,21
1766015889.880699,23
1766015889.8807108,22
1766015889.8807218,21
1766015889.880733,23
1766015889.880744,21
1766015889.880756,23
1766015889.8807669,23
1766015889.880778,22
1766015889.880789,21
1766015889.8808,19
1766015889.880812,22
1766015889.8808231,22
1766015889.880834,24
1766015889.880845,23
1766015889.880857,24
1766015889.8808682,24
1766015889.8808792,21
1766015889.8808901,23
1766015889.8809018,22
1766015889.8809128,21
1766015889.880924,25
1766015889.880935,21
1766015889.8809469,22
1766015889.8809578,21
1766015889.880969,23
1766015889.88098,21
1766015889.880992,23
1766015889.881003,23
1766015889.881014,21
1766015889.881025,21
1766015889.881037,19
1766015889.881048,22
1766015889.8810592,22
1766015889.8810701,22
1766015889.881081,22
1766015889.881092,22
1766015889.8811038,22
1766015889.881115,22
1766015889.881126,20
1766015889.881137,21
1766015889.8811488,23
1766015889.88116,25
1766015889.881171,21
1766015889.881182,24
1766015889.881193,23
1766015889.881204,23
1766015889.881216,24
1766015889.881227,21
1766015889.881238,20
1766015889.8812501,23
1766015889.881263,21
1766015889.8812742,19
1766015889.881288,22
1766015889.881301,23
1766015889.881313,21
1766015889.881324,22
1766015889.881335,23
1766015889.8813472,20
1766015889.881357,19
1766015889.881367,23
1766015889.881377,23
1766015889.881387,21
1766015889.881397,20
1766015889.881407,21
1766015889.881417,21
1766015889.881427,24
1766015889.8814368,20
1766015889.8814468,22
1766015889.8814569,21
1766015889.8814669,23
1766015889.881477,18
1766015889.8814871,24
1766015889.881496,22
1766015889.881506,19
1766015889.88152,21
1766015889.8815308,24
1766015889.881541,24
1766015889.881551,23
1766015889.881561,23
1766015889.881571,21
1766015889.881581,22
1766015889.881591,20
1766015889.881601,20
1766015889.881611,23
1766015889.881621,21
1766015889.881631,22
1766015889.88164,23
1766015889.88165,24
1766015889.881661,22
1766015889.881671,24
1766015889.881681,24
1766015889.881691,22
1766015889.8817012,21
1766015889.881711,21
1766015889.881721,23
1766015889.881731,22
1766015889.881741,20
1766015889.881751,25
1766015889.881761,19
1766015889.881771,23
1766015889.881781,21
1766015889.881792,23
1766015889.881802,24
1766015889.881813,20
1766015889.881823,19
1766015889.881833,23
1766015889.8818429,22
1766015889.881854,23
1766015889.8818638,22
1766015889.8818738,22
1766015889.8818848,22
1766015889.8818939,24
1766015889.8819041,20
1766015889.8819149,20
1766015889.881925,22
1766015889.8819351,24
1766015889.8819451,23
1766015889.8819551,24
1766015889.8819652,21
1766015889.881975,22
1766015889.881985,19
1766015889.881995,23
1766015889.882005,23
1766015889.882015,22
1766015889.882025,24
1766015889.882035,22
1766015889.882045,23
1766015889.8820548,23
1766015889.882066,25
1766015889.8820758,22
1766015889.8820858,22
1766015889.882096,22
1766015889.882106,21
1766015889.882116,23
1766015889.882126,22
1766015889.882136,21
1766015889.8821461,23
1766015889.8821561,19
1766015889.882167,24
1766015889.882177,20
1766015889.882187,21
1766015889.882198,21
1766015889.88221,24
1766015889.882221,24
1766015889.882231,23
1766015889.882241,25
1766015889.882251,25
1766015889.882261,21
1766015889.882271,26
1766015889.882283,23
1766015889.8822951,23
1766015889.882305,22
1766015889.882317,23
1766015889.882327,22
1766015889.882339,22
1766015889.8823512,23
1766015889.8823621,24
1766015889.8823721,23
1766015889.8823822,25
1766015889.882394,22
1766015889.882406,21
1766015889.882418,23
1766015889.882428,21
1766015889.882593,21
1766015889.883638,19
1766015889.8846028,23
1766015889.885605,25
1766015889.886605,22
1766015889.887626,23
1766015889.888656,25
1766015889.889604,20
1766015889.890656,22
1766015889.891615,25
1766015889.89264,25
1766015889.8936598,22
1766015889.894654,23
1766015889.895662,23
1766015889.896647,23
1766015889.8976672,25
1766015889.898666,21
1766015889.8996181,22
1766015889.900704,24
1766015889.901664,22
1766015889.9026718,24
1766015889.9036689,24
1766015889.90467,21
1766015889.905673,22
1766015889.906642,22
1766015889.907677,23
1766015889.908684,24
1766015889.909684,20
1766015889.910676,25
1766015889.911699,22
1766015889.9127,21
1766015889.9136992,23
1766015889.9147148,23
1766015889.915703,26
1766015889.916699,25
1766015889.91771,25
1766015889.918675,23
1766015889.919712,23
1766015889.9207098,23
1766015889.9217331,25
1766015889.922719,21
1766015889.923784,24
1766015889.924723,21
1766015889.925698,22
1766015889.9267032,24
1766015889.9277382,23
1766015889.928697,25
1766015889.9297652,21
1766015889.9307132,22
1766015889.931746,23
1766015889.9327328,23
1766015889.93375,24
1766015889.934704,24
1766015889.935771,20
1766015889.93677,25
1766015889.9377909,21
1766015889.9388092,22
1766015889.939758,22
1766015889.94072,21
1766015889.94173,22
1766015889.942781,19
1766015889.943792,22
1766015889.944795,22
1766015889.945792,22
1766015889.946808,23
1766015889.9477901,24
1766015889.9487948,22
1766015889.9497721,21
1766015889.950809,20
1766015889.951788,22
1766015889.952823,20
1766015889.953793,21
1766015889.9548092,22
1766015889.955807,24
1766015889.956803,23
1766015889.957798,22
1766015889.958834,23
1766015889.959826,25
1766015889.960795,21
1766015889.9618402,23
1766015889.962856,23
1766015889.963788,23
1766015889.9648361,25
1766015889.965801,24
1766015889.966848,24
1766015889.967838,21
1766015889.968812,25
1766015889.969826,26
1766015889.970865,21
1766015889.9718158,23
1766015889.972855,22
1766015889.973855,21
1766015889.974846,26
1766015889.9758599,23
1766015889.9768682,22
1766015889.9778821,23
1766015889.978883,23
1766015889.979899,21
1766015889.980886,21
1766015889.981909,20
1766015889.982933,23
1766015889.983893,23
1766015889.984902,24
1766015889.985898,26
1766015889.986893,25
1766015889.987893,24
1766015889.988919,24
1766015889.9899368,22
1766015889.990932,24
1766015889.9919171,23
1766015889.992907,23
1766015889.993938,23
1766015889.994933,23
1766015889.995945,24
1766015889.9969542,23
1766015889.997949,25
1766015889.998964,22
1766015889.999949,25
1766015890.0009449,23
1766015890.001943,22
1766015890.002957,27
1766015890.003953,26
1766015890.0049899,24
1766015890.0059829,24
1766015890.006984,22
1766015890.0080209,25
1766015890.008986,25
1766015890.009962,23
1766015890.010987,23
1766015890.011978,24
1766015890.0130591,22
1766015890.0140412,26
1766015890.015039,22
1766015890.016046,23
1766015890.017044,25
1766015890.018029,22
1766015890.019063,23
1766015890.0200791,23
1766015890.021072,24
1766015890.0220659,22
1766015890.0230532,23
1766015890.0240378,22
1766015890.025048,26
1766015890.026043,26
1766015890.027044,24
1766015890.0281851,25
1766015890.029057,24
1766015890.030045,23
1766015890.0310342,26
1766015890.032043,22
1766015890.03307,22
1766015890.0340512,24
1766015890.03505,27
1766015890.036046,23
1766015890.037045,23
1766015890.038048,26
1766015890.039047,22
1766015890.0400681,22
1766015890.041059,22
1766015890.042048,26
1766015890.043064,24
1766015890.0440571,24
1766015890.045067,26
1766015890.0460448,21
1766015890.047053,25
1766015890.048065,24
1766015890.049083,23
1766015890.050084,25
1766015890.051072,25
1766015890.052084,23
1766015890.053081,27
1766015890.054079,23
1766015890.055103,21
1766015890.056096,26
1766015890.0571032,23
1766015890.058124,24
1766015890.0591161,24
1766015890.060117,26
1766015890.061119,24
1766015890.06211,24
1766015890.063117,22
1766015890.064123,24
1766015890.065114,21
1766015890.066133,23
1766015890.067133,26
1766015890.068133,23
1766015890.0691378,27
1766015890.070142,28
1766015890.071141,25
1766015890.0721679,26
1766015890.07315,27
1766015890.074173,27
1766015890.075167,27
1766015890.076163,28
1766015890.077159,27
1766015890.0781598,24
1766015890.0791569,26
1766015890.0801651,30
1766015890.0811672,28
1766015890.08218,25
1766015890.0831811,27
1766015890.084186,26
1766015890.085173,28
1766015890.086176,27
1766015890.0871732,26
1766015890.0881789,26
1766015890.089172,30
1766015890.090175,27
1766015890.091243,28
1766015890.092211,28
1766015890.093184,25
1766015890.094195,29
1766015890.095208,28
1766015890.096202,30
1766015890.097225,31
1766015890.098377,28
1766015890.099243,27
1766015890.1002162,31
1766015890.101231,29
1766015890.1022289,32
1766015890.10323,31
1766015890.104234,31
1766015890.105243,35
1766015890.106226,32
1766015890.107223,33
1766015890.108225,33
1766015890.109254,34
1766015890.110241,34
1766015890.111249,33
1766015890.1122491,34
1766015890.1132522,36
1766015890.1142552,37
1766015890.1152582,35
1766015890.1162822,37
1766015890.1172779,39
1766015890.118258,37
1766015890.1192808,45
1766015890.1202948,51
1766015890.121275,54
1766015890.122292,56
1766015890.123326,57
1766015890.124305,60
1766015890.125289,57
1766015890.1263099,58
1766015890.127295,60
1766015890.1283,57
1766015890.129293,60
1766015890.1303082,59
1766015890.131288,60
1766015890.132301,59
1766015890.133303,61
1766015890.134301,61
1766015890.1353102,59
1766015890.136317,57
1766015890.1373281,58
1766015890.1383302,54
1766015890.139355,57
1766015890.140324,60
1766015890.141365,58
1766015890.1423512,55
1766015890.1433501,57
1766015890.144335,58
1766015890.145354,56
1766015890.1463392,53
1766015890.147371,54
1766015890.148361,56
1766015890.1493618,53
1766015890.150358,57
1766015890.1513531,53
1766015890.152357,51
1766015890.153365,56
1766015890.154356,52
1766015890.1553578,56
1766015890.156356,51
1766015890.1574552,54
1766015890.15838,52
1766015890.159389,53
1766015890.160372,52
1766015890.1613948,51
1766015890.1623812,51
1766015890.163403,48
1766015890.164407,51
1766015890.1654038,50
1766015890.166399,52
1766015890.167403,48
1766015890.168418,49
1766015890.1694279,51
1766015890.1704152,48
1766015890.1714282,48
1766015890.172418,49
1766015890.173405,47
1766015890.174454,49
1766015890.175406,49
1766015890.176428,51
1766015890.177435,47
1766015890.178445,45
1766015890.179445,47
1766015890.180448,44
1766015890.181462,47
1766015890.182454,47
1766015890.183469,48
1766015890.18446,47
1766015890.185473,46
1766015890.186456,42
1766015890.187451,47
1766015890.1884851,45
1766015890.189467,48
1766015890.190488,48
1766015890.191487,48
1766015890.192488,49
1766015890.193488,47
1766015890.1944818,47
1766015890.195489,48
1766015890.196511,46
1766015890.197488,47
1766015890.198529,47
1766015890.199521,46
1766015890.200505,48
1766015890.201521,43
1766015890.202504,45
1766015890.20352,48
1766015890.204523,46
1766015890.205539,45
1766015890.206539,44
1766015890.207577,45
1766015890.208554,45
1766015890.209533,44
1766015890.210531,44
1766015890.2115421,45
1766015890.212555,44
1766015890.213553,44
1766015890.214525,44
1766015890.215541,47
1766015890.2165709,47
1766015890.21756,44
1766015890.2186081,47
1766015890.219581,44
1766015890.220576,44
1766015890.221575,47
1766015890.222612,45
1766015890.2236009,43
1766015890.2246242,46
1766015890.2255812,48
1766015890.2265759,50
1766015890.227574,49
1766015890.2285771,46
1766015890.229589,50
1766015890.230604,51
1766015890.231589,51
1766015890.232608,50
1766015890.2336068,52
1766015890.2346098,53
1766015890.23561,53
1766015890.236602,51
1766015890.2376041,49
1766015890.2386072,50
1766015890.239606,49
1766015890.2406569,50
1766015890.241641,47
1766015890.242628,46
1766015890.243624,50
1766015890.2446332,47
1766015890.24564,49
1766015890.2466571,45
1766015890.247654,45
1766015890.2486541,49
1766015890.2496362,51
1766015890.250609,48
1766015890.251647,47
1766015890.252666,46
1766015890.253642,48
1766015890.2546508,45
1766015890.2556522,48
1766015890.256674,48
1766015890.257704,47
1766015890.258676,44
1766015890.259684,45
1766015890.260672,43
1766015890.2616801,45
1766015890.2627058,45
1766015890.263724,47
1766015890.264689,44
1766015890.265706,44
1766015890.266697,44
1766015890.2676961,45
1766015890.268715,44
1766015890.269705,46
1766015890.2706811,45
1766015890.271714,44
1766015890.272714,46
1766015890.27372,43
1766015890.274719,46
1766015890.275713,46
1766015890.2767072,44
1766015890.27771,45
1766015890.2787101,49
1766015890.279716,50
1766015890.280725,48
1766015890.281754,45
1766015890.282767,49
1766015890.2837498,47
1766015890.284748,50
1766015890.2857301,48
1766015890.286763,49
1766015890.287738,48
1766015890.288737,49
1766015890.289762,48
1766015890.2907531,48
1766015890.291756,48
1766015890.292771,48
1766015890.2937548,48
1766015890.294768,47
1766015890.295758,47
1766015890.296777,46
1766015890.297769,50
1766015890.298945,48
1766015890.299778,51
1766015890.300786,48
1766015890.3017879,48
1766015890.302784,49
1766015890.3038,50
1766015890.304786,52
1766015890.3057878,49
1766015890.306802,51
1766015890.307816,51
1766015890.308768,50
1766015890.309809,51
1766015890.3108218,52
1766015890.311809,53
1766015890.312819,51
1766015890.3138509,51
1766015890.314827,54
1766015890.315829,52
1766015890.3168352,49
1766015890.3178198,51
1766015890.318848,51
1766015890.319819,52
1766015890.320822,51
1766015890.321818,52
1766015890.3228319,48
1766015890.323919,51
1766015890.3248582,53
1766015890.3258471,50
1766015890.326859,50
1766015890.327853,52
1766015890.328865,52
1766015890.329844,49
1766015890.3308558,49
1766015890.331882,51
1766015890.332944,49
1766015890.333866,47
1766015890.3348649,50
1766015890.335872,51
1766015890.3368561,49
1766015890.3378618,47
1766015890.338888,48
1766015890.339873,46
1766015890.3409002,49
1766015890.341874,45
1766015890.3428988,45
1766015890.343894,49
1766015890.344885,47
1766015890.345889,46
1766015890.346912,48
1766015890.347906,47
1766015890.348892,47
1766015890.349897,49
1766015890.350915,46
1766015890.3519201,44
1766015890.352937,45
1766015890.353926,49
1766015890.354947,47
1766015890.355941,45
1766015890.3569238,51
1766015890.3580658,48
1766015890.3589451,49
1766015890.359924,52
1766015890.3609548,50
1766015890.361908,50
1766015890.3629088,52
1766015890.3639412,53
1766015890.364925,50
1766015890.365898,52
1766015890.3669472,54
1766015890.3679419,51
1766015890.36894,45
1766015890.369944,49
1766015890.37094,47
1766015890.371958,47
1766015890.3729632,51
1766015890.374059,48
1766015890.3750489,46
1766015890.3760488,45
1766015890.3770509,49
1766015890.378051,45
1766015890.379045,47
1766015890.380078,47
1766015890.381054,46
1766015890.382047,46
1766015890.3830578,48
1766015890.3840482,45
1766015890.385057,44
1766015890.386053,44
1766015890.3870442,45
1766015890.388046,45
1766015890.3890471,46
1766015890.390045,45
1766015890.391074,43
1766015890.392065,42
1766015890.3930209,44
1766015890.394017,45
1766015890.395018,43
1766015890.396018,46
1766015890.397009,46
1766015890.398016,41
1766015890.39902,41
1766015890.400019,43
1766015890.401014,45
1766015890.402008,44
1766015890.403012,44
1766015890.404023,43
1766015890.405038,42
1766015890.406019,41
1766015890.40703,45
1766015890.4080498,43
1766015890.409041,42
1766015890.410037,43
1766015890.411019,40
1766015890.412061,41
1766015890.4130602,40
1766015890.4140851,42
1766015890.41507,41
1766015890.416024,43
1766015890.41709,41
1766015890.41807,44
1766015890.41909,41
1766015890.420083,44
1766015890.4211159,42
1766015890.4221172,42
1766015890.423109,42
1766015890.4241002,39
1766015890.425128,44
1766015890.4261398,42
1766015890.427131,42
1766015890.428131,41
1766015890.429125,39
1766015890.430149,46
1766015890.431138,42
1766015890.432132,42
1766015890.433151,43
1766015890.4341362,42
1766015890.435135,39
1766015890.436151,43
1766015890.437153,42
1766015890.438153,42
1766015890.439177,43
1766015890.4402418,41
1766015890.4411561,40
1766015890.4421408,40
1766015890.4431639,43
1766015890.4441721,41
1766015890.445198,43
1766015890.446198,40
1766015890.4471989,45
1766015890.4481752,45
1766015890.449152,43
1766015890.450132,44
1766015890.451147,44
1766015890.452131,42
1766015890.453147,44
1766015890.454199,42
1766015890.455204,45
1766015890.4561532,46
1766015890.457154,43
1766015890.458164,42
1766015890.459209,41
1766015890.460203,44
1766015890.461205,41
1766015890.462174,46
1766015890.46318,46
1766015890.464177,40
1766015890.4652338,37
1766015890.466186,45
1766015890.467236,44
1766015890.4682298,41
1766015890.469245,41
1766015890.470207,40
1766015890.4712472,40
1766015890.472239,44
1766015890.4732559,41
1766015890.4742038,41
1766015890.475203,40
1766015890.4762611,40
1766015890.477293,39
1766015890.4782588,38
1766015890.479218,39
1766015890.480267,42
1766015890.481226,37
1766015890.482238,42
1766015890.483226,36
1766015890.484288,38
1766015890.485266,37
1766015890.486271,39
1766015890.4872808,39
1766015890.4882848,39
1766015890.489284,37
1766015890.4903219,39
1766015890.491303,40
1766015890.492301,36
1766015890.493299,39
1766015890.494302,35
1766015890.495302,37
1766015890.496314,41
1766015890.497312,41
1766015890.498313,37
1766015890.499291,40
1766015890.500322,40
1766015890.5013309,42
1766015890.502316,39
1766015890.503304,40
1766015890.504318,43
1766015890.505335,43
1766015890.506335,41
1766015890.507334,43
1766015890.5083451,42
1766015890.509352,44
1766015890.510345,45
1766015890.5113559,47
1766015890.512356,48
1766015890.513346,44
1766015890.514379,46
1766015890.515376,47
1766015890.51636,44
1766015890.5173628,46
1766015890.518344,46
1766015890.5193741,45
1766015890.52038,45
1766015890.521375,43
1766015890.522389,45
1766015890.523398,43
1766015890.5243819,45
1766015890.525391,45
1766015890.5263832,45
1766015890.527391,42
1766015890.528406,47
1766015890.529401,41
1766015890.530407,43
1766015890.531407,43
1766015890.532408,45
1766015890.533406,40
1766015890.534404,41
1766015890.535414,41
1766015890.536421,44
1766015890.5374138,40
1766015890.5384362,38
1766015890.539453,42
1766015890.540416,39
1766015890.5414321,41
1766015890.542412,38
1766015890.5434098,39
1766015890.5444229,41
1766015890.545432,37
1766015890.546437,36
1766015890.547462,37
1766015890.548458,40
1766015890.549458,40
1766015890.5504608,40
1766015890.551469,36
1766015890.5524821,41
1766015890.553495,40
1766015890.5545,39
1766015890.555488,40
1766015890.5564868,40
1766015890.557458,40
1766015890.558448,37
1766015890.5594518,37
1766015890.5604422,35
1766015890.561465,37
1766015890.562458,38
1766015890.563454,36
1766015890.56448,36
1766015890.565504,37
1766015890.5664809,34
1766015890.567471,37
1766015890.5685198,35
1766015890.569522,33
1766015890.570527,34
1766015890.5714922,40
1766015890.572532,37
1766015890.573518,39
1766015890.5745568,40
1766015890.5755389,38
1766015890.576538,38
1766015890.577566,38
1766015890.578559,38
1766015890.5795672,40
1766015890.580569,38
1766015890.5815418,39
1766015890.582539,41
1766015890.583533,39
1766015890.584558,37
1766015890.585554,40
1766015890.586567,40
1766015890.587557,38
1766015890.588591,39
1766015890.5895529,38
1766015890.590572,39
1766015890.591555,38
1766015890.592573,35
1766015890.593578,39
1766015890.594589,38
1766015890.595582,39
1766015890.5965729,40
1766015890.59758,40
1766015890.5985842,37
1766015890.599591,37
1766015890.600605,36
1766015890.601589,38
1766015890.602601,36
1766015890.603604,37
1766015890.6046212,39
1766015890.605591,36
1766015890.606617,34
1766015890.6076229,38
1766015890.608601,37
1766015890.609609,40
1766015890.610645,35
1766015890.611624,35
1766015890.612635,35
1766015890.613628,35
1766015890.6146371,36
1766015890.615649,35
1766015890.616653,35
1766015890.617651,36
1766015890.618666,36
1766015890.619669,31
1766015890.620662,35
1766015890.621652,33
1766015890.622654,33
1766015890.623656,33
1766015890.624664,35
1766015890.625669,34
1766015890.626683,34
1766015890.6276731,33
1766015890.628674,31
1766015890.6296792,32
1766015890.630689,32
1766015890.631684,34
1766015890.632672,30
1766015890.633677,35
1766015890.634689,31
1766015890.6356852,30
1766015890.6367092,32
1766015890.6376991,32
1766015890.638707,31
1766015890.6397069,33
1766015890.640705,34
1766015890.641709,33
1766015890.642717,35
1766015890.643711,37
1766015890.6447182,35
1766015890.6457229,35
1766015890.64673,34
1766015890.647729,34
1766015890.648733,35
1766015890.6497438,34
1766015890.650749,37
1766015890.651732,35
1766015890.652749,35
1766015890.6537411,36
1766015890.654756,31
1766015890.655752,35
1766015890.656758,35
1766015890.6577559,35
1766015890.6587892,34
1766015890.659745,35
1766015890.6607602,33
1766015890.6617699,35
1766015890.662761,33
1766015890.663769,33
1766015890.664774,31
1766015890.6657689,36
1766015890.666784,37
1766015890.667787,37
1766015890.668792,37
1766015890.6697931,32
1766015890.6708028,36
1766015890.671805,36
1766015890.672816,37
1766015890.673805,37
1766015890.674814,36
1766015890.6758258,35
1766015890.6768188,38
1766015890.677805,37
1766015890.678813,39
1766015890.679827,34
1766015890.68082,36
1766015890.681818,36
1766015890.682826,36
1766015890.683823,35
1766015890.684823,36
1766015890.6858392,36
1766015890.6868322,38
1766015890.687837,34
1766015890.688838,31
1766015890.689847,33
1766015890.6908538,34
1766015890.691844,33
1766015890.692847,34
1766015890.693851,34
1766015890.694865,36
1766015890.695873,34
1766015890.6968682,33
1766015890.6978738,34
1766015890.698876,34
1766015890.6998742,32
1766015890.700883,34
1766015890.70188,31
1766015890.702877,33
1766015890.7038982,34
1766015890.704889,34
1766015890.705892,32
1766015890.7068942,34
1766015890.7078981,33
1766015890.7089121,36
1766015890.709907,34
1766015890.710912,34
1766015890.711919,32
1766015890.71292,35
1766015890.7139242,35
1766015890.714907,38
1766015890.7159119,33
1766015890.716928,34
1766015890.717928,34
1766015890.718938,33
1766015890.719944,35
1766015890.7209349,34
1766015890.721938,34
1766015890.7229388,32
1766015890.723936,34
1766015890.7249432,33
1766015890.725952,34
1766015890.7269492,34
1766015890.727962,35
1766015890.728962,33
1766015890.730048,34
1766015890.731064,31
1766015890.732054,31
1766015890.7330549,33
1766015890.734057,31
1766015890.7350478,31
1766015890.7360508,32
1766015890.737055,30
1766015890.738053,31
1766015890.73905,31
1766015890.740053,34
1766015890.741048,30
1766015890.742049,32
1766015890.743048,32
1766015890.744056,35
1766015890.7450528,29
1766015890.746046,37
1766015890.747044,31
1766015890.7480571,35
1766015890.7490492,33
1766015890.7500532,32
1766015890.75105,29
1766015890.752057,33
1766015890.753058,31
1766015890.754048,33
1766015890.75505,32
1766015890.7560499,33
1766015890.757045,31
1766015890.758056,29
1766015890.75905,34
1766015890.760057,31
1766015890.761051,29
1766015890.762053,34
1766015890.763052,34
1766015890.764079,30
1766015890.76509,34
1766015890.766088,31
1766015890.767073,33
1766015890.768058,30
1766015890.769075,31
1766015890.770092,34
1766015890.771091,31
1766015890.772097,29
1766015890.773109,33
1766015890.7740722,32
1766015890.775092,31
1766015890.776096,31
1766015890.7771058,31
1766015890.778102,32
1766015890.779134,30
1766015890.7801201,31
1766015890.781369,34
1766015890.782133,32
1766015890.783137,31
1766015890.78414,31
1766015890.7851698,31
1766015890.786154,31
1766015890.7871711,30
1766015890.7881641,35
1766015890.789145,32
1766015890.79013,32
1766015890.791154,31
1766015890.792167,32
1766015890.793161,33
1766015890.794168,30
1766015890.795167,30
1766015890.796159,31
1766015890.797163,31
1766015890.798162,32
1766015890.7991612,30
1766015890.80016,31
1766015890.8011599,36
1766015890.802181,31
1766015890.8031769,30
1766015890.8041868,33
1766015890.8051898,33
1766015890.806176,33
1766015890.807188,31
1766015890.808199,32
1766015890.809199,33
1766015890.8102028,32
1766015890.8111959,34
1766015890.812205,30
1766015890.8131971,31
1766015890.814208,28
1766015890.8152142,32
1766015890.816226,29
1766015890.8172219,32
1766015890.818225,30
1766015890.819232,31
1766015890.820246,31
1766015890.821237,30
1766015890.822238,32
1766015890.8232372,30
1766015890.824244,32
1766015890.8252459,31
1766015890.8262558,31
1766015890.827253,32
1766015890.8282619,33
1766015890.829271,32
1766015890.830247,30
1766015890.8312771,30
1766015890.8322618,31
1766015890.833268,32
1766015890.834282,34
1766015890.83528,31
1766015890.8362901,34
1766015890.837282,29
1766015890.838274,30
1766015890.839278,32
1766015890.840292,30
1766015890.841294,28
1766015890.842311,33
1766015890.843304,29
1766015890.844335,30
1766015890.84533,31
1766015890.846307,31
1766015890.847321,32
1766015890.848308,31
1766015890.849325,32
1766015890.850341,29
1766015890.8513439,28
1766015890.85231,33
1766015890.853313,28
1766015890.8543,27
1766015890.8553169,28
1766015890.8563159,31
1766015890.857314,31
1766015890.8583198,31
1766015890.859312,31
1766015890.86032,31
1766015890.861331,31
1766015890.862306,29
1766015890.863324,29
1766015890.864332,32
1766015890.865344,29
1766015890.866339,29
1766015890.8673348,29
