timestamp,emg_value
1766015874.311056,43
1766015874.311082,45
1766015874.3111029,44
1766015874.311122,43
1766015874.311143,44
1766015874.311164,47
1766015874.3111832,43
1766015874.311208,43
1766015874.3112278,45
1766015874.311245,44
1766015874.311262,41
1766015874.311279,43
1766015874.3112938,48
1766015874.311309,44
1766015874.311324,46
1766015874.311339,43
1766015874.3113542,45
1766015874.311369,40
1766015874.311384,46
1766015874.311399,43
1766015874.311414,45
1766015874.311428,41
1766015874.3114429,45
1766015874.311458,41
1766015874.311473,40
1766015874.311489,41
1766015874.311504,41
1766015874.311518,43
1766015874.311533,43
1766015874.311548,45
1766015874.311563,43
1766015874.311578,43
1766015874.311601,44
1766015874.311618,46
1766015874.3116329,45
1766015874.31165,46
1766015874.3116648,42
1766015874.31168,45
1766015874.311695,46
1766015874.31171,46
1766015874.3117251,44
1766015874.3117409,46
1766015874.3117561,40
1766015874.311771,45
1766015874.311785,46
1766015874.3118,43
1766015874.311815,41
1766015874.31183,44
1766015874.311845,43
1766015874.311859,43
1766015874.3118742,45
1766015874.311889,44
1766015874.311904,43
1766015874.3119202,43
1766015874.311935,40
1766015874.31195,41
1766015874.311965,42
1766015874.31198,41
1766015874.312002,39
1766015874.3120189,42
1766015874.312036,39
1766015874.312052,42
1766015874.312068,39
1766015874.312083,40
1766015874.312099,37
1766015874.3121228,40
1766015874.312138,42
1766015874.312153,39
1766015874.312168,41
1766015874.3121831,38
1766015874.312198,38
1766015874.312213,39
1766015874.3122282,38
1766015874.312243,40
1766015874.312258,40
1766015874.3122728,40
1766015874.312288,40
1766015874.312305,40
1766015874.31232,37
1766015874.312336,39
1766015874.312351,39
1766015874.312366,39
1766015874.312381,38
1766015874.312395,41
1766015874.31241,42
1766015874.312425,39
1766015874.312441,40
1766015874.312456,39
1766015874.3124712,40
1766015874.312489,41
1766015874.3125062,44
1766015874.3125231,43
1766015874.3125381,44
1766015874.312554,41
1766015874.3125691,42
1766015874.312584,43
1766015874.312599,42
1766015874.312619,44
1766015874.312636,42
1766015874.312651,45
1766015874.3126662,41
1766015874.312682,39
1766015874.3126972,45
1766015874.312712,43
1766015874.312727,44
1766015874.312742,40
1766015874.312757,41
1766015874.312772,39
1766015874.312787,38
1766015874.312811,41
1766015874.3128269,41
1766015874.312842,39
1766015874.3128572,39
1766015874.312871,42
1766015874.312886,38
1766015874.312902,40
1766015874.31292,39
1766015874.3129349,39
1766015874.3129501,38
1766015874.3129652,34
1766015874.31298,36
1766015874.313001,37
1766015874.313018,38
1766015874.313034,35
1766015874.313049,39
1766015874.3130639,35
1766015874.313079,35
1766015874.3130932,36
1766015874.313109,38
1766015874.313129,39
1766015874.3131468,38
1766015874.313163,39
1766015874.313178,36
1766015874.313195,40
1766015874.31321,40
1766015874.313225,38
1766015874.313238,41
1766015874.313251,38
1766015874.3132641,39
1766015874.313277,40
1766015874.3132899,39
1766015874.3133051,42
1766015874.313319,44
1766015874.313331,40
1766015874.313344,44
1766015874.313357,44
1766015874.3133702,45
1766015874.3133829,41
1766015874.313396,42
1766015874.313411,45
1766015874.3134248,45
1766015874.313438,47
1766015874.313451,44
1766015874.3134642,43
1766015874.313476,41
1766015874.31349,42
1766015874.3135018,43
1766015874.313515,43
1766015874.313528,40
1766015874.3135412,42
1766015874.3135538,39
1766015874.313567,40
1766015874.313584,42
1766015874.313598,43
1766015874.313611,41
1766015874.3136241,40
1766015874.313637,42
1766015874.31365,42
1766015874.313663,44
1766015874.313675,44
1766015874.313688,44
1766015874.3137012,44
1766015874.313714,46
1766015874.313727,46
1766015874.31374,47
1766015874.3137548,43
1766015874.313768,41
1766015874.313781,42
1766015874.313793,43
1766015874.313806,40
1766015874.313819,44
1766015874.313832,42
1766015874.313845,42
1766015874.313858,40
1766015874.3138702,41
1766015874.3138828,44
1766015874.313895,42
1766015874.3139079,43
1766015874.313921,41
1766015874.313934,40
1766015874.313946,43
1766015874.313959,42
1766015874.313972,40
1766015874.313985,42
1766015874.314,41
1766015874.314014,40
1766015874.314029,38
1766015874.3140428,42
1766015874.314056,39
1766015874.314069,41
1766015874.314081,39
1766015874.314094,40
1766015874.314107,42
1766015874.31412,43
1766015874.314133,42
1766015874.314145,45
1766015874.314158,46
1766015874.3141708,47
1766015874.314183,45
1766015874.3141959,45
1766015874.314209,48
1766015874.314222,42
1766015874.314234,44
1766015874.314247,46
1766015874.31426,46
1766015874.314273,46
1766015874.314286,43
1766015874.3142982,44
1766015874.314311,42
1766015874.314324,41
1766015874.314336,42
1766015874.3143492,38
1766015874.314362,42
1766015874.314374,38
1766015874.3143868,42
1766015874.3144,44
1766015874.314412,42
1766015874.314429,44
1766015874.314443,41
1766015874.314456,40
1766015874.3144681,42
1766015874.3144808,42
1766015874.314494,41
1766015874.314507,41
1766015874.3145201,44
1766015874.3145332,43
1766015874.3145459,43
1766015874.314558,43
1766015874.314571,42
1766015874.314584,41
1766015874.3145971,44
1766015874.31461,44
1766015874.3146229,48
1766015874.314636,44
1766015874.3146482,46
1766015874.314662,42
1766015874.314676,41
1766015874.314689,44
1766015874.314702,43
1766015874.3147142,42
1766015874.3147268,41
1766015874.31474,42
1766015874.314753,44
1766015874.314765,44
1766015874.314778,42
1766015874.314791,44
1766015874.314803,43
1766015874.314816,44
1766015874.314829,41
1766015874.314844,42
1766015874.314859,46
1766015874.314871,43
1766015874.3148842,43
1766015874.3148968,44
1766015874.314909,44
1766015874.314922,45
1766015874.314935,43
1766015874.314948,42
1766015874.314961,41
1766015874.314974,42
1766015874.314986,41
1766015874.314999,39
1766015874.3150132,38
1766015874.315028,41
1766015874.315042,40
1766015874.3150542,42
1766015874.3150668,40
1766015874.31508,37
1766015874.315093,38
1766015874.3151062,35
1766015874.315118,41
1766015874.315131,38
1766015874.3151438,39
1766015874.315159,38
1766015874.3151731,38
1766015874.315188,40
1766015874.3152041,38
1766015874.315218,37
1766015874.315231,37
1766015874.315244,36
1766015874.315257,36
1766015874.3152692,39
1766015874.315286,39
1766015874.315299,40
1766015874.3153121,41
1766015874.315325,39
1766015874.315337,37
1766015874.31535,36
1766015874.3153632,38
1766015874.315376,36
1766015874.315388,38
1766015874.315401,36
1766015874.315414,38
1766015874.315426,36
1766015874.315439,34
1766015874.3154519,37
1766015874.315466,34
1766015874.31548,37
1766015874.315493,33
1766015874.3155131,36
1766015874.315532,36
1766015874.315552,34
1766015874.315567,36
1766015874.315587,34
1766015874.315606,37
1766015874.3156219,34
1766015874.315642,34
1766015874.315661,35
1766015874.315677,30
1766015874.315695,36
1766015874.31571,36
1766015874.315729,33
1766015874.315744,34
1766015874.315764,33
1766015874.315785,34
1766015874.3158,35
1766015874.315818,33
1766015874.3158321,32
1766015874.315847,35
1766015874.31586,32
1766015874.315873,30
1766015874.315886,32
1766015874.315899,33
1766015874.315912,33
1766015874.315924,34
1766015874.315937,33
1766015874.3159502,35
1766015874.3159628,33
1766015874.315976,33
1766015874.31599,32
1766015874.316004,32
1766015874.316017,31
1766015874.31603,30
1766015874.3160489,32
1766015874.316062,31
1766015874.316075,34
1766015874.316088,31
1766015874.316101,31
1766015874.3161159,30
1766015874.316129,29
1766015874.316142,32
1766015874.31616,32
1766015874.316173,32
1766015874.316187,31
1766015874.3162,29
1766015874.316213,31
1766015874.316226,32
1766015874.316242,33
1766015874.316255,35
1766015874.316268,32
1766015874.316281,36
1766015874.316294,35
1766015874.3163068,34
1766015874.31632,33
1766015874.316333,32
1766015874.3163462,33
1766015874.3163579,36
1766015874.316371,31
1766015874.316385,34
1766015874.3163981,35
1766015874.3164108,32
1766015874.316423,36
1766015874.316436,31
1766015874.316449,32
1766015874.316467,35
1766015874.31648,35
1766015874.316494,34
1766015874.3165061,35
1766015874.31652,33
1766015874.316532,32
1766015874.316546,31
1766015874.3165581,33
1766015874.316571,34
1766015874.3165839,30
1766015874.316597,34
1766015874.31661,34
1766015874.3166232,33
1766015874.316635,34
1766015874.316648,31
1766015874.316663,35
1766015874.316677,33
1766015874.316689,33
1766015874.316702,33
1766015874.316715,33
1766015874.316728,33
1766015874.3167412,33
1766015874.3167539,33
1766015874.316767,32
1766015874.31678,33
1766015874.3167932,32
1766015874.3168051,28
1766015874.31682,30
1766015874.316833,28
1766015874.3168461,30
1766015874.3168588,31
1766015874.316871,35
1766015874.316884,33
1766015874.316897,30
1766015874.31691,31
1766015874.316923,32
1766015874.316936,31
1766015874.316948,30
1766015874.316961,30
1766015874.3169742,34
1766015874.316986,29
1766015874.316999,32
1766015874.317012,31
1766015874.317025,31
1766015874.317038,29
1766015874.3170502,32
1766015874.3170629,31
1766015874.317076,31
1766015874.3170922,28
1766015874.3171048,31
1766015874.31712,31
1766015874.317133,30
1766015874.317146,31
1766015874.317159,29
1766015874.317172,29
1766015874.317185,29
1766015874.317197,31
1766015874.3172102,30
1766015874.3172228,31
1766015874.317236,31
1766015874.317248,30
1766015874.3172622,27
1766015874.317274,29
1766015874.317287,30
1766015874.3173,29
1766015874.317313,29
1766015874.317326,32
1766015874.3173382,28
1766015874.3173509,27
1766015874.317364,32
1766015874.317377,30
1766015874.31739,26
1766015874.3174021,28
1766015874.317415,29
1766015874.317427,28
1766015874.31744,31
1766015874.3174531,28
1766015874.317466,28
1766015874.317478,31
1766015874.317491,25
1766015874.3175051,28
1766015874.3175192,28
1766015874.3175309,28
1766015874.317545,29
1766015874.317558,29
1766015874.3175712,29
1766015874.317583,29
1766015874.317596,30
1766015874.317609,31
1766015874.317622,28
1766015874.317635,28
1766015874.3176472,29
1766015874.3176599,28
1766015874.317673,27
1766015874.317685,28
1766015874.317698,29
1766015874.317711,26
1766015874.3177228,30
1766015874.317736,29
1766015874.317749,30
1766015874.317761,30
1766015874.317774,27
1766015874.317787,30
1766015874.3178,29
1766015874.317812,27
1766015874.317825,30
1766015874.3178382,27
1766015874.3178508,27
1766015874.317863,27
1766015874.3178759,28
1766015874.317889,26
1766015874.3179011,27
1766015874.317914,27
1766015874.31793,27
1766015874.317943,26
1766015874.317955,29
1766015874.3179688,26
1766015874.317981,29
1766015874.3180008,28
1766015874.318013,28
1766015874.318026,26
1766015874.318039,27
1766015874.318052,30
1766015874.3180642,26
1766015874.3180768,29
1766015874.31809,29
1766015874.3181021,28
1766015874.318115,28
1766015874.318128,27
1766015874.318141,26
1766015874.318153,27
1766015874.318166,26
1766015874.3181791,27
1766015874.3181922,26
1766015874.318204,28
1766015874.318217,26
1766015874.318229,30
1766015874.318242,28
1766015874.3182552,27
1766015874.3182678,27
1766015874.318281,28
1766015874.318294,27
1766015874.318306,28
1766015874.318319,28
1766015874.318332,28
1766015874.318346,26
1766015874.3183591,29
1766015874.318372,29
1766015874.318385,26
1766015874.318398,25
1766015874.318411,26
1766015874.318423,26
1766015874.3184361,28
1766015874.3184488,30
1766015874.318461,27
1766015874.318474,28
1766015874.318487,28
1766015874.3185,27
1766015874.318513,28
1766015874.3185248,25
1766015874.318538,26
1766015874.318551,28
1766015874.318563,27
1766015874.318576,29
1766015874.318589,28
1766015874.318602,28
1766015874.318615,25
1766015874.318627,26
1766015874.3186402,25
1766015874.3186529,29
1766015874.318665,30
1766015874.318678,29
1766015874.318691,27
1766015874.3187041,28
1766015874.3187158,28
1766015874.318729,29
1766015874.318742,29
1766015874.318756,27
1766015874.318769,28
1766015874.3187819,26
1766015874.318795,27
1766015874.318808,30
1766015874.31882,30
1766015874.3188329,24
1766015874.318846,28
1766015874.318858,27
1766015874.318871,31
1766015874.3188841,27
1766015874.318896,29
1766015874.318909,28
1766015874.318922,29
1766015874.3189352,27
1766015874.318947,27
1766015874.3189602,26
1766015874.3189728,29
1766015874.318985,26
1766015874.318998,26
1766015874.319011,30
1766015874.319024,29
1766015874.319037,29
1766015874.31905,26
1766015874.319062,26
1766015874.319075,30
1766015874.3190882,28
1766015874.3191,27
1766015874.319113,28
1766015874.3191261,29
1766015874.319139,26
1766015874.3191512,27
1766015874.3191638,28
1766015874.3191779,28
1766015874.319191,30
1766015874.319204,31
1766015874.319216,28
1766015874.319229,30
1766015874.319242,27
1766015874.319255,30
1766015874.319267,27
1766015874.3192809,25
1766015874.319294,27
1766015874.319308,27
1766015874.31932,28
1766015874.319333,29
1766015874.319345,29
1766015874.3193579,29
1766015874.319371,29
1766015874.3193831,31
1766015874.319396,26
1766015874.319409,27
1766015874.3194208,31
1766015874.319434,29
1766015874.319447,28
1766015874.3194602,30
1766015874.319472,28
1766015874.319485,29
1766015874.319498,29
1766015874.319511,30
1766015874.319523,28
1766015874.3195362,29
1766015874.3195488,27
1766015874.319562,30
1766015874.319575,28
1766015874.3195891,30
1766015874.319602,30
1766015874.319615,28
1766015874.319627,31
1766015874.3196402,29
1766015874.319655,28
1766015874.319668,28
1766015874.319681,29
1766015874.319694,29
1766015874.319707,31
1766015874.31972,30
1766015874.319732,29
1766015874.319745,31
1766015874.319757,30
1766015874.31977,31
1766015874.319783,30
1766015874.319795,33
1766015874.319808,33
1766015874.3198211,30
1766015874.319833,32
1766015874.319846,31
1766015874.3198578,33
1766015874.319871,32
1766015874.319884,35
1766015874.319896,32
1766015874.319909,32
1766015874.319922,31
1766015874.319934,34
1766015874.319947,34
1766015874.319959,34
1766015874.319972,31
1766015874.319985,28
1766015874.319999,31
1766015874.320013,30
1766015874.3200262,32
1766015874.3200378,31
1766015874.320051,33
1766015874.320064,29
1766015874.320076,31
1766015874.320089,31
1766015874.320102,29
1766015874.320114,33
1766015874.320127,34
1766015874.3201401,31
1766015874.320152,32
1766015874.3201652,31
1766015874.320178,33
1766015874.32019,33
1766015874.320203,33
1766015874.3202162,32
1766015874.320229,31
1766015874.320241,32
1766015874.3202538,32
1766015874.320267,32
1766015874.3202791,31
1766015874.320292,32
1766015874.3203049,35
1766015874.320319,33
1766015874.320331,30
1766015874.320344,34
1766015874.320357,35
1766015874.320369,34
1766015874.3203819,35
1766015874.320395,35
1766015874.320408,35
1766015874.320425,36
1766015874.320437,34
1766015874.32045,35
1766015874.3204632,34
1766015874.3204749,35
1766015874.320488,36
1766015874.320501,36
1766015874.320514,33
1766015874.3205261,35
1766015874.320539,35
1766015874.3205519,37
1766015874.320564,36
1766015874.320577,36
1766015874.32059,36
1766015874.3206022,34
1766015874.3206148,35
1766015874.320628,39
1766015874.320641,35
1766015874.3206542,36
1766015874.320666,35
1766015874.320679,36
1766015874.320692,35
1766015874.320705,34
1766015874.320717,38
1766015874.3207302,35
1766015874.3207428,35
1766015874.320756,40
1766015874.320768,35
1766015874.320787,38
1766015874.3208,41
1766015874.320813,40
1766015874.320826,35
1766015874.320841,39
1766015874.320853,39
1766015874.320866,36
1766015874.3208792,38
1766015874.3208919,39
1766015874.320904,37
1766015874.320917,37
1766015874.32093,37
1766015874.320943,39
1766015874.320956,36
1766015874.320968,38
1766015874.320981,38
1766015874.3209941,38
1766015874.321006,36
1766015874.321019,39
1766015874.321032,38
1766015874.321045,39
1766015874.321058,38
1766015874.3210702,40
1766015874.3210828,39
1766015874.321096,36
1766015874.3211079,40
1766015874.321121,39
1766015874.321134,39
1766015874.321147,39
1766015874.3211598,39
1766015874.321171,37
1766015874.321182,40
1766015874.321193,40
1766015874.321204,40
1766015874.321215,36
1766015874.321226,41
1766015874.321238,38
1766015874.32125,40
1766015874.3212612,37
1766015874.3212721,39
1766015874.321283,39
1766015874.321294,40
1766015874.321305,37
1766015874.3213172,40
1766015874.3213282,38
1766015874.321339,39
1766015874.3213499,42
1766015874.3213608,38
1766015874.3213718,39
1766015874.321383,39
1766015874.321394,42
1766015874.321405,38
1766015874.3214169,41
1766015874.321428,38
1766015874.321439,39
1766015874.321451,38
1766015874.321462,37
1766015874.3214731,40
1766015874.321484,38
1766015874.321495,40
1766015874.321506,42
1766015874.321517,42
1766015874.321528,40
1766015874.3215392,41
1766015874.3215501,40
1766015874.321561,43
1766015874.321572,42
1766015874.321583,40
1766015874.321594,42
1766015874.3216069,43
1766015874.3216178,39
1766015874.3216288,39
1766015874.32164,42
1766015874.321651,38
1766015874.321662,40
1766015874.321673,41
1766015874.321684,39
1766015874.321695,41
1766015874.321706,41
1766015874.321717,39
1766015874.321728,40
1766015874.3217402,40
1766015874.321751,43
1766015874.321762,45
1766015874.321773,40
1766015874.321784,43
1766015874.321795,42
1766015874.3218062,40
1766015874.321818,43
1766015874.321829,43
1766015874.32184,42
1766015874.3218508,39
1766015874.321862,42
1766015874.321874,41
1766015874.3218849,40
1766015874.3218958,42
1766015874.321907,44
1766015874.321918,44
1766015874.321933,41
1766015874.3219452,43
1766015874.3219562,41
1766015874.322002,43
1766015874.322015,44
1766015874.322027,40
1766015874.322038,43
1766015874.3220491,40
1766015874.32206,40
1766015874.322071,43
1766015874.322082,39
1766015874.322093,42
1766015874.3221052,43
1766015874.3221178,40
1766015874.322129,40
1766015874.32214,39
1766015874.322152,41
1766015874.3221629,43
1766015874.3221738,42
1766015874.322185,39
1766015874.322197,40
1766015874.322208,39
1766015874.322219,41
1766015874.322231,41
1766015874.322242,43
1766015874.322253,45
1766015874.322264,44
1766015874.322276,42
1766015874.322287,43
1766015874.322298,39
1766015874.322309,36
1766015874.32232,42
1766015874.322331,39
1766015874.322342,39
1766015874.3223538,41
1766015874.322367,39
1766015874.322378,41
1766015874.322389,39
1766015874.3224,41
1766015874.322411,40
1766015874.322423,40
1766015874.322434,38
1766015874.3224452,41
1766015874.3224561,45
1766015874.322467,41
1766015874.322478,41
1766015874.322489,44
1766015874.3225,41
1766015874.3225112,42
1766015874.3225229,41
1766015874.3225338,41
1766015874.3225448,41
1766015874.322556,41
1766015874.322567,41
1766015874.322579,40
1766015874.3225899,43
1766015874.322602,40
1766015874.322613,43
1766015874.322624,44
1766015874.322635,43
1766015874.322651,44
1766015874.3226628,42
1766015874.322674,41
1766015874.322685,45
1766015874.322696,42
1766015874.322707,41
1766015874.3227189,42
1766015874.322731,40
1766015874.322743,41
1766015874.3227541,42
1766015874.322765,41
1766015874.322776,44
1766015874.322788,42
1766015874.3227992,42
1766015874.3228102,41
1766015874.3228211,37
1766015874.3228328,44
1766015874.3228438,44
1766015874.322855,39
1766015874.322866,43
1766015874.322878,42
1766015874.3228958,43
1766015874.322908,41
1766015874.32296,45
1766015874.322975,41
1766015874.322987,44
1766015874.322999,43
1766015874.323037,42
1766015874.323052,44
1766015874.323064,43
1766015874.323075,41
1766015874.3230872,43
1766015874.3230982,40
1766015874.3231099,41
1766015874.3231208,42
1766015874.323133,44
1766015874.323145,40
1766015874.3231559,42
1766015874.323168,42
1766015874.32318,46
1766015874.323194,45
1766015874.323206,43
1766015874.323217,44
1766015874.3232288,41
1766015874.32324,44
1766015874.323252,45
1766015874.323263,45
1766015874.323275,41
1766015874.323286,40
1766015874.323298,40
1766015874.323309,41
1766015874.3233202,45
1766015874.323332,42
1766015874.323343,42
1766015874.323355,43
1766015874.323366,42
1766015874.3233778,41
1766015874.3233888,45
1766015874.323401,44
1766015874.323412,43
1766015874.323424,42
1766015874.323435,47
1766015874.323446,45
1766015874.323458,44
1766015874.3234692,41
1766015874.323481,44
1766015874.323492,41
1766015874.323503,41
1766015874.323515,41
1766015874.323526,42
1766015874.3235369,43
1766015874.323549,43
1766015874.323562,43
1766015874.3235729,43
1766015874.323585,41
1766015874.323596,40
1766015874.323607,39
1766015874.3236191,44
1766015874.32363,42
1766015874.323642,40
1766015874.3236532,40
1766015874.323664,40
1766015874.3236759,43
1766015874.323688,42
1766015874.323699,40
1766015874.323711,44
1766015874.323722,42
1766015874.323733,42
1766015874.323745,40
1766015874.323756,40
1766015874.323767,40
1766015874.323779,41
1766015874.32379,42
1766015874.323802,40
1766015874.3238132,45
1766015874.3238242,43
1766015874.323835,41
1766015874.3238459,42
1766015874.323858,44
1766015874.323869,40
1766015874.32388,43
1766015874.3238919,40
1766015874.323903,40
1766015874.323915,41
1766015874.323928,42
1766015874.32394,41
1766015874.323955,44
1766015874.323966,42
1766015874.323977,42
1766015874.323989,44
1766015874.324,44
1766015874.324011,45
1766015874.324022,41
1766015874.324034,42
1766015874.324045,42
1766015874.324057,42
1766015874.324068,43
1766015874.324079,45
1766015874.32409,40
1766015874.324102,40
1766015874.324113,43
1766015874.3241239,45
1766015874.3241348,43
1766015874.324147,44
1766015874.324158,42
1766015874.3241699,45
1766015874.324181,42
1766015874.324193,44
1766015874.324204,41
1766015874.324215,40
1766015874.3242261,42
1766015874.324238,42
1766015874.324249,42
1766015874.32426,41
1766015874.3242712,41
1766015874.3242822,42
1766015874.3242939,42
1766015874.324306,44
1766015874.324318,42
1766015874.324329,41
1766015874.3243399,44
1766015874.324352,43
1766015874.324363,42
1766015874.3243752,42
1766015874.3243861,42
1766015874.324397,42
1766015874.324409,40
1766015874.3244202,42
1766015874.3244312,43
1766015874.3244429,43
1766015874.3244538,40
1766015874.3244648,41
1766015874.324476,41
1766015874.324488,37
1766015874.324499,41
1766015874.324511,39
1766015874.324522,47
1766015874.324533,43
1766015874.324545,42
1766015874.324556,44
1766015874.324568,42
1766015874.324579,43
1766015874.32459,43
1766015874.3246021,43
1766015874.324613,42
1766015874.3246238,42
1766015874.324636,40
1766015874.324647,43
1766015874.324658,41
1766015874.324673,42
1766015874.324685,42
1766015874.324696,43
1766015874.324707,42
1766015874.3247192,43
1766015874.3247302,42
1766015874.3247411,39
1766015874.3247519,43
1766015874.324764,41
1766015874.324775,42
1766015874.324786,39
1766015874.324797,42
1766015874.324809,44
1766015874.32482,42
1766015874.324831,41
1766015874.324842,40
1766015874.324853,42
1766015874.324865,39
1766015874.324876,39
1766015874.324887,41
1766015874.324898,39
1766015874.3249102,42
1766015874.3249211,43
1766015874.324932,42
1766015874.3249438,42
1766015874.324955,42
1766015874.324966,43
1766015874.3249779,43
1766015874.3249888,39
1766015874.325003,42
1766015874.325016,42
1766015874.325027,44
1766015874.3250382,42
1766015874.3250508,40
1766015874.325063,42
1766015874.325074,40
1766015874.325085,39
1766015874.325095,39
1766015874.325105,40
1766015874.325115,39
1766015874.3251252,41
1766015874.325135,41
1766015874.325145,42
1766015874.3251562,39
1766015874.325166,38
1766015874.325175,43
1766015874.325185,40
1766015874.325195,40
1766015874.325206,39
1766015874.325216,40
1766015874.325226,41
1766015874.325236,41
1766015874.3252459,41
1766015874.3252559,38
1766015874.325266,39
1766015874.325276,40
1766015874.325286,40
1766015874.3252962,37
1766015874.3253062,39
1766015874.3253162,40
1766015874.325326,39
1766015874.325336,37
1766015874.325346,34
1766015874.325356,38
1766015874.325366,37
1766015874.3253791,36
1766015874.32539,40
1766015874.325399,36
1766015874.3254101,37
1766015874.3254201,37
1766015874.32543,38
1766015874.325439,39
1766015874.32545,36
1766015874.32546,38
1766015874.32547,38
1766015874.32548,37
1766015874.32549,37
1766015874.3255,39
1766015874.3255098,35
1766015874.3255198,37
1766015874.32553,34
1766015874.32554,40
1766015874.32555,34
1766015874.32556,35
1766015874.32557,39
1766015874.3255801,36
1766015874.3255901,40
1766015874.3256,33
1766015874.325611,37
1766015874.32562,37
1766015874.32563,35
1766015874.32564,36
1766015874.32565,31
1766015874.32566,35
1766015874.32567,34
1766015874.32568,37
1766015874.32569,32
1766015874.3257,35
1766015874.32571,38
1766015874.32572,35
1766015874.32573,33
1766015874.32574,36
1766015874.32575,36
1766015874.32576,33
1766015874.32577,34
1766015874.32578,36
1766015874.32579,34
1766015874.325801,34
1766015874.325811,32
1766015874.325821,35
1766015874.325831,35
1766015874.325841,31
1766015874.325851,33
1766015874.3258612,33
1766015874.325871,30
1766015874.325881,33
1766015874.325891,31
1766015874.325901,33
1766015874.32591,33
1766015874.32592,35
1766015874.3259299,30
1766015874.32594,34
1766015874.32595,30
1766015874.32596,32
1766015874.32597,34
1766015874.32598,29
1766015874.32599,32
1766015874.3260002,30
1766015874.3260102,31
1766015874.32602,31
1766015874.3260312,29
1766015874.326041,28
1766015874.326051,33
1766015874.326061,31
1766015874.326071,30
1766015874.32608,29
1766015874.326091,32
1766015874.326101,31
1766015874.326111,30
1766015874.3261209,31
1766015874.3261309,31
1766015874.3261409,30
1766015874.326151,30
1766015874.326161,28
1766015874.326171,32
1766015874.3261812,29
1766015874.3261921,30
1766015874.3262038,29
1766015874.3262138,30
1766015874.3262239,29
1766015874.326234,29
1766015874.326244,30
1766015874.3262541,31
1766015874.326265,28
1766015874.326275,28
1766015874.3262851,28
1766015874.3262951,30
1766015874.326305,29
1766015874.326315,28
1766015874.326325,30
1766015874.326335,30
1766015874.326345,28
1766015874.326355,29
1766015874.326365,30
1766015874.326375,28
1766015874.3263848,28
1766015874.3263948,28
1766015874.326405,25
1766015874.326415,26
1766015874.326426,26
1766015874.326436,29
1766015874.326446,28
1766015874.326456,29
1766015874.326466,30
1766015874.326476,29
1766015874.326486,29
1766015874.326496,28
1766015874.326506,27
1766015874.326516,25
1766015874.326526,28
1766015874.326536,26
1766015874.326546,28
1766015874.326556,26
1766015874.326566,28
1766015874.326577,27
1766015874.326587,26
1766015874.3265972,27
1766015874.326607,26
1766015874.326617,27
1766015874.326627,27
1766015874.326637,25
1766015874.326647,26
1766015874.326657,29
1766015874.326667,25
1766015874.326677,28
1766015874.3266869,25
1766015874.3266969,27
1766015874.326707,26
1766015874.326717,26
1766015874.326727,27
1766015874.326737,27
1766015874.326747,25
1766015874.3267572,23
1766015874.3267672,27
1766015874.326777,29
1766015874.326787,24
1766015874.326797,24
1766015874.326807,26
1766015874.326817,25
1766015874.326828,28
1766015874.326839,24
1766015874.326849,24
1766015874.326859,24
1766015874.326869,25
1766015874.326879,26
1766015874.326889,25
1766015874.326899,25
1766015874.3269088,28
1766015874.3269188,23
1766015874.3269289,26
1766015874.3269389,26
1766015874.3269498,25
1766015874.32696,26
1766015874.3269691,28
1766015874.3269792,25
1766015874.3269901,26
1766015874.3270621,28
1766015874.327093,24
1766015874.3271072,27
1766015874.3271198,22
1766015874.327133,23
1766015874.327146,25
1766015874.327159,24
1766015874.327172,24
1766015874.327185,27
1766015874.327198,25
1766015874.32721,26
1766015874.327223,22
1766015874.3272362,25
1766015874.3272479,25
1766015874.327261,26
1766015874.327274,24
1766015874.327286,20
1766015874.327299,25
1766015874.3273118,26
1766015874.3273249,24
1766015874.327338,25
1766015874.32735,26
1766015874.327363,24
1766015874.3273752,25
1766015874.3273878,24
1766015874.327401,24
1766015874.327413,27
1766015874.327426,23
1766015874.327439,22
1766015874.327451,29
1766015874.3274639,27
1766015874.327477,25
1766015874.3274891,25
1766015874.327502,23
1766015874.327515,24
1766015874.3275268,25
1766015874.32754,23
1766015874.327552,25
1766015874.327565,24
1766015874.327578,28
1766015874.32759,22
1766015874.3276029,25
1766015874.327616,27
1766015874.3276281,25
1766015874.327641,28
1766015874.3276532,27
1766015874.3276658,28
1766015874.327679,27
1766015874.327692,27
1766015874.327704,26
1766015874.327717,27
1766015874.32773,25
1766015874.3277419,27
1766015874.327755,23
1766015874.327768,24
1766015874.3277812,27
1766015874.327793,27
1766015874.327806,25
1766015874.327818,27
1766015874.327831,27
1766015874.3278441,27
1766015874.327856,29
1766015874.327869,27
1766015874.3278809,28
1766015874.327894,28
1766015874.3279061,28
1766015874.327919,29
1766015874.327931,27
1766015874.327944,26
1766015874.32807,27
1766015874.32907,27
1766015874.330048,26
1766015874.3310878,26
1766015874.3320599,24
1766015874.33308,29
1766015874.334075,26
1766015874.335108,28
1766015874.3360791,29
1766015874.337077,27
1766015874.3380768,27
1766015874.339082,24
1766015874.340076,24
1766015874.341079,26
1766015874.3421261,27
1766015874.343124,27
1766015874.344104,25
1766015874.345099,27
1766015874.346108,29
1766015874.347129,24
1766015874.348116,27
1766015874.3491,27
1766015874.350114,26
1766015874.351129,26
1766015874.352133,28
1766015874.3531232,28
1766015874.35417,26
1766015874.355197,25
1766015874.3561459,28
1766015874.357125,24
1766015874.358131,26
1766015874.359187,29
1766015874.3601542,27
1766015874.3611379,28
1766015874.3621278,28
1766015874.363153,26
1766015874.3641658,24
1766015874.3651268,26
1766015874.3662038,25
1766015874.367149,26
1766015874.368132,27
1766015874.369189,26
1766015874.370176,30
1766015874.371149,27
1766015874.372192,31
1766015874.373203,26
1766015874.3741848,25
1766015874.375148,28
1766015874.3762,30
1766015874.377161,29
1766015874.3781629,28
1766015874.379192,26
1766015874.3801541,25
1766015874.3812292,27
1766015874.382211,28
1766015874.3831758,28
1766015874.3841841,23
1766015874.385182,27
1766015874.386187,25
1766015874.3871849,28
1766015874.388188,29
1766015874.3892438,28
1766015874.3902552,30
1766015874.3912241,27
1766015874.392256,26
1766015874.393256,27
1766015874.394263,28
1766015874.395225,29
1766015874.3962188,23
1766015874.397246,29
1766015874.398263,26
1766015874.399255,28
1766015874.400285,28
1766015874.401279,30
1766015874.4022489,29
1766015874.403281,27
1766015874.404247,25
1766015874.405249,27
1766015874.406282,27
1766015874.407279,28
1766015874.408281,27
1766015874.409306,30
1766015874.4102862,30
1766015874.411297,28
1766015874.4122891,24
1766015874.413295,30
1766015874.41431,25
1766015874.415308,25
1766015874.416307,28
1766015874.4173281,27
1766015874.418325,27
1766015874.419322,29
1766015874.42033,29
1766015874.421333,29
1766015874.422327,31
1766015874.4233441,30
1766015874.4243321,30
1766015874.42533,27
1766015874.426351,29
1766015874.427358,26
1766015874.428355,26
1766015874.4293408,27
1766015874.430368,27
1766015874.431367,28
1766015874.4323719,30
1766015874.433378,28
1766015874.434382,31
1766015874.4353511,27
1766015874.436382,30
1766015874.437377,30
1766015874.4383712,30
1766015874.439381,29
1766015874.4403698,31
1766015874.441369,27
1766015874.4423711,29
1766015874.443404,29
1766015874.444414,26
1766015874.445389,28
1766015874.446385,27
1766015874.447411,29
1766015874.448401,26
1766015874.449398,25
1766015874.450389,27
1766015874.451437,28
1766015874.452418,29
1766015874.4534101,28
1766015874.454413,26
1766015874.4554298,30
1766015874.4564211,27
1766015874.4574301,31
1766015874.458424,28
1766015874.459462,28
1766015874.460448,28
1766015874.46144,26
1766015874.462446,27
1766015874.463455,27
1766015874.4644659,28
1766015874.465444,28
1766015874.466439,26
1766015874.4674828,27
1766015874.4684632,30
1766015874.4694889,29
1766015874.470475,27
1766015874.471488,28
1766015874.472487,29
1766015874.473504,30
1766015874.474498,28
1766015874.475539,25
1766015874.4764988,27
1766015874.4775019,28
1766015874.478509,29
1766015874.4794948,27
1766015874.480533,29
1766015874.4814851,25
1766015874.482506,27
1766015874.483521,27
1766015874.48452,28
1766015874.4855008,24
1766015874.486495,28
1766015874.487523,27
1766015874.48854,24
1766015874.489543,28
1766015874.4905632,26
1766015874.491551,25
1766015874.492568,27
1766015874.493601,24
1766015874.494526,24
1766015874.495549,26
1766015874.4965608,28
1766015874.4975739,29
1766015874.498559,27
1766015874.499584,28
1766015874.500565,26
1766015874.5015922,28
1766015874.5026119,27
1766015874.5035908,29
1766015874.504564,30
1766015874.505594,30
1766015874.5065641,27
1766015874.507586,27
1766015874.5085702,30
1766015874.509563,28
1766015874.5105731,27
1766015874.51156,28
1766015874.512562,27
1766015874.513557,25
1766015874.5145469,29
1766015874.515552,27
1766015874.5165691,28
1766015874.517578,27
1766015874.51857,25
1766015874.5195541,29
1766015874.520567,26
1766015874.5215738,30
1766015874.5225751,28
1766015874.523592,28
1766015874.52459,26
1766015874.525642,28
1766015874.5266361,29
1766015874.527647,27
1766015874.528636,25
1766015874.529631,28
1766015874.5306408,25
1766015874.531641,26
1766015874.532647,28
1766015874.533647,27
1766015874.5346391,26
1766015874.535664,26
1766015874.536663,24
1766015874.537662,29
1766015874.538659,29
1766015874.539684,25
1766015874.540658,26
1766015874.5416582,25
1766015874.542664,25
1766015874.543679,24
1766015874.5446699,26
1766015874.545685,23
1766015874.546701,24
1766015874.5477,26
1766015874.548691,28
1766015874.54969,25
1766015874.550699,22
1766015874.5517042,27
1766015874.552716,25
1766015874.5537112,23
1766015874.554719,28
1766015874.5557098,26
1766015874.5567129,26
1766015874.557714,25
1766015874.5587049,28
1766015874.559721,24
1766015874.560721,27
1766015874.5617359,25
1766015874.562757,27
1766015874.563742,27
1766015874.5647418,22
1766015874.5657432,26
1766015874.5667489,26
1766015874.567751,26
1766015874.568773,22
1766015874.5697548,27
1766015874.570763,26
1766015874.5717602,25
1766015874.572762,24
1766015874.57375,27
1766015874.574751,25
1766015874.575788,26
1766015874.5767958,27
1766015874.5777888,24
1766015874.578773,27
1766015874.579775,23
1766015874.580755,25
1766015874.5817559,23
1766015874.582784,22
1766015874.583773,26
1766015874.584773,23
1766015874.5857558,28
1766015874.586768,25
1766015874.587789,23
1766015874.5887659,26
1766015874.5897741,25
1766015874.590795,25
1766015874.59181,22
1766015874.592819,26
1766015874.593808,27
1766015874.594814,22
1766015874.595844,25
1766015874.596846,22
1766015874.5978408,25
1766015874.598856,22
1766015874.599853,26
1766015874.600835,27
1766015874.601869,27
1766015874.602863,23
1766015874.603858,26
1766015874.6048582,25
1766015874.605862,22
1766015874.6068559,25
1766015874.607852,26
1766015874.608876,24
1766015874.6098728,24
1766015874.6108842,23
1766015874.611872,24
1766015874.612884,23
1766015874.613881,24
1766015874.614893,27
1766015874.615884,24
1766015874.616887,24
1766015874.617894,24
1766015874.618923,24
1766015874.619915,23
1766015874.6208901,23
1766015874.6219132,28
1766015874.622907,22
1766015874.623908,26
1766015874.624904,25
1766015874.625909,21
1766015874.626914,24
1766015874.627912,19
1766015874.62891,20
1766015874.629933,23
1766015874.630945,21
1766015874.631958,23
1766015874.6329541,24
1766015874.6339788,22
1766015874.6349351,24
1766015874.635957,18
1766015874.6369438,27
1766015874.637961,26
1766015874.638962,24
1766015874.6399722,24
1766015874.6409512,22
1766015874.641988,24
1766015874.6429691,21
1766015874.643971,24
1766015874.644937,26
1766015874.6459541,24
1766015874.646958,25
1766015874.647944,22
1766015874.6489458,24
1766015874.6499488,22
1766015874.650949,23
1766015874.651941,24
1766015874.6530402,25
1766015874.654033,23
1766015874.655042,22
1766015874.656078,23
1766015874.657082,21
1766015874.6580899,22
1766015874.659084,26
1766015874.660083,24
1766015874.661081,23
1766015874.6620722,26
1766015874.663084,23
1766015874.664077,21
1766015874.665073,20
1766015874.666077,23
1766015874.667082,26
1766015874.668085,22
1766015874.669075,21
1766015874.6700742,25
1766015874.6710799,24
1766015874.6720798,25
1766015874.673085,25
1766015874.674072,24
1766015874.6750772,24
1766015874.676105,25
1766015874.677081,23
1766015874.678079,28
1766015874.6790771,27
1766015874.6800792,24
1766015874.681098,25
1766015874.6820831,22
1766015874.683081,21
1766015874.6840918,27
1766015874.685109,25
1766015874.686113,23
1766015874.6871,28
1766015874.68814,23
1766015874.6891131,26
1766015874.6901162,26
1766015874.6911302,23
1766015874.692118,26
1766015874.693129,29
1766015874.6940968,26
1766015874.695107,25
1766015874.6960928,24
1766015874.697095,26
1766015874.6980999,27
1766015874.6991072,28
1766015874.700107,27
1766015874.701115,27
1766015874.702107,24
1766015874.703108,27
1766015874.704135,26
1766015874.705138,27
1766015874.706128,28
1766015874.707125,27
1766015874.708153,27
1766015874.709143,26
1766015874.710156,28
1766015874.711141,26
1766015874.712139,31
1766015874.7131689,29
1766015874.7141492,28
1766015874.7151449,27
1766015874.716154,27
1766015874.717161,28
1766015874.7181592,28
1766015874.719156,29
1766015874.720185,25
1766015874.721189,29
1766015874.7221792,29
1766015874.7231848,27
1766015874.724184,30
1766015874.725203,28
1766015874.726204,29
1766015874.727202,31
1766015874.72819,30
1766015874.729223,33
1766015874.730211,32
1766015874.731214,34
1766015874.732204,34
1766015874.733221,31
1766015874.734226,30
1766015874.7352378,29
1766015874.736236,31
1766015874.73725,30
1766015874.73825,29
1766015874.739247,31
1766015874.740256,29
1766015874.741247,30
1766015874.7422662,31
1766015874.743275,29
1766015874.744255,27
1766015874.74526,30
1766015874.746279,32
1766015874.747283,32
1766015874.748278,33
1766015874.74928,34
1766015874.750272,31
1766015874.7513,31
1766015874.75229,30
1766015874.7533078,34
1766015874.754291,32
1766015874.755299,31
1766015874.7562969,34
1766015874.757308,34
1766015874.758322,31
1766015874.759302,32
1766015874.7603068,34
1766015874.761311,34
1766015874.7623181,34
1766015874.763322,30
1766015874.764323,36
1766015874.765336,34
1766015874.766325,34
1766015874.7673569,36
1766015874.768348,33
1766015874.7693481,33
1766015874.770338,31
1766015874.771347,31
1766015874.7723389,31
1766015874.77334,31
1766015874.774345,32
1766015874.7753458,33
1766015874.776371,33
1766015874.777364,34
1766015874.778357,36
1766015874.779375,34
1766015874.78037,36
1766015874.781374,32
1766015874.782371,32
1766015874.783369,31
1766015874.7843788,30
1766015874.7853692,34
1766015874.786376,31
1766015874.7873878,34
1766015874.788388,33
1766015874.789393,34
1766015874.7904031,34
1766015874.7914062,35
1766015874.7924402,34
1766015874.7934048,34
1766015874.794407,35
1766015874.795407,34
1766015874.7964191,38
1766015874.7974038,33
1766015874.79843,34
1766015874.7994182,30
1766015874.800415,32
1766015874.801435,34
1766015874.8024251,33
1766015874.8034298,37
1766015874.804446,33
1766015874.8054242,35
1766015874.8064482,32
1766015874.807439,33
1766015874.8084311,35
1766015874.809454,37
1766015874.810452,40
1766015874.811458,35
1766015874.8124568,38
1766015874.813492,36
1766015874.8144782,35
1766015874.815479,35
1766015874.8164911,37
1766015874.817479,39
1766015874.818491,36
1766015874.81951,34
1766015874.8204951,37
1766015874.8214998,33
1766015874.822506,35
1766015874.8235168,36
1766015874.824521,35
1766015874.8255239,31
1766015874.8265111,34
1766015874.827501,33
1766015874.828505,33
1766015874.829504,34
1766015874.830513,35
1766015874.831527,35
1766015874.832512,35
1766015874.8335118,36
1766015874.834526,36
1766015874.835516,39
1766015874.836509,37
1766015874.837512,40
1766015874.838538,41
1766015874.839534,35
1766015874.8405309,37
1766015874.8415291,34
1766015874.8425422,38
1766015874.843555,37
1766015874.844544,36
1766015874.8455439,35
1766015874.8465621,37
1766015874.84756,36
1766015874.848563,37
1766015874.849568,37
1766015874.850564,41
1766015874.851574,37
1766015874.852565,41
1766015874.853568,37
1766015874.854578,43
1766015874.8555799,37
1766015874.856587,37
1766015874.857586,41
1766015874.858586,41
1766015874.859582,43
1766015874.860594,41
1766015874.861593,38
1766015874.862602,39
1766015874.863609,39
1766015874.864606,41
1766015874.865607,43
1766015874.866615,38
1766015874.867616,41
1766015874.868612,40
1766015874.869605,40
1766015874.87064,39
1766015874.871648,42
1766015874.872629,38
1766015874.873631,39
1766015874.8746371,39
1766015874.8756511,39
1766015874.87664,37
1766015874.877671,41
1766015874.878667,46
1766015874.879655,44
1766015874.880661,42
1766015874.881651,43
1766015874.8826518,42
1766015874.883647,43
1766015874.8846889,41
1766015874.885673,43
1766015874.886667,38
1766015874.88767,43
1766015874.888695,47
1766015874.889685,44
1766015874.8906791,47
1766015874.891693,50
1766015874.892705,51
1766015874.893704,50
1766015874.894704,48
1766015874.8956969,53
1766015874.896704,51
1766015874.8977091,50
1766015874.898713,51
1766015874.8997078,47
1766015874.900725,47
1766015874.901726,49
1766015874.902718,46
1766015874.903722,47
1766015874.904717,48
1766015874.905739,46
1766015874.906739,50
1766015874.907711,44
1766015874.9087338,45
1766015874.9097521,46
1766015874.910746,46
1766015874.9117382,46
1766015874.912758,48
1766015874.913756,47
1766015874.914751,44
1766015874.91573,43
1766015874.916764,44
1766015874.9177659,46
1766015874.918758,45
1766015874.919758,46
1766015874.92078,43
1766015874.921789,45
1766015874.922781,43
1766015874.923777,43
1766015874.92475,40
1766015874.925809,46
1766015874.926781,44
1766015874.927788,41
1766015874.9288058,44
1766015874.929821,45
1766015874.9308228,42
1766015874.931829,44
1766015874.9327612,45
1766015874.933759,46
1766015874.934786,43
1766015874.935851,44
1766015874.936828,42
1766015874.9377751,44
1766015874.938826,41
1766015874.939838,44
1766015874.9408169,41
1766015874.941819,42
1766015874.942834,43
1766015874.94384,45
1766015874.944839,42
1766015874.945848,43
1766015874.9468422,41
1766015874.947849,42
1766015874.948852,41
1766015874.949858,44
1766015874.950857,46
1766015874.951879,42
1766015874.952857,45
1766015874.9538612,46
1766015874.95487,47
1766015874.955847,44
1766015874.956835,46
1766015874.957869,46
1766015874.9588668,45
1766015874.959886,44
1766015874.960854,44
1766015874.96189,46
1766015874.96289,46
1766015874.963882,47
1766015874.9648561,48
1766015874.965895,47
1766015874.966912,47
1766015874.9679098,47
1766015874.9688928,45
1766015874.969881,47
1766015874.970911,44
1766015874.9719071,47
1766015874.972914,47
1766015874.9738932,48
1766015874.974933,48
1766015874.975931,47
1766015874.976916,47
1766015874.9779131,44
1766015874.9789388,44
1766015874.979944,48
1766015874.980955,45
1766015874.981913,42
1766015874.982966,44
1766015874.983943,45
1766015874.984947,43
1766015874.985922,43
1766015874.9869518,42
1766015874.987967,43
1766015874.988972,43
1766015874.989944,48
1766015874.990984,49
1766015874.991967,47
1766015874.992984,44
1766015874.993953,49
1766015874.99498,49
1766015874.995989,47
1766015874.996989,48
1766015874.99807,50
1766015874.999043,47
1766015874.999973,46
1766015875.0010822,47
1766015875.002076,47
1766015875.003077,50
1766015875.004079,48
1766015875.0050821,48
1766015875.006081,46
1766015875.007075,51
1766015875.008082,48
1766015875.009086,48
1766015875.010078,47
1766015875.011073,49
1766015875.0120802,49
1766015875.013077,46
1766015875.014079,47
1766015875.015074,49
1766015875.016086,45
1766015875.017076,48
1766015875.018084,50
1766015875.019073,48
1766015875.020077,48
1766015875.021081,48
1766015875.022088,46
1766015875.023076,49
1766015875.0240798,51
1766015875.025086,45
1766015875.026078,51
1766015875.0270772,47
1766015875.0280719,50
1766015875.029082,51
1766015875.030095,50
1766015875.031085,46
1766015875.032089,48
1766015875.033086,46
1766015875.03409,47
1766015875.0350888,49
1766015875.0360892,47
1766015875.03711,44
1766015875.038102,46
1766015875.039107,43
1766015875.040102,46
1766015875.0411022,47
1766015875.042103,46
1766015875.043102,46
1766015875.044116,44
1766015875.045123,46
1766015875.046138,44
1766015875.047143,46
1766015875.048147,46
1766015875.0491352,48
1766015875.050142,46
1766015875.05114,47
1766015875.052144,46
1766015875.053151,46
1766015875.0541608,47
1766015875.055151,47
1766015875.056156,47
1766015875.057159,47
1766015875.058166,49
1766015875.059168,49
1766015875.0601642,51
1766015875.061166,52
1766015875.062171,50
1766015875.063166,52
1766015875.064169,51
1766015875.0651772,53
1766015875.066185,51
1766015875.067183,53
1766015875.068198,52
1766015875.0691981,51
1766015875.070197,51
1766015875.0713742,52
1766015875.072195,53
1766015875.0732002,52
1766015875.074218,58
1766015875.075209,54
1766015875.0762088,58
1766015875.077215,56
1766015875.078211,62
1766015875.0792089,58
1766015875.0802162,58
1766015875.081213,61
1766015875.0822139,58
1766015875.083242,59
1766015875.0842292,59
1766015875.085228,56
1766015875.0862532,58
1766015875.087211,60
1766015875.088223,55
1766015875.08923,58
1766015875.0902379,58
1766015875.0912309,58
1766015875.092211,59
1766015875.093226,56
1766015875.094224,57
1766015875.095232,57
1766015875.096245,55
1766015875.097237,56
1766015875.098232,56
1766015875.0992708,50
1766015875.100289,51
1766015875.101274,51
1766015875.102242,53
1766015875.103292,54
1766015875.104287,53
1766015875.105302,54
1766015875.1063008,53
1766015875.107303,56
1766015875.108308,56
1766015875.1093068,58
1766015875.110316,57
1766015875.111328,59
1766015875.112319,58
1766015875.1133282,59
1766015875.114326,57
1766015875.115345,55
1766015875.116332,56
1766015875.117322,58
1766015875.118334,53
1766015875.119338,55
1766015875.120339,54
1766015875.121345,54
1766015875.122346,54
1766015875.123353,50
1766015875.124341,54
1766015875.12535,54
1766015875.126356,54
1766015875.127368,50
1766015875.128352,52
1766015875.129372,51
1766015875.130369,50
1766015875.131382,50
1766015875.132376,48
1766015875.1333702,47
1766015875.134337,48
1766015875.135382,51
1766015875.136375,49
1766015875.1373708,49
1766015875.138397,47
1766015875.139355,49
1766015875.140363,46
1766015875.141391,48
1766015875.1423821,45
1766015875.143428,47
1766015875.144404,50
1766015875.145372,48
1766015875.1464021,47
1766015875.1473951,43
1766015875.148385,46
1766015875.149415,45
1766015875.150391,48
1766015875.151405,48
1766015875.152402,47
1766015875.153435,48
1766015875.154424,48
1766015875.155423,48
1766015875.156437,47
1766015875.157443,51
1766015875.1584482,48
1766015875.1594539,51
1766015875.16046,51
1766015875.1614678,49
1766015875.162463,48
1766015875.16347,46
1766015875.164487,45
1766015875.1654642,45
1766015875.16645,45
1766015875.1674602,47
1766015875.168494,45
1766015875.169467,49
1766015875.170487,49
1766015875.171477,50
1766015875.17249,51
1766015875.173492,46
1766015875.174495,49
1766015875.175491,47
1766015875.176508,48
1766015875.177506,46
1766015875.178515,43
1766015875.179492,45
1766015875.180523,46
1766015875.181511,45
1766015875.182511,42
1766015875.183521,42
1766015875.184521,42
1766015875.1855118,47
1766015875.1865091,43
1766015875.187542,46
1766015875.18853,43
1766015875.1895318,43
1766015875.190536,43
1766015875.191542,44
1766015875.1925418,43
1766015875.193546,44
1766015875.194551,42
1766015875.1955478,42
1766015875.196553,44
1766015875.197566,43
1766015875.198542,43
1766015875.199567,43
1766015875.2005749,46
1766015875.2015722,41
1766015875.202587,44
1766015875.203584,42
1766015875.204584,42
1766015875.205575,43
1766015875.206593,45
1766015875.207604,46
1766015875.2086039,48
1766015875.2095768,44
1766015875.210579,47
1766015875.211573,47
1766015875.212561,44
1766015875.2136052,45
1766015875.2146041,45
1766015875.215604,46
1766015875.2166212,43
1766015875.2176151,44
1766015875.218616,43
1766015875.219619,41
1766015875.220622,43
1766015875.221633,43
1766015875.222634,46
1766015875.2236311,42
1766015875.224627,44
1766015875.225653,45
1766015875.2266428,41
1766015875.227632,38
1766015875.228651,43
1766015875.2296598,43
1766015875.2306612,43
1766015875.231672,43
1766015875.232662,44
1766015875.233679,42
1766015875.234667,45
1766015875.235657,44
1766015875.23668,42
1766015875.237668,45
1766015875.238673,43
1766015875.239674,43
1766015875.2406762,44
1766015875.241677,44
1766015875.242698,40
1766015875.243701,42
1766015875.2446878,43
1766015875.2457018,42
1766015875.246716,41
1766015875.2477078,44
1766015875.248715,42
1766015875.249701,43
1766015875.250696,42
1766015875.251703,41
1766015875.2527092,40
1766015875.253718,41
1766015875.254724,41
1766015875.25572,42
1766015875.256733,41
1766015875.2577322,39
1766015875.2587461,40
1766015875.259742,41
1766015875.260752,40
1766015875.261739,41
1766015875.2627661,43
1766015875.263763,38
1766015875.26478,42
1766015875.265748,41
1766015875.266759,40
1766015875.267757,41
1766015875.268776,40
1766015875.269773,40
1766015875.270781,38
1766015875.271777,39
1766015875.272788,39
1766015875.273771,40
1766015875.274774,39
1766015875.275786,40
1766015875.276793,40
1766015875.277799,40
1766015875.278785,40
1766015875.279797,42
1766015875.280797,41
1766015875.2817988,41
1766015875.282807,44
1766015875.2838159,47
1766015875.2848132,43
1766015875.2858229,40
1766015875.286825,44
1766015875.287803,45
1766015875.288836,43
1766015875.289848,43
1766015875.2908401,46
1766015875.2918348,43
1766015875.292835,43
1766015875.293845,46
1766015875.29485,47
1766015875.295854,44
1766015875.296844,43
1766015875.297846,45
1766015875.298848,42
1766015875.299861,46
1766015875.3008718,42
1766015875.301862,42
1766015875.3028622,41
1766015875.3038568,42
1766015875.304863,44
1766015875.305872,39
1766015875.306874,42
1766015875.307879,44
1766015875.3088808,40
1766015875.3098838,38
1766015875.310876,40
1766015875.311897,44
