timestamp,emg_value
1766015864.080933,44
1766015864.0809531,44
1766015864.0809689,45
1766015864.080985,44
1766015864.081001,45
1766015864.081017,40
1766015864.081033,42
1766015864.081048,44
1766015864.081064,44
1766015864.08108,45
1766015864.081095,44
1766015864.081111,41
1766015864.081126,38
1766015864.081141,42
1766015864.081156,43
1766015864.081171,41
1766015864.081186,45
1766015864.081203,40
1766015864.081221,41
1766015864.081236,40
1766015864.0812511,39
1766015864.081266,40
1766015864.081281,40
1766015864.081296,40
1766015864.081311,42
1766015864.0813272,41
1766015864.081344,42
1766015864.0813591,40
1766015864.081374,41
1766015864.0813901,43
1766015864.081407,45
1766015864.081422,43
1766015864.0814521,43
1766015864.081471,42
1766015864.081488,42
1766015864.081503,45
1766015864.0815182,45
1766015864.081533,47
1766015864.081551,48
1766015864.081569,48
1766015864.0815842,49
1766015864.081599,45
1766015864.0816152,48
1766015864.081631,45
1766015864.081646,49
1766015864.081661,45
1766015864.081676,44
1766015864.0816908,45
1766015864.081706,45
1766015864.081721,43
1766015864.0817358,45
1766015864.081751,41
1766015864.081766,43
1766015864.081782,44
1766015864.0817971,44
1766015864.081812,45
1766015864.0818272,43
1766015864.081842,43
1766015864.081857,39
1766015864.081872,40
1766015864.081887,45
1766015864.0819042,43
1766015864.081919,42
1766015864.081934,42
1766015864.081952,42
1766015864.082022,44
1766015864.082037,42
1766015864.082052,42
1766015864.082067,43
1766015864.082082,43
1766015864.0820968,44
1766015864.082112,43
1766015864.082127,42
1766015864.0821419,43
1766015864.082158,40
1766015864.082178,43
1766015864.082193,42
1766015864.082211,41
1766015864.0822248,39
1766015864.082238,41
1766015864.082251,40
1766015864.082264,41
1766015864.082277,38
1766015864.08229,40
1766015864.082303,40
1766015864.082316,39
1766015864.082329,41
1766015864.082342,39
1766015864.082355,39
1766015864.082367,37
1766015864.08238,36
1766015864.0823932,37
1766015864.0824058,40
1766015864.082419,38
1766015864.082433,38
1766015864.0824451,40
1766015864.082458,40
1766015864.082477,39
1766015864.0824902,40
1766015864.0825028,36
1766015864.082516,37
1766015864.082529,34
1766015864.0825422,37
1766015864.0825548,39
1766015864.082568,39
1766015864.082581,38
1766015864.0825942,35
1766015864.082607,39
1766015864.08262,39
1766015864.082665,36
1766015864.082677,35
1766015864.08269,39
1766015864.082703,37
1766015864.082716,36
1766015864.0827289,36
1766015864.082742,36
1766015864.0827541,36
1766015864.082767,37
1766015864.08278,37
1766015864.082793,33
1766015864.082806,37
1766015864.082819,35
1766015864.0828311,36
1766015864.082844,36
1766015864.082857,34
1766015864.08287,36
1766015864.0828831,34
1766015864.0828958,35
1766015864.082908,36
1766015864.082927,34
1766015864.082939,32
1766015864.082952,34
1766015864.082965,34
1766015864.082978,30
1766015864.0829911,36
1766015864.083004,34
1766015864.0830169,34
1766015864.083029,34
1766015864.0830421,32
1766015864.083055,33
1766015864.083068,34
1766015864.08308,35
1766015864.083093,34
1766015864.083106,32
1766015864.0831192,34
1766015864.0831308,34
1766015864.083144,31
1766015864.083157,32
1766015864.083169,34
1766015864.083183,35
1766015864.083195,35
1766015864.0832078,33
1766015864.083221,36
1766015864.083234,35
1766015864.0832472,38
1766015864.0832589,36
1766015864.083272,36
1766015864.083285,35
1766015864.083298,38
1766015864.083311,36
1766015864.083324,36
1766015864.083338,35
1766015864.083352,36
1766015864.0833652,35
1766015864.0833778,35
1766015864.083391,36
1766015864.083404,36
1766015864.083416,33
1766015864.083429,35
1766015864.083442,36
1766015864.083455,37
1766015864.083468,34
1766015864.083481,33
1766015864.083495,35
1766015864.083508,35
1766015864.0835211,33
1766015864.083533,33
1766015864.0835462,33
1766015864.0835588,34
1766015864.083572,36
1766015864.083584,31
1766015864.083597,35
1766015864.08361,34
1766015864.083622,34
1766015864.0836349,33
1766015864.083648,35
1766015864.0836601,35
1766015864.083673,36
1766015864.0836859,33
1766015864.083699,36
1766015864.083712,36
1766015864.083724,34
1766015864.0837371,32
1766015864.0837498,34
1766015864.083766,33
1766015864.083779,36
1766015864.083792,33
1766015864.0838048,35
1766015864.083818,37
1766015864.083831,34
1766015864.083843,37
1766015864.0838568,36
1766015864.08387,34
1766015864.083882,36
1766015864.083895,34
1766015864.083908,37
1766015864.083921,32
1766015864.0839329,37
1766015864.083946,34
1766015864.083958,35
1766015864.083971,35
1766015864.083984,32
1766015864.083997,32
1766015864.08401,33
1766015864.084023,30
1766015864.084037,35
1766015864.084049,34
1766015864.0840619,32
1766015864.084075,32
1766015864.084088,31
1766015864.0841,34
1766015864.084113,31
1766015864.084126,32
1766015864.084138,30
1766015864.084151,31
1766015864.0841641,33
1766015864.084179,32
1766015864.084192,32
1766015864.0842052,32
1766015864.084218,32
1766015864.084231,30
1766015864.084244,31
1766015864.084256,33
1766015864.0842712,34
1766015864.0842838,30
1766015864.084297,32
1766015864.08431,33
1766015864.0843232,32
1766015864.084336,35
1766015864.084348,34
1766015864.084361,35
1766015864.084374,36
1766015864.084387,32
1766015864.0844002,31
1766015864.0844128,33
1766015864.084426,34
1766015864.084438,30
1766015864.084451,31
1766015864.084464,35
1766015864.084477,33
1766015864.08449,31
1766015864.084503,34
1766015864.084515,31
1766015864.0845282,31
1766015864.0845408,32
1766015864.084554,34
1766015864.084567,34
1766015864.0845802,33
1766015864.084592,33
1766015864.084607,30
1766015864.08462,32
1766015864.084633,32
1766015864.084645,32
1766015864.084658,35
1766015864.084671,32
1766015864.0846841,32
1766015864.084697,29
1766015864.08471,34
1766015864.0847218,34
1766015864.084735,34
1766015864.084748,37
1766015864.0847611,36
1766015864.0847738,34
1766015864.084787,32
1766015864.0848,32
1766015864.084812,35
1766015864.084825,33
1766015864.084838,36
1766015864.084851,35
1766015864.084864,34
1766015864.084876,35
1766015864.0848892,36
1766015864.0849018,35
1766015864.084915,37
1766015864.084928,37
1766015864.08494,38
1766015864.084953,36
1766015864.084966,38
1766015864.084979,38
1766015864.084992,38
1766015864.085005,39
1766015864.085021,35
1766015864.085034,37
1766015864.085047,39
1766015864.0850601,37
1766015864.085073,36
1766015864.085085,35
1766015864.085098,37
1766015864.0851111,35
1766015864.085124,36
1766015864.085137,39
1766015864.0851488,37
1766015864.085162,38
1766015864.085175,36
1766015864.085187,36
1766015864.0851998,39
1766015864.085213,37
1766015864.085226,34
1766015864.085239,39
1766015864.085252,34
1766015864.085265,37
1766015864.085278,35
1766015864.085291,33
1766015864.085303,34
1766015864.0853162,36
1766015864.0853288,34
1766015864.085342,35
1766015864.085355,36
1766015864.085367,36
1766015864.08538,34
1766015864.085393,34
1766015864.085406,37
1766015864.085419,33
1766015864.0854342,32
1766015864.085449,33
1766015864.085461,33
1766015864.085474,35
1766015864.0854871,31
1766015864.0855,33
1766015864.0855129,32
1766015864.085526,33
1766015864.085539,33
1766015864.0855522,34
1766015864.085564,33
1766015864.085577,33
1766015864.0855901,33
1766015864.085603,31
1766015864.085616,33
1766015864.085629,34
1766015864.085642,30
1766015864.085655,34
1766015864.0856671,32
1766015864.0856802,32
1766015864.085693,33
1766015864.085706,30
1766015864.085719,32
1766015864.085732,33
1766015864.0857449,32
1766015864.085757,31
1766015864.08577,28
1766015864.085783,32
1766015864.085796,31
1766015864.085809,30
1766015864.0858219,32
1766015864.085835,31
1766015864.085848,31
1766015864.085862,31
1766015864.085875,32
1766015864.085888,28
1766015864.085901,33
1766015864.0859132,29
1766015864.0859258,30
1766015864.085939,32
1766015864.085952,29
1766015864.085964,27
1766015864.085977,27
1766015864.08599,31
1766015864.0860028,29
1766015864.086016,32
1766015864.086028,29
1766015864.086041,30
1766015864.0860538,28
1766015864.086066,28
1766015864.086079,26
1766015864.086092,31
1766015864.0861042,27
1766015864.086118,28
1766015864.0861309,28
1766015864.086143,28
1766015864.0861561,29
1766015864.086169,28
1766015864.0861812,29
1766015864.086194,30
1766015864.086207,28
1766015864.08622,31
1766015864.0862331,34
1766015864.0862458,30
1766015864.086259,30
1766015864.0863519,27
1766015864.086368,29
1766015864.0864131,29
1766015864.086428,30
1766015864.086442,27
1766015864.086456,27
1766015864.0864692,29
1766015864.0864818,25
1766015864.086496,29
1766015864.086509,26
1766015864.086522,29
1766015864.086535,27
1766015864.0865479,27
1766015864.086563,30
1766015864.0865762,31
1766015864.0865889,28
1766015864.086602,29
1766015864.086615,28
1766015864.0866282,28
1766015864.0866408,29
1766015864.086654,26
1766015864.086667,29
1766015864.0866802,26
1766015864.086693,24
1766015864.086706,24
1766015864.086719,27
1766015864.0867321,30
1766015864.086745,26
1766015864.086758,29
1766015864.086771,26
1766015864.086784,27
1766015864.086797,23
1766015864.0868149,27
1766015864.086828,28
1766015864.086841,28
1766015864.086854,29
1766015864.0868669,29
1766015864.08688,27
1766015864.086893,26
1766015864.0869062,27
1766015864.0869188,29
1766015864.086932,29
1766015864.086945,29
1766015864.0869582,26
1766015864.0869708,28
1766015864.086984,30
1766015864.086997,27
1766015864.0870101,30
1766015864.087023,29
1766015864.087036,27
1766015864.087048,27
1766015864.087061,27
1766015864.087074,28
1766015864.0870872,30
1766015864.0870998,26
1766015864.087114,29
1766015864.087127,28
1766015864.08714,29
1766015864.0871522,29
1766015864.087166,29
1766015864.087178,27
1766015864.087191,26
1766015864.087204,25
1766015864.0872178,28
1766015864.087233,28
1766015864.0872471,29
1766015864.08726,26
1766015864.087274,25
1766015864.087286,25
1766015864.087301,28
1766015864.087314,27
1766015864.087327,30
1766015864.08734,28
1766015864.087353,29
1766015864.0873659,28
1766015864.087379,27
1766015864.087392,24
1766015864.087405,27
1766015864.087418,25
1766015864.087431,28
1766015864.087444,28
1766015864.087457,28
1766015864.08747,30
1766015864.087483,25
1766015864.087496,27
1766015864.087509,25
1766015864.087522,28
1766015864.087536,27
1766015864.087549,25
1766015864.087562,29
1766015864.087575,25
1766015864.087587,25
1766015864.0876002,30
1766015864.087614,24
1766015864.087626,28
1766015864.08764,26
1766015864.0876522,28
1766015864.0877178,29
1766015864.087734,27
1766015864.087748,26
1766015864.0877619,28
1766015864.087775,28
1766015864.087788,29
1766015864.0878022,28
1766015864.0878148,27
1766015864.087828,26
1766015864.087841,26
1766015864.087855,29
1766015864.087868,27
1766015864.0878808,27
1766015864.0878952,28
1766015864.087908,25
1766015864.087921,26
1766015864.087934,27
1766015864.087947,28
1766015864.0879612,26
1766015864.0879738,28
1766015864.087987,26
1766015864.088,25
1766015864.0880132,27
1766015864.088026,27
1766015864.0880399,25
1766015864.088052,26
1766015864.088066,27
1766015864.0880792,28
1766015864.0880919,23
1766015864.088105,26
1766015864.088118,27
1766015864.08813,25
1766015864.0881479,29
1766015864.088162,25
1766015864.088175,24
1766015864.088188,26
1766015864.088223,27
1766015864.088237,24
1766015864.0882502,25
1766015864.0882618,23
1766015864.088276,26
1766015864.088288,26
1766015864.088301,24
1766015864.088314,25
1766015864.088328,22
1766015864.08834,26
1766015864.088353,26
1766015864.088366,24
1766015864.088379,24
1766015864.088392,25
1766015864.088405,24
1766015864.088418,23
1766015864.0884311,24
1766015864.088444,23
1766015864.0884569,21
1766015864.08847,23
1766015864.088483,24
1766015864.0884962,23
1766015864.0885088,26
1766015864.088522,23
1766015864.088535,24
1766015864.0885491,24
1766015864.088562,26
1766015864.088575,25
1766015864.088589,24
1766015864.088605,26
1766015864.088618,24
1766015864.0886312,25
1766015864.088644,23
1766015864.088657,24
1766015864.08867,25
1766015864.088683,22
1766015864.088696,28
1766015864.088709,21
1766015864.088722,25
1766015864.0887349,23
1766015864.088748,27
1766015864.088761,25
1766015864.088774,23
1766015864.0887868,23
1766015864.0888,21
1766015864.088813,25
1766015864.0888262,25
1766015864.0888388,24
1766015864.088852,25
1766015864.088865,24
1766015864.0888782,23
1766015864.0888908,24
1766015864.088904,22
1766015864.088917,29
1766015864.0889301,27
1766015864.088943,24
1766015864.0889559,28
1766015864.088969,27
1766015864.088982,25
1766015864.088995,26
1766015864.089008,26
1766015864.0890229,26
1766015864.089036,27
1766015864.089049,26
1766015864.089062,28
1766015864.0890749,27
1766015864.089089,25
1766015864.089102,29
1766015864.089115,28
1766015864.089128,30
1766015864.089141,29
1766015864.089154,28
1766015864.089178,32
1766015864.089191,28
1766015864.089205,29
1766015864.089217,28
1766015864.089231,30
1766015864.089244,31
1766015864.089257,30
1766015864.089271,29
1766015864.089283,30
1766015864.0892959,30
1766015864.089309,31
1766015864.089322,30
1766015864.089338,28
1766015864.089351,30
1766015864.089364,29
1766015864.089377,31
1766015864.08939,28
1766015864.089403,31
1766015864.089416,32
1766015864.089429,36
1766015864.089442,32
1766015864.0894568,30
1766015864.0894709,35
1766015864.089484,35
1766015864.089497,32
1766015864.08951,30
1766015864.0895228,32
1766015864.089536,32
1766015864.089548,32
1766015864.089561,33
1766015864.0895739,35
1766015864.089587,36
1766015864.089601,36
1766015864.0896142,33
1766015864.089626,35
1766015864.089639,37
1766015864.089653,35
1766015864.0896661,37
1766015864.0896819,38
1766015864.089695,36
1766015864.089707,36
1766015864.08972,36
1766015864.0897331,36
1766015864.089746,36
1766015864.0897589,37
1766015864.089772,33
1766015864.089785,35
1766015864.089798,36
1766015864.0898108,36
1766015864.089824,37
1766015864.0898361,39
1766015864.089849,36
1766015864.0898619,37
1766015864.089875,39
1766015864.08989,38
1766015864.089904,37
1766015864.089916,38
1766015864.08993,42
1766015864.089943,39
1766015864.089956,41
1766015864.089969,37
1766015864.089982,40
1766015864.089995,39
1766015864.090008,39
1766015864.0900211,39
1766015864.090034,40
1766015864.090047,37
1766015864.09006,37
1766015864.0900722,42
1766015864.090085,41
1766015864.090098,41
1766015864.090111,40
1766015864.090125,41
1766015864.090137,40
1766015864.0901492,41
1766015864.0901601,39
1766015864.0901709,39
1766015864.090183,39
1766015864.090194,39
1766015864.090206,42
1766015864.090218,40
1766015864.09023,43
1766015864.090241,40
1766015864.090252,41
1766015864.0902631,43
1766015864.090274,39
1766015864.0902882,40
1766015864.0902998,40
1766015864.0903108,41
1766015864.090323,40
1766015864.090334,39
1766015864.090345,41
1766015864.0903559,42
1766015864.090368,41
1766015864.09038,42
1766015864.090392,42
1766015864.090403,41
1766015864.090414,43
1766015864.0904262,45
1766015864.0904372,44
1766015864.090448,41
1766015864.0904589,43
1766015864.090494,44
1766015864.090506,41
1766015864.090517,43
1766015864.090528,45
1766015864.090539,44
1766015864.0905511,44
1766015864.090562,43
1766015864.090574,44
1766015864.090585,44
1766015864.0905972,41
1766015864.0906081,43
1766015864.0906188,44
1766015864.0906298,46
1766015864.090642,42
1766015864.090653,44
1766015864.090664,46
1766015864.0906749,44
1766015864.0906901,43
1766015864.090701,44
1766015864.090713,45
1766015864.090724,46
1766015864.0907352,44
1766015864.0907469,42
1766015864.0907578,45
1766015864.0907688,45
1766015864.090781,43
1766015864.090792,47
1766015864.090803,42
1766015864.0908139,43
1766015864.090826,45
1766015864.090841,46
1766015864.090852,46
1766015864.0908642,46
1766015864.090875,47
1766015864.0908868,44
1766015864.090898,45
1766015864.090909,46
1766015864.09092,45
1766015864.090932,44
1766015864.0909429,45
1766015864.090954,45
1766015864.090966,46
1766015864.090977,47
1766015864.090988,43
1766015864.091,45
1766015864.091011,44
1766015864.091022,44
1766015864.091033,45
1766015864.0910451,45
1766015864.091058,44
1766015864.091071,45
1766015864.091082,44
1766015864.091093,47
1766015864.091104,47
1766015864.091116,47
1766015864.0911272,47
1766015864.091139,45
1766015864.09115,43
1766015864.091161,45
1766015864.0911732,45
1766015864.0911841,45
1766015864.091241,48
1766015864.091255,46
1766015864.091267,45
1766015864.091279,46
1766015864.09129,46
1766015864.091305,47
1766015864.091316,45
1766015864.091328,44
1766015864.091339,41
1766015864.09135,42
1766015864.091362,46
1766015864.0913742,43
1766015864.0913851,47
1766015864.091396,47
1766015864.0914078,45
1766015864.091419,46
1766015864.091431,45
1766015864.0914419,43
1766015864.0914528,45
1766015864.091465,48
1766015864.091476,45
1766015864.091491,44
1766015864.0915031,40
1766015864.0915148,45
1766015864.0915258,46
1766015864.091537,44
1766015864.091549,44
1766015864.09156,44
1766015864.0915709,42
1766015864.091583,46
1766015864.091594,47
1766015864.091605,46
1766015864.091616,46
1766015864.091628,42
1766015864.091639,45
1766015864.091651,45
1766015864.0916622,44
1766015864.0916731,43
1766015864.091684,45
1766015864.091695,45
1766015864.091707,45
1766015864.091718,43
1766015864.091729,41
1766015864.0917408,41
1766015864.091752,44
1766015864.091763,44
1766015864.091775,44
1766015864.091786,43
1766015864.0917969,41
1766015864.091808,43
1766015864.09182,43
1766015864.091831,43
1766015864.091842,44
1766015864.0918531,41
1766015864.091867,45
1766015864.091879,44
1766015864.0918899,44
1766015864.0919008,43
1766015864.091912,42
1766015864.091924,40
1766015864.091935,40
1766015864.091946,39
1766015864.091958,44
1766015864.091969,41
1766015864.09198,44
1766015864.0919921,43
1766015864.092003,43
1766015864.092015,42
1766015864.092026,44
1766015864.0920372,41
1766015864.092049,39
1766015864.0920599,41
1766015864.0920708,41
1766015864.092082,40
1766015864.092094,44
1766015864.092105,41
1766015864.092117,41
1766015864.092128,39
1766015864.09214,40
1766015864.092151,41
1766015864.092163,40
1766015864.092174,41
1766015864.0921862,39
1766015864.0921972,40
1766015864.0922089,40
1766015864.0922198,40
1766015864.092278,38
1766015864.092294,38
1766015864.0923069,38
1766015864.092318,39
1766015864.09233,42
1766015864.092342,37
1766015864.092355,41
1766015864.092368,39
1766015864.0923789,39
1766015864.092391,36
1766015864.092402,39
1766015864.092413,41
1766015864.0924249,35
1766015864.092436,37
1766015864.092447,38
1766015864.092459,37
1766015864.09247,36
1766015864.092482,37
1766015864.092494,37
1766015864.092509,37
1766015864.092521,38
1766015864.092532,36
1766015864.092544,39
1766015864.092557,36
1766015864.092569,40
1766015864.09258,39
1766015864.0925922,34
1766015864.092603,34
1766015864.092614,36
1766015864.092627,35
1766015864.092639,35
1766015864.092651,36
1766015864.092664,37
1766015864.092677,38
1766015864.0926878,37
1766015864.0927,36
1766015864.092711,37
1766015864.092723,38
1766015864.0927339,34
1766015864.092746,34
1766015864.092758,32
1766015864.092769,33
1766015864.09278,36
1766015864.092791,37
1766015864.092803,32
1766015864.092814,32
1766015864.0928261,35
1766015864.092837,36
1766015864.092848,34
1766015864.09286,35
1766015864.092871,33
1766015864.0928829,34
1766015864.0928938,33
1766015864.092905,34
1766015864.092916,33
1766015864.092928,38
1766015864.092939,36
1766015864.09295,34
1766015864.092961,33
1766015864.092973,35
1766015864.092984,31
1766015864.0929961,32
1766015864.093007,33
1766015864.0930188,31
1766015864.09303,31
1766015864.093044,35
1766015864.093056,33
1766015864.0930681,33
1766015864.093079,34
1766015864.093091,31
1766015864.093102,33
1766015864.0931132,32
1766015864.093125,34
1766015864.0931358,31
1766015864.0931468,32
1766015864.093159,35
1766015864.09317,34
1766015864.093181,32
1766015864.093193,32
1766015864.093206,33
1766015864.0932171,31
1766015864.0932322,30
1766015864.093243,32
1766015864.0932539,33
1766015864.093266,35
1766015864.093277,32
1766015864.093288,35
1766015864.0932999,34
1766015864.093311,31
1766015864.093323,31
1766015864.093334,31
1766015864.093345,33
1766015864.0933561,31
1766015864.093367,30
1766015864.093379,32
1766015864.09339,35
1766015864.0934012,29
1766015864.093415,30
1766015864.093428,30
1766015864.09344,30
1766015864.093451,32
1766015864.093462,32
1766015864.0934741,31
1766015864.093485,30
1766015864.093497,33
1766015864.0935092,30
1766015864.09352,30
1766015864.093531,29
1766015864.0935428,28
1766015864.093554,30
1766015864.093565,30
1766015864.093577,30
1766015864.0935879,33
1766015864.0936,29
1766015864.093611,31
1766015864.093622,31
1766015864.0936341,30
1766015864.093645,30
1766015864.093657,29
1766015864.093668,30
1766015864.0936792,29
1766015864.0936909,28
1766015864.0937018,29
1766015864.0937128,29
1766015864.093724,32
1766015864.093736,28
1766015864.093747,30
1766015864.0937579,31
1766015864.09377,32
1766015864.093782,29
1766015864.093795,25
1766015864.093809,26
1766015864.0938208,29
1766015864.093832,27
1766015864.093843,27
1766015864.093854,27
1766015864.0938659,31
1766015864.093877,27
1766015864.093892,27
1766015864.093903,25
1766015864.093914,26
1766015864.093926,27
1766015864.093937,27
1766015864.093948,28
1766015864.0939589,26
1766015864.093971,26
1766015864.093982,26
1766015864.093993,24
1766015864.094005,27
1766015864.094016,26
1766015864.094028,28
1766015864.094039,28
1766015864.0940511,26
1766015864.094062,29
1766015864.094073,28
1766015864.0940852,27
1766015864.094095,27
1766015864.094105,26
1766015864.094115,29
1766015864.094125,24
1766015864.094135,26
1766015864.094145,26
1766015864.094178,26
1766015864.094202,27
1766015864.094213,28
1766015864.094224,27
1766015864.0942342,25
1766015864.0942452,27
1766015864.0942552,28
1766015864.094265,24
1766015864.094275,26
1766015864.094286,27
1766015864.094296,25
1766015864.094306,28
1766015864.094317,26
1766015864.094327,26
1766015864.094337,24
1766015864.094347,27
1766015864.094358,27
1766015864.094368,26
1766015864.094378,24
1766015864.094388,27
1766015864.094398,28
1766015864.094409,25
1766015864.094419,24
1766015864.094429,23
1766015864.094439,26
1766015864.0944488,29
1766015864.0944588,27
1766015864.094474,23
1766015864.094485,26
1766015864.094526,28
1766015864.094537,26
1766015864.094547,25
1766015864.094559,26
1766015864.094572,25
1766015864.094583,23
1766015864.0946329,26
1766015864.094644,26
1766015864.094657,25
1766015864.094683,25
1766015864.0946949,25
1766015864.0947058,27
1766015864.0947158,28
1766015864.0947268,24
1766015864.094738,27
1766015864.094748,27
1766015864.094759,25
1766015864.094769,24
1766015864.0947788,24
1766015864.09479,26
1766015864.0947998,26
1766015864.09481,27
1766015864.0948212,24
1766015864.094831,26
1766015864.094841,27
1766015864.094851,25
1766015864.094862,25
1766015864.094872,26
1766015864.094882,27
1766015864.094892,27
1766015864.094903,26
1766015864.094913,25
1766015864.094923,25
1766015864.094933,24
1766015864.094944,29
1766015864.094954,27
1766015864.094982,26
1766015864.0949938,28
1766015864.0950038,25
1766015864.095016,23
1766015864.095026,24
1766015864.095037,23
1766015864.095047,25
1766015864.095058,25
1766015864.095068,26
1766015864.095078,27
1766015864.095089,24
1766015864.095099,23
1766015864.0951092,26
1766015864.095119,25
1766015864.0951302,27
1766015864.09514,24
1766015864.0951512,25
1766015864.0951612,25
1766015864.095171,23
1766015864.095181,25
1766015864.095191,24
1766015864.095202,25
1766015864.095212,25
1766015864.095222,25
1766015864.095232,26
1766015864.095243,31
1766015864.095253,31
1766015864.095263,36
1766015864.095274,39
1766015864.095284,40
1766015864.095294,43
1766015864.095305,41
1766015864.09533,42
1766015864.095349,43
1766015864.09536,45
1766015864.09537,46
1766015864.09538,43
1766015864.095391,47
1766015864.095401,48
1766015864.095411,47
1766015864.095422,47
1766015864.095432,47
1766015864.0954418,46
1766015864.0954518,45
1766015864.0954618,46
1766015864.0954728,45
1766015864.0954828,46
1766015864.095493,44
1766015864.095503,46
1766015864.095538,45
1766015864.095551,46
1766015864.095562,43
1766015864.095573,43
1766015864.095583,41
1766015864.095594,46
1766015864.095604,40
1766015864.095614,43
1766015864.095624,42
1766015864.095634,39
1766015864.095644,41
1766015864.0956538,42
1766015864.095665,40
1766015864.095675,40
1766015864.095685,43
1766015864.095695,41
1766015864.095705,42
1766015864.095715,42
1766015864.095725,38
1766015864.095735,40
1766015864.095745,36
1766015864.095755,39
1766015864.0957649,38
1766015864.095775,38
1766015864.095785,36
1766015864.095795,37
1766015864.095805,37
1766015864.095815,34
1766015864.095825,35
1766015864.095835,36
1766015864.0958452,34
1766015864.095855,37
1766015864.095865,38
1766015864.095875,35
1766015864.095885,35
1766015864.095895,37
1766015864.095905,33
1766015864.095915,34
1766015864.095925,32
1766015864.0959349,33
1766015864.095945,37
1766015864.095955,31
1766015864.095965,31
1766015864.095975,35
1766015864.095989,34
1766015864.096,35
1766015864.096083,34
1766015864.0961,35
1766015864.096114,29
1766015864.096127,34
1766015864.0961401,32
1766015864.096153,33
1766015864.096166,33
1766015864.096179,32
1766015864.096191,35
1766015864.096204,32
1766015864.0962172,30
1766015864.096229,35
1766015864.096242,31
1766015864.096255,32
1766015864.096268,31
1766015864.096281,31
1766015864.0962932,30
1766015864.0963058,30
1766015864.096319,32
1766015864.096332,32
1766015864.0963452,30
1766015864.096359,32
1766015864.096372,28
1766015864.096385,31
1766015864.0963972,33
1766015864.09641,30
1766015864.096423,28
1766015864.096436,31
1766015864.0964491,30
1766015864.096461,29
1766015864.0964742,30
1766015864.0964868,32
1766015864.096499,28
1766015864.096512,29
1766015864.096525,29
1766015864.096537,28
1766015864.09655,29
1766015864.0965629,32
1766015864.096576,28
1766015864.0965881,31
1766015864.096601,30
1766015864.0966132,28
1766015864.0966258,31
1766015864.096639,29
1766015864.096651,31
1766015864.0966651,28
1766015864.0966778,30
1766015864.09669,32
1766015864.096703,28
1766015864.096716,31
1766015864.096729,28
1766015864.0967412,32
1766015864.0967538,29
1766015864.096767,29
1766015864.096779,29
1766015864.096792,29
1766015864.0968041,30
1766015864.0968168,31
1766015864.09683,30
1766015864.096842,29
1766015864.096855,29
1766015864.096868,31
1766015864.0968802,28
1766015864.0968928,28
1766015864.096906,27
1766015864.096918,25
1766015864.096931,28
1766015864.096944,28
1766015864.096957,28
1766015864.096969,30
1766015864.096982,28
1766015864.096995,31
1766015864.0970082,28
1766015864.09702,28
1766015864.097033,31
1766015864.097046,28
1766015864.097059,28
1766015864.0970712,29
1766015864.0970838,27
1766015864.097096,29
1766015864.097109,28
1766015864.097126,27
1766015864.097138,27
1766015864.097151,29
1766015864.097164,27
1766015864.097176,31
1766015864.0971892,31
1766015864.0972018,28
1766015864.097214,23
1766015864.097227,26
1766015864.097239,29
1766015864.097253,24
1766015864.097265,26
1766015864.0972779,27
1766015864.097291,27
1766015864.0973032,27
1766015864.097316,30
1766015864.097329,24
1766015864.0973408,28
1766015864.097354,26
1766015864.097367,26
1766015864.097379,26
1766015864.097392,26
1766015864.097404,25
1766015864.0974169,24
1766015864.09743,29
1766015864.0974422,30
1766015864.097455,26
1766015864.097468,27
1766015864.0974798,28
1766015864.0975418,27
1766015864.0975611,26
1766015864.097574,29
1766015864.097588,27
1766015864.0976,28
1766015864.097613,25
1766015864.0976262,28
1766015864.0976388,27
1766015864.097652,29
1766015864.097664,30
1766015864.097677,27
1766015864.09769,25
1766015864.0977018,26
1766015864.097715,26
1766015864.097728,28
1766015864.0977411,27
1766015864.097753,27
1766015864.097766,26
1766015864.097779,27
1766015864.097791,28
1766015864.097804,25
1766015864.0978172,26
1766015864.097829,26
1766015864.097842,26
1766015864.097855,25
1766015864.097868,25
1766015864.097881,27
1766015864.097894,29
1766015864.0979068,26
1766015864.09792,29
1766015864.097932,26
1766015864.097945,25
1766015864.0979578,27
1766015864.097971,27
1766015864.097984,27
1766015864.097997,25
1766015864.098009,27
1766015864.098022,24
1766015864.0980349,27
1766015864.098047,25
1766015864.0980601,28
1766015864.098073,26
1766015864.0980859,27
1766015864.098099,29
1766015864.098111,26
1766015864.098124,28
1766015864.0981371,25
1766015864.0981498,26
1766015864.098162,28
1766015864.098175,26
1766015864.098188,26
1766015864.098201,24
1766015864.0982132,25
1766015864.0982258,28
1766015864.098238,26
1766015864.098251,24
1766015864.098264,23
1766015864.098277,26
1766015864.09829,26
1766015864.098302,26
1766015864.098315,26
1766015864.098328,24
1766015864.09834,27
1766015864.098353,27
1766015864.098366,27
1766015864.098379,26
1766015864.098392,29
1766015864.0984042,28
1766015864.0984168,27
1766015864.09843,26
1766015864.098443,30
1766015864.098455,27
1766015864.098468,24
1766015864.098481,27
1766015864.0984929,24
1766015864.098506,25
1766015864.098519,26
1766015864.0985322,25
1766015864.0985851,25
1766015864.0995789,25
1766015864.100638,29
1766015864.101592,24
1766015864.102582,29
1766015864.103588,24
1766015864.1045709,23
1766015864.1056151,24
1766015864.106623,23
1766015864.1076171,24
1766015864.108587,23
1766015864.109628,26
1766015864.1106188,25
1766015864.111617,24
1766015864.112661,23
1766015864.113606,25
1766015864.114597,26
1766015864.115629,26
1766015864.1166441,27
1766015864.117648,25
1766015864.118645,27
1766015864.1196532,26
1766015864.120617,24
1766015864.121609,24
1766015864.12271,25
1766015864.1236649,25
1766015864.124659,25
1766015864.125691,26
1766015864.126644,24
1766015864.127648,26
1766015864.128638,25
1766015864.129636,24
1766015864.130691,25
1766015864.131671,26
1766015864.1326652,24
1766015864.133721,24
1766015864.1346948,22
1766015864.135741,24
1766015864.1367521,24
1766015864.137681,23
1766015864.138747,24
1766015864.139724,24
1766015864.140713,25
1766015864.1416981,24
1766015864.142702,25
1766015864.1437361,25
1766015864.144709,23
1766015864.1457322,25
1766015864.146732,24
1766015864.147735,25
1766015864.148727,22
1766015864.149697,23
1766015864.150701,20
1766015864.151731,25
1766015864.152734,23
1766015864.1537228,25
1766015864.154756,22
1766015864.155709,22
1766015864.156706,25
1766015864.157722,21
1766015864.158756,25
1766015864.159733,23
1766015864.160752,21
1766015864.161739,24
1766015864.162752,25
1766015864.1637702,25
1766015864.164774,23
1766015864.1657689,21
1766015864.166759,22
1766015864.1677482,21
1766015864.168743,23
1766015864.169796,23
1766015864.170778,23
1766015864.1718059,24
1766015864.172786,24
1766015864.173784,24
1766015864.174779,24
1766015864.175775,24
1766015864.176794,25
1766015864.177769,22
1766015864.1788008,22
1766015864.179831,23
1766015864.180795,21
1766015864.1818519,23
1766015864.182842,22
1766015864.183837,24
1766015864.1848938,23
1766015864.185838,21
1766015864.186836,22
1766015864.187893,24
1766015864.188938,21
1766015864.189874,22
1766015864.190909,21
1766015864.191898,26
1766015864.1928709,23
1766015864.19387,22
1766015864.194873,24
1766015864.195884,21
1766015864.196866,23
1766015864.1978922,22
1766015864.1988869,22
1766015864.1998742,21
1766015864.200862,22
1766015864.2018712,24
1766015864.2028549,21
1766015864.203925,22
1766015864.204921,22
1766015864.2059488,21
1766015864.2069309,22
1766015864.207885,23
1766015864.208889,23
1766015864.20988,22
1766015864.21088,23
1766015864.211915,23
1766015864.212908,23
1766015864.213946,23
1766015864.2149189,22
1766015864.215909,20
1766015864.216911,22
1766015864.2178938,24
1766015864.2189078,22
1766015864.219918,20
1766015864.220929,22
1766015864.2219892,24
1766015864.222945,22
1766015864.223937,21
1766015864.224936,25
1766015864.225934,19
1766015864.226984,22
1766015864.228002,24
1766015864.2290041,23
1766015864.229982,24
1766015864.2310212,22
1766015864.232012,22
1766015864.233002,22
1766015864.233978,20
1766015864.234968,27
1766015864.2359722,21
1766015864.2369878,24
1766015864.238014,21
1766015864.239033,21
1766015864.240015,23
1766015864.2409852,21
1766015864.242094,26
1766015864.243078,24
1766015864.2439969,23
1766015864.245009,21
1766015864.2461529,22
1766015864.2470798,24
1766015864.248102,22
1766015864.248995,19
1766015864.250085,22
1766015864.251071,22
1766015864.252079,22
1766015864.253084,22
1766015864.254119,22
1766015864.255132,23
1766015864.256076,19
1766015864.25709,21
1766015864.258077,20
1766015864.259073,26
1766015864.260108,23
1766015864.261081,24
1766015864.262096,20
1766015864.263096,24
1766015864.264098,20
1766015864.265085,23
1766015864.266088,22
1766015864.2670872,23
1766015864.268117,23
1766015864.269089,21
1766015864.270085,25
1766015864.271095,22
1766015864.2721071,23
1766015864.2730901,22
1766015864.274108,18
1766015864.2751071,23
1766015864.276088,23
1766015864.2771058,22
1766015864.278125,21
1766015864.2791328,24
1766015864.280133,23
1766015864.281141,24
1766015864.2821279,23
1766015864.2831628,21
1766015864.28413,22
1766015864.285123,23
1766015864.286148,24
1766015864.2871912,23
1766015864.288128,21
1766015864.289175,21
1766015864.290138,20
1766015864.291142,22
1766015864.292144,23
1766015864.2931268,22
1766015864.2941499,24
1766015864.295188,21
1766015864.2961779,21
1766015864.297232,22
1766015864.2981691,24
1766015864.2991638,18
1766015864.3001752,23
1766015864.301172,22
1766015864.3021529,21
1766015864.303193,24
1766015864.304214,22
1766015864.3051991,21
1766015864.3061812,21
1766015864.307182,24
1766015864.308237,20
1766015864.309236,21
1766015864.3101912,23
1766015864.31123,25
1766015864.3122392,21
1766015864.3132129,23
1766015864.31422,24
1766015864.315201,23
1766015864.316247,24
1766015864.3172271,20
1766015864.318224,22
1766015864.319235,21
1766015864.320249,20
1766015864.321279,22
1766015864.322274,18
1766015864.3232472,22
1766015864.3242319,21
1766015864.325275,18
1766015864.326273,22
1766015864.327245,22
1766015864.32828,24
1766015864.3292959,23
1766015864.330318,22
1766015864.331264,24
1766015864.332298,23
1766015864.3332832,22
1766015864.3343081,20
1766015864.335279,20
1766015864.3363001,19
1766015864.337394,20
1766015864.3383412,22
1766015864.339324,21
1766015864.340289,20
1766015864.341311,21
1766015864.3423018,24
1766015864.3433018,22
1766015864.344298,21
1766015864.345322,21
1766015864.346334,23
1766015864.3473349,22
1766015864.3483,22
1766015864.349324,22
1766015864.3503401,22
1766015864.351323,23
1766015864.352337,22
1766015864.35334,22
1766015864.35436,22
1766015864.3553522,22
1766015864.3563259,22
1766015864.357344,23
1766015864.358343,22
1766015864.3593721,22
1766015864.360368,22
1766015864.361362,24
1766015864.362369,25
1766015864.363352,26
1766015864.364347,22
1766015864.365366,23
1766015864.3663769,21
1766015864.367371,22
1766015864.368382,24
1766015864.36938,23
1766015864.370403,21
1766015864.371398,24
1766015864.372372,23
1766015864.373386,23
1766015864.3744068,22
1766015864.3754041,24
1766015864.376412,24
1766015864.377429,22
1766015864.378411,25
1766015864.3793979,23
1766015864.380416,23
1766015864.381418,23
1766015864.38239,21
1766015864.383429,26
1766015864.384404,22
1766015864.38543,22
1766015864.386441,20
1766015864.387472,21
1766015864.388445,20
1766015864.38946,21
1766015864.39043,23
1766015864.391446,23
1766015864.392438,23
1766015864.3934422,20
1766015864.394465,22
1766015864.395495,24
1766015864.3965042,23
1766015864.3974779,22
1766015864.398462,25
1766015864.399478,24
1766015864.400457,24
1766015864.401458,22
1766015864.402445,23
1766015864.403458,25
1766015864.404479,22
1766015864.405468,26
1766015864.406461,24
1766015864.4074728,21
1766015864.4084978,23
1766015864.4095109,22
1766015864.410501,24
1766015864.4114912,22
1766015864.4124951,22
1766015864.41353,22
1766015864.4144902,23
1766015864.415508,22
1766015864.416526,24
1766015864.417514,22
1766015864.418525,23
1766015864.4195058,24
1766015864.420529,22
1766015864.421547,26
1766015864.4225368,21
1766015864.4235132,24
1766015864.4245179,23
1766015864.42555,21
1766015864.426551,24
1766015864.427544,25
1766015864.4285529,25
1766015864.4295769,23
1766015864.43058,24
1766015864.431542,25
1766015864.4325771,23
1766015864.433572,23
1766015864.4345548,23
1766015864.435573,23
1766015864.436566,23
1766015864.4375749,25
1766015864.43858,26
1766015864.439569,27
1766015864.440591,27
1766015864.4415622,28
1766015864.44257,26
1766015864.4435809,30
1766015864.44459,30
1766015864.445612,27
1766015864.446604,30
1766015864.447592,27
1766015864.448586,27
1766015864.4495869,25
1766015864.4506052,29
1766015864.451614,28
1766015864.452627,24
1766015864.453652,27
1766015864.454655,28
1766015864.4556491,26
1766015864.456629,26
1766015864.4576309,26
1766015864.458646,25
1766015864.459649,28
1766015864.4606311,26
1766015864.4616268,28
1766015864.462634,28
1766015864.463639,27
1766015864.464631,27
1766015864.465632,28
1766015864.4666612,31
1766015864.467666,27
1766015864.468672,31
1766015864.469666,31
1766015864.4706938,35
1766015864.471681,34
1766015864.4726558,32
1766015864.473658,33
1766015864.474648,33
1766015864.475683,33
1766015864.4767191,36
1766015864.4776871,34
1766015864.47871,34
1766015864.4797041,37
1766015864.480711,34
1766015864.481691,32
1766015864.482694,34
1766015864.483718,34
1766015864.484719,35
1766015864.485729,34
1766015864.4867442,32
1766015864.487756,32
1766015864.488728,32
1766015864.4897301,34
1766015864.490761,35
1766015864.4917178,33
1766015864.492738,33
1766015864.493727,30
1766015864.494742,37
1766015864.495757,34
1766015864.496772,33
1766015864.4977632,33
1766015864.4987578,35
1766015864.499742,34
1766015864.500751,33
1766015864.501756,36
1766015864.502792,35
1766015864.5037818,36
1766015864.504808,38
1766015864.505814,33
1766015864.5067651,34
1766015864.507782,33
1766015864.50879,36
1766015864.509797,36
1766015864.5107892,37
1766015864.511821,35
1766015864.512819,36
1766015864.5138009,36
1766015864.514852,37
1766015864.5158029,34
1766015864.516787,36
1766015864.5177972,33
1766015864.518799,39
1766015864.519779,36
1766015864.52082,33
1766015864.521798,35
1766015864.5228422,35
1766015864.523796,36
1766015864.524823,38
1766015864.52582,35
1766015864.526853,37
1766015864.5278459,39
1766015864.5288708,38
1766015864.529871,38
1766015864.530973,41
1766015864.531897,42
1766015864.532983,43
1766015864.533897,44
1766015864.534875,43
1766015864.535876,44
1766015864.536885,43
1766015864.537889,43
1766015864.5389152,41
1766015864.5398521,44
1766015864.540863,47
1766015864.5418901,43
1766015864.542869,46
1766015864.543869,44
1766015864.544894,44
1766015864.545897,45
1766015864.5469928,42
1766015864.547919,43
1766015864.548935,44
1766015864.5498822,46
1766015864.550878,44
1766015864.551888,44
1766015864.552865,45
1766015864.55388,43
1766015864.5548759,43
1766015864.5558898,42
1766015864.5568771,45
1766015864.557888,43
1766015864.5588968,45
1766015864.5599291,46
1766015864.560897,42
1766015864.561913,44
1766015864.562937,44
1766015864.563931,44
1766015864.5649128,46
1766015864.565918,45
1766015864.566936,49
1766015864.567934,49
1766015864.5689752,49
1766015864.56992,47
1766015864.571116,47
1766015864.572056,46
1766015864.5729449,49
1766015864.573994,51
1766015864.574977,49
1766015864.575945,49
1766015864.576939,51
1766015864.578032,53
1766015864.57906,52
1766015864.5800672,51
1766015864.580983,51
1766015864.5819662,52
1766015864.5829718,51
1766015864.583976,51
1766015864.584974,50
1766015864.5859709,53
1766015864.5869792,52
1766015864.588008,54
1766015864.5890281,53
1766015864.590009,52
1766015864.590991,52
1766015864.591985,51
1766015864.592971,52
1766015864.593974,52
1766015864.595084,53
1766015864.5959911,48
1766015864.597002,52
1766015864.597983,51
1766015864.5991051,52
1766015864.6000772,51
1766015864.601093,51
1766015864.602085,49
1766015864.603085,51
1766015864.6040971,55
1766015864.605087,50
1766015864.6060858,50
1766015864.607091,50
1766015864.608105,51
1766015864.609146,49
1766015864.610108,46
1766015864.611108,49
1766015864.6120791,49
1766015864.613081,47
1766015864.614142,46
1766015864.6150799,47
1766015864.616097,47
1766015864.6170812,49
1766015864.618064,49
1766015864.619106,49
1766015864.620128,47
1766015864.621092,45
1766015864.622082,45
1766015864.623085,50
1766015864.624091,48
1766015864.62507,49
1766015864.626076,50
1766015864.6270761,47
1766015864.628073,46
1766015864.62914,47
1766015864.63008,50
1766015864.63109,52
1766015864.6321,49
1766015864.63311,47
1766015864.634094,46
1766015864.635096,47
1766015864.6360981,48
1766015864.6371,48
1766015864.638109,50
1766015864.639083,46
1766015864.6401038,51
1766015864.641173,47
1766015864.642112,45
1766015864.643111,48
1766015864.6441169,45
1766015864.6451478,49
1766015864.646162,48
1766015864.647211,48
1766015864.6481721,48
1766015864.6491652,48
1766015864.6501272,50
1766015864.651156,49
1766015864.652152,46
1766015864.6531851,51
1766015864.654208,51
1766015864.655335,51
1766015864.656188,46
1766015864.657181,51
1766015864.658189,48
1766015864.659133,52
1766015864.660168,50
1766015864.661173,51
1766015864.6622322,49
1766015864.66318,52
1766015864.6642041,48
1766015864.6652281,48
1766015864.6662028,49
1766015864.667178,49
1766015864.668225,48
1766015864.669216,50
1766015864.670197,50
1766015864.671222,51
1766015864.6722171,47
1766015864.6732328,51
1766015864.674248,50
1766015864.675215,53
1766015864.676225,51
1766015864.677206,55
1766015864.678236,55
1766015864.6792388,54
1766015864.680208,54
1766015864.681227,53
1766015864.682243,51
1766015864.683202,55
1766015864.684225,55
1766015864.6852322,50
1766015864.686238,48
1766015864.687247,50
1766015864.688245,52
1766015864.6892421,53
1766015864.690285,48
1766015864.691283,52
1766015864.6922722,46
1766015864.693274,47
1766015864.69429,50
1766015864.695298,49
1766015864.6963258,48
1766015864.697333,48
1766015864.698324,51
1766015864.6993458,49
1766015864.7003589,51
1766015864.701337,50
1766015864.7023559,50
1766015864.703325,48
1766015864.70433,47
1766015864.7053492,51
1766015864.706322,48
1766015864.7073321,45
1766015864.708304,50
1766015864.709339,50
1766015864.710336,47
1766015864.7113159,46
1766015864.7123818,49
1766015864.7133892,47
1766015864.714416,48
1766015864.715404,50
1766015864.716348,51
1766015864.717433,52
1766015864.718364,50
1766015864.719373,51
1766015864.720421,52
1766015864.721396,52
1766015864.722357,53
1766015864.72335,49
1766015864.724364,50
1766015864.7253609,52
1766015864.7263691,50
1766015864.7273412,51
1766015864.72838,48
1766015864.729392,52
1766015864.730371,54
1766015864.731366,56
1766015864.7323651,54
1766015864.73337,52
1766015864.734376,55
1766015864.735376,51
1766015864.7363682,55
1766015864.7374022,53
1766015864.738389,53
1766015864.739373,53
1766015864.740389,50
1766015864.7413938,56
1766015864.742392,50
1766015864.743391,52
1766015864.744409,52
1766015864.7454069,51
1766015864.7464068,50
1766015864.7473931,54
1766015864.748411,52
1766015864.749451,53
1766015864.7504199,55
1766015864.7514188,53
1766015864.752428,50
1766015864.753432,52
1766015864.754426,53
1766015864.755426,53
1766015864.756453,47
1766015864.757441,50
1766015864.7584488,53
1766015864.759451,49
1766015864.760465,49
1766015864.761476,51
1766015864.762476,49
1766015864.763525,52
1766015864.764506,52
1766015864.7655098,53
1766015864.76647,52
1766015864.767504,52
1766015864.768481,52
1766015864.769464,53
1766015864.770489,49
1766015864.7715058,50
1766015864.772501,50
1766015864.773501,47
1766015864.774506,50
1766015864.775486,50
1766015864.776588,50
1766015864.777519,50
1766015864.778538,52
1766015864.779551,48
1766015864.780524,48
1766015864.781522,48
1766015864.782579,50
1766015864.783555,52
1766015864.784554,49
1766015864.7855418,51
1766015864.786561,50
1766015864.787529,49
1766015864.788536,51
1766015864.789547,48
1766015864.79055,48
1766015864.7915351,50
1766015864.792553,45
1766015864.793546,45
1766015864.7945411,48
1766015864.7955399,49
1766015864.796543,49
1766015864.797547,49
1766015864.798615,49
1766015864.799568,47
1766015864.800608,46
1766015864.8015628,47
1766015864.802593,50
1766015864.803574,48
1766015864.804584,49
1766015864.805603,47
1766015864.806586,48
1766015864.807612,46
1766015864.808612,46
1766015864.8095841,45
1766015864.810585,45
1766015864.811579,43
1766015864.812597,47
1766015864.8136342,47
1766015864.8146298,51
1766015864.815614,47
1766015864.816607,50
1766015864.817649,47
1766015864.81861,46
1766015864.8196218,46
1766015864.820662,45
1766015864.821686,46
1766015864.822655,50
1766015864.823693,46
1766015864.8247008,45
1766015864.82564,44
1766015864.826637,44
1766015864.827649,46
1766015864.8286579,42
1766015864.829674,46
1766015864.8306649,43
1766015864.831684,45
1766015864.8327081,47
1766015864.83368,48
1766015864.83467,49
1766015864.835663,50
1766015864.836682,47
1766015864.837666,48
1766015864.838658,50
1766015864.83969,49
1766015864.840689,49
1766015864.8416839,50
1766015864.842697,48
1766015864.8437078,49
1766015864.844685,49
1766015864.8457222,49
1766015864.846699,49
1766015864.847717,49
1766015864.8487391,47
1766015864.849736,50
1766015864.850701,49
1766015864.851757,51
1766015864.852778,50
1766015864.8537421,49
1766015864.8547149,51
1766015864.85572,51
1766015864.856718,50
1766015864.857738,51
1766015864.8587599,53
1766015864.8597708,53
1766015864.8607738,53
1766015864.86179,53
1766015864.862777,51
1766015864.8637838,55
1766015864.86479,52
1766015864.865793,55
1766015864.866831,52
1766015864.8677561,51
1766015864.8687701,51
1766015864.869777,49
1766015864.870792,52
1766015864.8718069,51
1766015864.872761,50
1766015864.8737679,48
1766015864.8747609,48
1766015864.87576,49
1766015864.87678,48
1766015864.877813,49
1766015864.878803,51
1766015864.879842,48
1766015864.88081,50
1766015864.881811,47
1766015864.8828218,45
1766015864.883817,46
1766015864.884823,46
1766015864.885837,47
1766015864.886823,46
1766015864.887861,46
1766015864.8888488,47
1766015864.8898351,46
1766015864.890831,48
1766015864.89185,46
1766015864.892848,45
1766015864.89385,47
1766015864.894857,47
1766015864.895864,46
1766015864.8968792,50
1766015864.897856,52
1766015864.898871,47
1766015864.899879,47
1766015864.900874,48
1766015864.9018712,47
1766015864.902876,49
1766015864.90389,45
1766015864.904871,44
1766015864.905958,48
1766015864.9068842,49
1766015864.907878,48
1766015864.908911,45
1766015864.9099011,46
1766015864.910911,48
1766015864.911892,41
1766015864.912904,46
1766015864.913923,45
1766015864.9149098,46
1766015864.9159172,45
1766015864.91692,45
1766015864.917927,46
1766015864.918935,46
1766015864.9199302,46
1766015864.9209301,43
1766015864.921935,46
1766015864.9229262,43
1766015864.923934,42
1766015864.9249122,43
1766015864.925954,47
1766015864.926955,47
1766015864.927954,48
1766015864.928948,47
1766015864.929965,44
1766015864.930965,42
1766015864.931979,46
1766015864.932996,46
1766015864.933984,45
1766015864.934988,43
1766015864.9359932,44
1766015864.936957,45
1766015864.9380548,44
1766015864.9389708,44
1766015864.9399838,47
1766015864.9410691,43
1766015864.942067,42
1766015864.943069,38
1766015864.944155,43
1766015864.945083,44
1766015864.946068,43
1766015864.947072,43
1766015864.948071,44
1766015864.949068,45
1766015864.950069,44
1766015864.951073,45
1766015864.952081,44
1766015864.953059,45
1766015864.954119,45
1766015864.955053,43
1766015864.956067,43
1766015864.95707,44
1766015864.95807,44
1766015864.959069,38
1766015864.960072,41
1766015864.961107,44
1766015864.962068,47
1766015864.96307,43
1766015864.9640782,45
1766015864.96507,46
1766015864.9660711,46
1766015864.967069,46
1766015864.96806,43
1766015864.9690711,46
1766015864.970069,42
1766015864.971075,46
1766015864.9720588,42
1766015864.973071,45
1766015864.974099,45
1766015864.97509,43
1766015864.976088,42
1766015864.9770958,43
1766015864.978104,40
1766015864.9790962,45
1766015864.980109,44
1766015864.981108,44
1766015864.982097,43
1766015864.983095,42
1766015864.984108,41
1766015864.985122,44
1766015864.986121,41
1766015864.9871109,41
1766015864.9881458,42
1766015864.9891,41
1766015864.990124,40
1766015864.991133,39
1766015864.992136,40
1766015864.9931362,40
1766015864.994143,41
1766015864.9951491,40
1766015864.99615,44
1766015864.997142,40
1766015864.998162,44
1766015864.999161,42
1766015865.0001652,42
1766015865.001164,42
1766015865.0021608,43
1766015865.003166,42
1766015865.004164,42
1766015865.0051641,41
1766015865.00618,42
1766015865.00719,41
1766015865.0081751,42
1766015865.009174,42
1766015865.0101812,41
1766015865.011168,41
1766015865.012175,41
1766015865.013195,43
1766015865.0141912,41
1766015865.015187,42
1766015865.01619,41
1766015865.017246,37
1766015865.0182452,43
1766015865.019205,40
1766015865.0201988,38
1766015865.0212271,40
1766015865.0222132,38
1766015865.023206,37
1766015865.02421,38
1766015865.025202,38
1766015865.0262349,39
1766015865.0272279,39
1766015865.028239,42
1766015865.029228,40
1766015865.030247,37
1766015865.0312462,39
1766015865.032235,39
1766015865.0332391,37
1766015865.0342422,35
1766015865.0352461,38
1766015865.036242,35
1766015865.037243,36
1766015865.038257,38
1766015865.039253,40
1766015865.040267,37
1766015865.041263,37
1766015865.042272,37
1766015865.0432692,45
1766015865.044287,41
1766015865.0452638,41
1766015865.046259,42
1766015865.0472808,42
1766015865.048288,44
1766015865.049289,45
1766015865.050303,41
1766015865.051358,42
1766015865.052317,43
1766015865.053343,44
1766015865.054295,45
1766015865.0553222,43
1766015865.056315,42
1766015865.0573041,44
1766015865.05833,41
1766015865.059318,40
1766015865.060332,42
1766015865.061326,39
1766015865.062322,40
1766015865.0633411,42
1766015865.064349,41
1766015865.065345,42
1766015865.0663428,41
1766015865.0673542,43
1766015865.068374,42
1766015865.0693471,38
1766015865.070349,40
1766015865.071357,42
1766015865.072376,39
1766015865.073365,37
1766015865.074372,35
1766015865.075362,38
1766015865.076378,38
1766015865.077386,38
1766015865.0783901,40
1766015865.079376,37
1766015865.080368,38
1766015865.081386,35
