timestamp,emg_value
1766015861.7417002,39
1766015861.741722,40
1766015861.741738,42
1766015861.741754,41
1766015861.741769,42
1766015861.741785,41
1766015861.741801,40
1766015861.741816,41
1766015861.741832,38
1766015861.741847,40
1766015861.7418618,38
1766015861.741878,38
1766015861.741893,36
1766015861.741908,40
1766015861.741923,37
1766015861.7419379,38
1766015861.7419531,41
1766015861.7419689,37
1766015861.741984,41
1766015861.7419991,40
1766015861.742014,37
1766015861.742029,39
1766015861.742044,40
1766015861.742059,41
1766015861.742074,39
1766015861.742089,37
1766015861.742104,39
1766015861.74212,42
1766015861.742135,40
1766015861.7421498,40
1766015861.742165,40
1766015861.74218,40
1766015861.7422059,38
1766015861.742222,39
1766015861.742236,36
1766015861.742251,38
1766015861.7422662,37
1766015861.742281,39
1766015861.742296,35
1766015861.742312,37
1766015861.742326,37
1766015861.742342,36
1766015861.742357,38
1766015861.7423732,36
1766015861.742388,37
1766015861.742403,33
1766015861.7424178,36
1766015861.742432,35
1766015861.742448,33
1766015861.7424629,33
1766015861.742477,35
1766015861.742492,35
1766015861.742507,34
1766015861.742523,35
1766015861.742538,36
1766015861.742553,35
1766015861.742568,34
1766015861.742582,34
1766015861.7426062,34
1766015861.742621,35
1766015861.7426372,33
1766015861.742652,34
1766015861.742667,32
1766015861.7426822,35
1766015861.7427,30
1766015861.7427468,34
1766015861.742762,34
1766015861.742777,36
1766015861.7427928,35
1766015861.742808,32
1766015861.742823,34
1766015861.742838,33
1766015861.7428532,32
1766015861.742868,29
1766015861.7428842,32
1766015861.742899,33
1766015861.742914,32
1766015861.742934,31
1766015861.742949,30
1766015861.742964,35
1766015861.742979,31
1766015861.742995,31
1766015861.74301,35
1766015861.743027,29
1766015861.743042,32
1766015861.743057,33
1766015861.743073,33
1766015861.7430882,31
1766015861.743105,34
1766015861.74312,30
1766015861.743135,32
1766015861.743155,32
1766015861.743171,31
1766015861.74319,33
1766015861.7432058,31
1766015861.743222,31
1766015861.743239,30
1766015861.74326,30
1766015861.743275,29
1766015861.7432902,30
1766015861.743306,35
1766015861.7433212,32
1766015861.743337,35
1766015861.7433522,31
1766015861.743367,33
1766015861.743383,32
1766015861.743398,31
1766015861.743413,34
1766015861.7434292,31
1766015861.743449,32
1766015861.7434628,33
1766015861.743475,34
1766015861.743488,36
1766015861.743501,38
1766015861.743514,33
1766015861.743527,34
1766015861.74354,34
1766015861.743553,34
1766015861.743566,32
1766015861.743579,29
1766015861.743592,33
1766015861.743605,35
1766015861.743618,35
1766015861.7436311,34
1766015861.743645,33
1766015861.7436569,36
1766015861.743671,34
1766015861.743684,33
1766015861.743697,32
1766015861.743714,32
1766015861.7437792,37
1766015861.743795,35
1766015861.743809,35
1766015861.743822,36
1766015861.743835,35
1766015861.7438478,34
1766015861.743861,36
1766015861.743875,38
1766015861.7438872,35
1766015861.743901,34
1766015861.743914,36
1766015861.743927,39
1766015861.74394,35
1766015861.743953,34
1766015861.7439659,36
1766015861.743979,37
1766015861.743992,34
1766015861.7440052,34
1766015861.7440178,35
1766015861.744033,36
1766015861.744046,36
1766015861.7440588,33
1766015861.744072,36
1766015861.744085,34
1766015861.744098,35
1766015861.744111,38
1766015861.744124,37
1766015861.744137,37
1766015861.74415,35
1766015861.744163,35
1766015861.7441761,36
1766015861.744189,33
1766015861.7442071,35
1766015861.74422,35
1766015861.744233,32
1766015861.744246,35
1766015861.744259,37
1766015861.7442718,36
1766015861.7442849,34
1766015861.744298,35
1766015861.744311,36
1766015861.7443242,34
1766015861.7443368,36
1766015861.744352,35
1766015861.744365,37
1766015861.744378,35
1766015861.744391,34
1766015861.744405,36
1766015861.7444181,37
1766015861.744431,36
1766015861.744444,34
1766015861.744457,36
1766015861.7444701,35
1766015861.744483,39
1766015861.7444968,37
1766015861.74451,35
1766015861.744523,35
1766015861.7445362,36
1766015861.744549,33
1766015861.744562,31
1766015861.744575,36
1766015861.7445881,35
1766015861.744601,35
1766015861.7446148,35
1766015861.7446332,35
1766015861.744647,37
1766015861.744659,35
1766015861.744672,35
1766015861.7446852,36
1766015861.744698,32
1766015861.744711,33
1766015861.744724,35
1766015861.744737,35
1766015861.74475,34
1766015861.744763,34
1766015861.744776,32
1766015861.744791,34
1766015861.7448041,34
1766015861.7448168,35
1766015861.74483,33
1766015861.744843,34
1766015861.744856,31
1766015861.7448692,29
1766015861.7448819,34
1766015861.744896,35
1766015861.744909,33
1766015861.7449222,36
1766015861.7449348,34
1766015861.744948,36
1766015861.744961,36
1766015861.7449741,35
1766015861.7449868,35
1766015861.745,37
1766015861.745013,34
1766015861.745026,37
1766015861.74504,37
1766015861.7450528,36
1766015861.74507,36
1766015861.7450829,35
1766015861.745096,38
1766015861.745109,33
1766015861.745121,35
1766015861.745134,31
1766015861.745162,36
1766015861.7451751,33
1766015861.745188,37
1766015861.7452009,35
1766015861.745214,35
1766015861.745226,33
1766015861.74524,36
1766015861.745253,33
1766015861.745266,34
1766015861.745308,34
1766015861.745356,35
1766015861.7453709,34
1766015861.745384,34
1766015861.745398,36
1766015861.7454112,34
1766015861.7454238,32
1766015861.7454379,35
1766015861.745451,34
1766015861.745464,35
1766015861.745478,35
1766015861.745491,36
1766015861.745504,35
1766015861.745517,35
1766015861.7455301,33
1766015861.745544,34
1766015861.745557,35
1766015861.745573,34
1766015861.7455869,33
1766015861.7456,35
1766015861.745613,35
1766015861.7456262,35
1766015861.7456388,34
1766015861.745652,33
1766015861.745665,38
1766015861.7456791,32
1766015861.745692,35
1766015861.745707,32
1766015861.7457201,32
1766015861.745733,33
1766015861.745746,33
1766015861.745759,31
1766015861.7457721,34
1766015861.745785,30
1766015861.7457979,35
1766015861.745811,33
1766015861.745824,30
1766015861.745837,32
1766015861.7458491,31
1766015861.745862,33
1766015861.745875,30
1766015861.745888,30
1766015861.745901,35
1766015861.7459142,36
1766015861.745926,31
1766015861.745939,35
1766015861.745952,33
1766015861.745965,32
1766015861.745978,32
1766015861.745991,36
1766015861.746007,34
1766015861.74602,33
1766015861.746033,34
1766015861.746046,30
1766015861.746058,33
1766015861.746071,33
1766015861.7460842,29
1766015861.7460968,34
1766015861.74611,35
1766015861.746122,30
1766015861.746135,37
1766015861.746148,35
1766015861.746161,33
1766015861.7461739,36
1766015861.746186,36
1766015861.7461991,34
1766015861.746212,29
1766015861.746227,33
1766015861.746239,29
1766015861.746252,31
1766015861.7462652,29
1766015861.7462778,28
1766015861.746291,31
1766015861.746304,30
1766015861.746316,30
1766015861.746329,29
1766015861.746342,32
1766015861.746355,30
1766015861.746368,29
1766015861.746381,30
1766015861.7463942,32
1766015861.7464068,31
1766015861.746422,30
1766015861.746436,33
1766015861.746449,30
1766015861.7464619,27
1766015861.746475,32
1766015861.746488,31
1766015861.7465012,30
1766015861.7465138,27
1766015861.746526,31
1766015861.746539,32
1766015861.746552,29
1766015861.746565,32
1766015861.7465768,32
1766015861.74659,29
1766015861.746603,30
1766015861.746624,31
1766015861.746637,29
1766015861.7466502,28
1766015861.7466629,30
1766015861.746676,29
1766015861.746689,30
1766015861.7467022,30
1766015861.746714,33
1766015861.746727,26
1766015861.7467399,32
1766015861.746753,28
1766015861.7467651,29
1766015861.746778,30
1766015861.746791,27
1766015861.746804,31
1766015861.746817,31
1766015861.74683,30
1766015861.7468429,28
1766015861.74686,29
1766015861.7468731,27
1766015861.746885,29
1766015861.746898,29
1766015861.746911,29
1766015861.746924,26
1766015861.746937,30
1766015861.7469492,28
1766015861.7469618,28
1766015861.746975,30
1766015861.746987,28
1766015861.747,27
1766015861.747013,28
1766015861.747026,29
1766015861.747039,31
1766015861.747052,28
1766015861.747064,28
1766015861.7470772,26
1766015861.7470899,26
1766015861.747103,26
1766015861.747116,27
1766015861.747128,25
1766015861.7471411,29
1766015861.747154,25
1766015861.7471669,27
1766015861.747179,24
1766015861.7471921,26
1766015861.747205,23
1766015861.747218,29
1766015861.747231,26
1766015861.7472441,29
1766015861.747256,28
1766015861.747272,26
1766015861.747286,27
1766015861.747299,29
1766015861.747312,26
1766015861.747326,27
1766015861.747339,28
1766015861.7473521,28
1766015861.747364,24
1766015861.747377,30
1766015861.74739,27
1766015861.747403,30
1766015861.747415,26
1766015861.7474291,28
1766015861.747442,28
1766015861.747455,31
1766015861.747467,28
1766015861.7474802,27
1766015861.747493,26
1766015861.747506,27
1766015861.747518,25
1766015861.747531,25
1766015861.747544,27
1766015861.7475572,25
1766015861.7475688,28
1766015861.747582,28
1766015861.747595,24
1766015861.747614,26
1766015861.747628,28
1766015861.747641,25
1766015861.747654,27
1766015861.7476668,25
1766015861.747679,26
1766015861.747692,26
1766015861.747709,27
1766015861.747722,24
1766015861.747734,28
1766015861.7477472,23
1766015861.74776,26
1766015861.747773,25
1766015861.7477849,24
1766015861.747798,28
1766015861.747811,22
1766015861.7478242,25
1766015861.7478359,23
1766015861.747849,24
1766015861.747862,21
1766015861.747875,22
1766015861.7478871,24
1766015861.7479,27
1766015861.747913,23
1766015861.747926,25
1766015861.7479382,26
1766015861.747951,25
1766015861.747964,24
1766015861.747977,23
1766015861.747989,26
1766015861.748002,27
1766015861.7480152,25
1766015861.74803,25
1766015861.748043,24
1766015861.7480562,24
1766015861.748068,28
1766015861.748082,26
1766015861.748095,25
1766015861.748107,22
1766015861.748131,25
1766015861.7481449,26
1766015861.748158,24
1766015861.748172,24
1766015861.7481852,23
1766015861.7481978,24
1766015861.748211,26
1766015861.748223,27
1766015861.748236,26
1766015861.748249,23
1766015861.748262,25
1766015861.748275,26
1766015861.748288,25
1766015861.748301,22
1766015861.7483141,24
1766015861.748327,26
1766015861.74834,25
1766015861.748353,23
1766015861.748366,25
1766015861.748378,22
1766015861.748391,23
1766015861.748404,24
1766015861.7484171,25
1766015861.74843,24
1766015861.748443,25
1766015861.748456,24
1766015861.7484689,27
1766015861.748482,28
1766015861.748495,26
1766015861.748508,25
1766015861.7485209,23
1766015861.748534,26
1766015861.748547,26
1766015861.7485619,28
1766015861.748575,25
1766015861.748655,23
1766015861.748678,27
1766015861.748692,25
1766015861.748706,26
1766015861.7487192,27
1766015861.748733,26
1766015861.748746,26
1766015861.748759,25
1766015861.7487721,26
1766015861.7487848,27
1766015861.748799,26
1766015861.748812,26
1766015861.748825,24
1766015861.748838,26
1766015861.748851,28
1766015861.748864,27
1766015861.748877,30
1766015861.7488902,28
1766015861.748904,26
1766015861.748917,26
1766015861.74893,27
1766015861.7489438,27
1766015861.748957,26
1766015861.74897,27
1766015861.7489831,30
1766015861.748996,26
1766015861.7490098,25
1766015861.749023,29
1766015861.749036,27
1766015861.7490492,27
1766015861.749077,29
1766015861.749093,30
1766015861.749538,24
1766015861.749551,29
1766015861.749564,27
1766015861.749577,24
1766015861.74959,29
1766015861.749603,28
1766015861.7496161,27
1766015861.74963,27
1766015861.749643,27
1766015861.749656,29
1766015861.749669,26
1766015861.749682,27
1766015861.749695,27
1766015861.749708,26
1766015861.749721,27
1766015861.7497332,31
1766015861.7497458,30
1766015861.749759,27
1766015861.749773,30
1766015861.7497852,27
1766015861.7497978,29
1766015861.749811,26
1766015861.749824,29
1766015861.7498372,29
1766015861.74985,32
1766015861.749863,28
1766015861.749876,32
1766015861.7498891,26
1766015861.749902,29
1766015861.749915,25
1766015861.749928,30
1766015861.749944,31
1766015861.749957,30
1766015861.74997,28
1766015861.749983,28
1766015861.749996,29
1766015861.750009,30
1766015861.750022,30
1766015861.750035,32
1766015861.750048,26
1766015861.750061,28
1766015861.7500741,26
1766015861.750087,30
1766015861.7501,29
1766015861.750112,29
1766015861.7501252,30
1766015861.750138,33
1766015861.750151,31
1766015861.750164,31
1766015861.750177,28
1766015861.75019,28
1766015861.7502022,28
1766015861.7502148,30
1766015861.750228,34
1766015861.750241,32
1766015861.7502542,31
1766015861.750266,31
1766015861.750279,28
1766015861.750292,31
1766015861.750305,32
1766015861.750318,30
1766015861.750331,34
1766015861.750344,31
1766015861.750359,32
1766015861.7503738,30
1766015861.750387,26
1766015861.7504,32
1766015861.750413,31
1766015861.750426,31
1766015861.750439,34
1766015861.7504508,32
1766015861.750464,32
1766015861.7504792,32
1766015861.7504919,34
1766015861.750505,30
1766015861.750518,32
1766015861.750531,34
1766015861.7505438,34
1766015861.750557,34
1766015861.75057,31
1766015861.750583,34
1766015861.750596,34
1766015861.750609,32
1766015861.750623,35
1766015861.750637,30
1766015861.7506502,30
1766015861.7506628,34
1766015861.750675,33
1766015861.750688,34
1766015861.750701,32
1766015861.750714,30
1766015861.750727,33
1766015861.75074,33
1766015861.750753,34
1766015861.750766,33
1766015861.750779,33
1766015861.750796,33
1766015861.7508092,33
1766015861.7508218,34
1766015861.750836,30
1766015861.750849,33
1766015861.7508621,34
1766015861.750876,30
1766015861.750889,31
1766015861.750902,35
1766015861.750916,34
1766015861.7509289,36
1766015861.750942,35
1766015861.750955,34
1766015861.750968,35
1766015861.750981,34
1766015861.750995,32
1766015861.751008,32
1766015861.7510211,34
1766015861.751034,32
1766015861.751049,33
1766015861.751062,35
1766015861.751076,34
1766015861.7510889,31
1766015861.751102,34
1766015861.751116,37
1766015861.7511292,35
1766015861.7511418,33
1766015861.751155,35
1766015861.751168,35
1766015861.7511811,36
1766015861.751194,34
1766015861.7512069,36
1766015861.7512221,31
1766015861.7512362,33
1766015861.7512488,36
1766015861.751262,35
1766015861.751275,35
1766015861.7512882,35
1766015861.751301,35
1766015861.751314,34
1766015861.751327,33
1766015861.751341,34
1766015861.7513542,32
1766015861.7513669,34
1766015861.7513778,36
1766015861.75139,36
1766015861.751401,38
1766015861.751412,36
1766015861.751424,32
1766015861.751435,37
1766015861.751447,35
1766015861.751458,34
1766015861.7514691,36
1766015861.75148,36
1766015861.751492,35
1766015861.751503,35
1766015861.7515168,37
1766015861.751528,37
1766015861.751539,37
1766015861.75155,38
1766015861.7515619,34
1766015861.751573,39
1766015861.751584,37
1766015861.751596,38
1766015861.751607,36
1766015861.75162,38
1766015861.751631,36
1766015861.751643,35
1766015861.751654,38
1766015861.7516649,36
1766015861.751677,35
1766015861.751688,36
1766015861.751699,37
1766015861.751711,37
1766015861.751722,38
1766015861.751733,35
1766015861.751745,37
1766015861.751756,39
1766015861.7517672,36
1766015861.751787,37
1766015861.751798,38
1766015861.75181,36
1766015861.751821,37
1766015861.751832,36
1766015861.7518442,36
1766015861.7518551,38
1766015861.751866,36
1766015861.7518778,35
1766015861.751891,37
1766015861.751904,38
1766015861.751918,36
1766015861.751929,35
1766015861.75194,37
1766015861.751952,36
1766015861.751963,36
1766015861.7519739,35
1766015861.751986,38
1766015861.751997,34
1766015861.752021,39
1766015861.752034,37
1766015861.7520452,37
1766015861.752057,35
1766015861.752068,35
1766015861.752079,33
1766015861.7520902,33
1766015861.7521012,36
1766015861.7521129,34
1766015861.7521238,35
1766015861.7521348,36
1766015861.752146,32
1766015861.752157,39
1766015861.752169,36
1766015861.7521799,36
1766015861.752191,38
1766015861.752202,32
1766015861.752214,34
1766015861.752225,35
1766015861.7522361,35
1766015861.752248,34
1766015861.7522619,38
1766015861.752274,33
1766015861.752285,37
1766015861.752296,35
1766015861.752308,33
1766015861.7523189,35
1766015861.75233,36
1766015861.752341,35
1766015861.752352,33
1766015861.752364,36
1766015861.7523751,36
1766015861.752388,36
1766015861.7524018,36
1766015861.752415,35
1766015861.752426,34
1766015861.7524369,33
1766015861.752448,32
1766015861.75246,35
1766015861.752471,38
1766015861.752482,35
1766015861.7524931,35
1766015861.752505,35
1766015861.752516,35
1766015861.752527,35
1766015861.7525382,34
1766015861.7525508,33
1766015861.7525618,37
1766015861.752573,39
1766015861.752584,34
1766015861.752596,38
1766015861.7526069,38
1766015861.752618,33
1766015861.752636,34
1766015861.752649,32
1766015861.7526631,33
1766015861.752674,33
1766015861.752685,35
1766015861.752696,34
1766015861.752707,34
1766015861.7527192,32
1766015861.7527301,32
1766015861.752741,34
1766015861.752752,35
1766015861.7527628,34
1766015861.752778,33
1766015861.752791,33
1766015861.752803,31
1766015861.752814,31
1766015861.752825,33
1766015861.7528372,34
1766015861.752848,34
1766015861.7528589,32
1766015861.7528698,35
1766015861.7528808,31
1766015861.752893,35
1766015861.752904,34
1766015861.752915,30
1766015861.7529259,33
1766015861.752938,34
1766015861.752949,34
1766015861.75296,35
1766015861.752971,34
1766015861.752982,32
1766015861.752993,36
1766015861.753004,30
1766015861.753015,34
1766015861.753027,33
1766015861.7530382,33
1766015861.7530491,31
1766015861.75306,34
1766015861.753071,31
1766015861.753083,34
1766015861.753094,33
1766015861.753105,33
1766015861.7531168,34
1766015861.75313,33
1766015861.753142,33
1766015861.753154,30
1766015861.753165,33
1766015861.7531772,34
1766015861.7531881,32
1766015861.753199,31
1766015861.7532108,31
1766015861.753222,33
1766015861.753233,33
1766015861.753244,35
1766015861.753255,34
1766015861.7532659,32
1766015861.753278,33
1766015861.753289,32
1766015861.753302,31
1766015861.753313,34
1766015861.7533262,35
1766015861.753338,30
1766015861.753367,32
1766015861.753404,32
1766015861.7534158,35
1766015861.753428,31
1766015861.75344,33
1766015861.753451,32
1766015861.753463,31
1766015861.753477,34
1766015861.7534888,33
1766015861.7535,32
1766015861.753511,32
1766015861.7535229,32
1766015861.7535338,31
1766015861.753546,32
1766015861.753557,30
1766015861.7535732,29
1766015861.7535858,33
1766015861.753598,32
1766015861.753609,31
1766015861.753621,33
1766015861.753632,33
1766015861.7536461,36
1766015861.753657,33
1766015861.753669,28
1766015861.75368,31
1766015861.753692,28
1766015861.7537029,33
1766015861.7537138,32
1766015861.753726,30
1766015861.753737,34
1766015861.753748,31
1766015861.753762,31
1766015861.7537742,29
1766015861.7537851,31
1766015861.753796,31
1766015861.753807,31
1766015861.753819,30
1766015861.75383,29
1766015861.753841,28
1766015861.7538528,29
1766015861.753864,31
1766015861.753875,31
1766015861.753887,29
1766015861.753898,30
1766015861.75391,31
1766015861.753921,29
1766015861.753932,28
1766015861.753945,30
1766015861.753959,32
1766015861.753972,31
1766015861.753983,32
1766015861.753995,31
1766015861.754006,34
1766015861.754017,28
1766015861.754028,30
1766015861.75404,30
1766015861.754051,33
1766015861.7540622,30
1766015861.754074,31
1766015861.754085,29
1766015861.754096,27
1766015861.754108,29
1766015861.754119,29
1766015861.75413,28
1766015861.754142,30
1766015861.754153,32
1766015861.754164,29
1766015861.754176,31
1766015861.754187,29
1766015861.754198,32
1766015861.754209,28
1766015861.754221,30
1766015861.7542322,27
1766015861.7542431,29
1766015861.754254,29
1766015861.754266,30
1766015861.7542772,29
1766015861.7542882,27
1766015861.754299,29
1766015861.7543108,31
1766015861.754325,30
1766015861.754338,26
1766015861.7543502,28
1766015861.7543612,29
1766015861.7543721,28
1766015861.7543838,27
1766015861.7543948,30
1766015861.754406,27
1766015861.754418,26
1766015861.75443,29
1766015861.754442,28
1766015861.754454,25
1766015861.754465,27
1766015861.754476,27
1766015861.754487,29
1766015861.754499,28
1766015861.754511,30
1766015861.7545228,30
1766015861.754534,29
1766015861.754546,28
1766015861.754557,27
1766015861.7545679,27
1766015861.75458,29
1766015861.754591,30
1766015861.754603,27
1766015861.754614,27
1766015861.754625,28
1766015861.7546391,26
1766015861.75465,28
1766015861.754661,28
1766015861.754673,26
1766015861.754684,26
1766015861.754695,27
1766015861.7547112,28
1766015861.754722,27
1766015861.754734,27
1766015861.754745,28
1766015861.7547562,29
1766015861.7547698,25
1766015861.754782,25
1766015861.754793,27
1766015861.754805,24
1766015861.754816,26
1766015861.754827,25
1766015861.754838,24
1766015861.7548501,23
1766015861.754861,27
1766015861.754873,27
1766015861.754884,25
1766015861.7548952,26
1766015861.7549078,29
1766015861.7549188,26
1766015861.754931,26
1766015861.754943,27
1766015861.754954,23
1766015861.754966,28
1766015861.754977,24
1766015861.754988,26
1766015861.754999,26
1766015861.7550101,24
1766015861.755022,21
1766015861.7550342,24
1766015861.7550452,25
1766015861.7550578,24
1766015861.755069,25
1766015861.755082,24
1766015861.755094,24
1766015861.755105,25
1766015861.755117,21
1766015861.7551281,27
1766015861.755139,22
1766015861.75515,26
1766015861.755162,25
1766015861.7551732,24
1766015861.7551832,24
1766015861.755193,27
1766015861.755203,26
1766015861.755213,27
1766015861.755223,26
1766015861.755233,26
1766015861.755243,25
1766015861.755253,25
1766015861.755263,24
1766015861.7552729,25
1766015861.7552829,24
1766015861.755293,23
1766015861.755303,24
1766015861.7553122,25
1766015861.7553222,25
1766015861.755332,27
1766015861.755342,20
1766015861.755352,23
1766015861.755362,24
1766015861.755372,24
1766015861.755382,25
1766015861.755392,23
1766015861.755402,23
1766015861.7554119,25
1766015861.755423,25
1766015861.755434,24
1766015861.7554429,24
1766015861.7554529,24
1766015861.755463,23
1766015861.7554739,24
1766015861.7554839,24
1766015861.7554939,25
1766015861.7555041,23
1766015861.755546,27
1766015861.7555578,28
1766015861.755569,26
1766015861.755579,24
1766015861.755601,26
1766015861.755612,23
1766015861.755622,25
1766015861.7556329,24
1766015861.755643,24
1766015861.7556539,23
1766015861.7556639,25
1766015861.7556741,22
1766015861.7556841,22
1766015861.7556942,25
1766015861.7557042,28
1766015861.755714,25
1766015861.755724,23
1766015861.755734,23
1766015861.755744,25
1766015861.755755,20
1766015861.755765,26
1766015861.755775,23
1766015861.755785,26
1766015861.755795,27
1766015861.755809,25
1766015861.755821,22
1766015861.755831,22
1766015861.755841,27
1766015861.755851,24
1766015861.755861,22
1766015861.755871,22
1766015861.755882,22
1766015861.7558908,25
1766015861.755902,22
1766015861.7559118,26
1766015861.7559218,25
1766015861.755931,24
1766015861.7559419,25
1766015861.7559512,23
1766015861.7559612,23
1766015861.7559721,23
1766015861.7559822,27
1766015861.7559922,24
1766015861.756002,25
1766015861.756014,27
1766015861.7560241,24
1766015861.7560341,22
1766015861.7560441,22
1766015861.756054,25
1766015861.7560651,20
1766015861.756075,23
1766015861.756085,25
1766015861.756096,23
1766015861.756106,24
1766015861.756116,21
1766015861.756126,24
1766015861.756138,23
1766015861.75615,25
1766015861.756161,21
1766015861.756171,25
1766015861.756181,25
1766015861.756192,25
1766015861.756202,23
1766015861.756212,26
1766015861.756222,22
1766015861.756232,25
1766015861.756242,24
1766015861.7562518,24
1766015861.7562618,25
1766015861.756272,23
1766015861.756282,24
1766015861.7562938,26
1766015861.7563038,25
1766015861.756314,20
1766015861.756324,21
1766015861.756335,21
1766015861.756345,21
1766015861.756356,20
1766015861.7563672,24
1766015861.756377,25
1766015861.756387,25
1766015861.756398,22
1766015861.7564092,22
1766015861.7564192,22
1766015861.756431,21
1766015861.756441,23
1766015861.7564511,23
1766015861.7564611,22
1766015861.7564712,23
1766015861.756484,23
1766015861.756495,22
1766015861.756505,21
1766015861.756515,21
1766015861.756525,24
1766015861.7565372,19
1766015861.756547,23
1766015861.7565582,22
1766015861.756568,24
1766015861.756578,24
1766015861.756588,22
1766015861.756598,21
1766015861.756608,22
1766015861.756618,22
1766015861.756629,27
1766015861.756639,24
1766015861.756651,21
1766015861.756661,25
1766015861.756671,21
1766015861.756681,24
1766015861.756691,21
1766015861.756701,20
1766015861.756711,22
1766015861.7567208,22
1766015861.7567308,23
1766015861.756741,21
1766015861.756751,20
1766015861.756761,24
1766015861.756771,20
1766015861.756781,24
1766015861.756791,23
1766015861.7568011,23
1766015861.756813,20
1766015861.7568262,22
1766015861.7568371,25
1766015861.7568462,20
1766015861.756856,24
1766015861.7568672,22
1766015861.756877,26
1766015861.756887,25
1766015861.756897,23
1766015861.756907,21
1766015861.756917,21
1766015861.756927,24
1766015861.756937,23
1766015861.756947,19
1766015861.7569568,23
1766015861.7569668,22
1766015861.7569768,24
1766015861.7569869,21
1766015861.756997,26
1766015861.7570071,24
1766015861.7570171,22
1766015861.7570271,22
1766015861.7570372,24
1766015861.757047,24
1766015861.757057,21
1766015861.757067,23
1766015861.757077,22
1766015861.757087,22
1766015861.757097,26
1766015861.757107,26
1766015861.757119,22
1766015861.75713,23
1766015861.757217,24
1766015861.7572439,26
1766015861.757258,26
1766015861.757272,24
1766015861.757285,19
1766015861.757298,22
1766015861.7573109,23
1766015861.757324,25
1766015861.757337,24
1766015861.75735,22
1766015861.7573628,22
1766015861.757376,22
1766015861.757389,22
1766015861.7574022,24
1766015861.7574148,23
1766015861.757427,24
1766015861.75744,25
1766015861.757453,24
1766015861.757466,25
1766015861.757479,22
1766015861.757492,26
1766015861.757505,22
1766015861.757518,24
1766015861.7575302,23
1766015861.7575428,26
1766015861.757556,24
1766015861.757568,21
1766015861.757581,23
1766015861.757594,24
1766015861.757607,24
1766015861.7576199,24
1766015861.757633,24
1766015861.7576451,23
1766015861.757658,23
1766015861.7576718,24
1766015861.757685,21
1766015861.757697,23
1766015861.75771,25
1766015861.7577229,22
1766015861.757735,24
1766015861.757748,23
1766015861.757761,25
1766015861.7577732,26
1766015861.757786,25
1766015861.757799,25
1766015861.757812,26
1766015861.7578251,24
1766015861.757837,25
1766015861.7578502,24
1766015861.7578628,25
1766015861.757876,25
1766015861.757888,26
1766015861.757901,25
1766015861.757913,26
1766015861.757926,24
1766015861.7579389,24
1766015861.757952,23
1766015861.7579641,24
1766015861.757977,25
1766015861.75799,25
1766015861.758003,26
1766015861.758015,26
1766015861.758028,26
1766015861.7580411,25
1766015861.7580538,23
1766015861.758067,26
1766015861.758079,24
1766015861.758092,24
1766015861.758105,24
1766015861.758118,26
1766015861.7581298,25
1766015861.758143,26
1766015861.758156,25
1766015861.7581692,24
1766015861.758181,25
1766015861.758197,26
1766015861.75821,26
1766015861.758222,27
1766015861.758235,27
1766015861.7582479,25
1766015861.75826,26
1766015861.7582731,27
1766015861.758286,28
1766015861.7582989,28
1766015861.7583108,27
1766015861.758324,26
1766015861.758337,25
1766015861.7583501,25
1766015861.758362,25
1766015861.758375,27
1766015861.758388,26
1766015861.7584,29
1766015861.758413,28
1766015861.7584262,28
1766015861.7584388,28
1766015861.758451,29
1766015861.758464,28
1766015861.758477,26
1766015861.75849,30
1766015861.758502,29
1766015861.758515,30
1766015861.758528,29
1766015861.75854,27
1766015861.758553,28
1766015861.7585652,28
1766015861.7585778,26
1766015861.758591,27
1766015861.758603,26
1766015861.758616,29
1766015861.758629,25
1766015861.758641,30
1766015861.7586539,26
1766015861.758667,28
1766015861.75868,28
1766015861.758694,29
1766015861.7587059,31
1766015861.758719,29
1766015861.758732,27
1766015861.758744,28
1766015861.758757,27
1766015861.7587688,29
1766015861.758782,27
1766015861.758795,25
1766015861.7588081,27
1766015861.75882,29
1766015861.758833,26
1766015861.7588449,27
1766015861.758858,27
1766015861.758871,29
1766015861.7588842,31
1766015861.758896,28
1766015861.758909,29
1766015861.758922,30
1766015861.758934,29
1766015861.7589471,29
1766015861.7589602,27
1766015861.758972,27
1766015861.758985,25
1766015861.758998,28
1766015861.75901,27
1766015861.7590232,28
1766015861.7590358,29
1766015861.759048,29
1766015861.759061,28
1766015861.759074,28
1766015861.759087,28
1766015861.7590988,27
1766015861.759112,27
1766015861.759125,31
1766015861.759137,26
1766015861.75915,28
1766015861.759163,27
1766015861.7591748,27
1766015861.759188,29
1766015861.759201,28
1766015861.759213,29
1766015861.759226,28
1766015861.759239,28
1766015861.7592509,30
1766015861.759264,27
1766015861.759276,28
1766015861.759289,25
1766015861.759302,28
1766015861.759315,29
1766015861.759327,28
1766015861.75934,26
1766015861.7593532,26
1766015861.7593658,28
1766015861.759378,28
1766015861.759391,27
1766015861.759404,29
1766015861.759417,27
1766015861.7594292,27
1766015861.7594419,29
1766015861.759455,28
1766015861.759468,30
1766015861.7594812,29
1766015861.7594938,27
1766015861.759506,28
1766015861.7595189,28
1766015861.759531,27
1766015861.7595441,31
1766015861.759557,31
1766015861.759634,31
1766015861.759655,28
1766015861.7596679,30
1766015861.759735,30
1766015861.759788,31
1766015861.7598011,26
1766015861.759883,29
1766015861.759943,30
1766015861.759958,27
1766015861.7599711,27
1766015861.760046,30
1766015861.7600808,27
1766015861.760115,29
1766015861.7601259,31
1766015861.760154,27
1766015861.7601652,27
1766015861.7601962,30
1766015861.7602088,29
1766015861.760222,28
1766015861.760235,28
1766015861.760247,28
1766015861.76026,29
1766015861.760273,29
1766015861.7602859,31
1766015861.760299,30
1766015861.7603111,27
1766015861.760324,30
1766015861.7603369,33
1766015861.760349,29
1766015861.760362,28
1766015861.760374,29
1766015861.7603872,29
1766015861.7603998,29
1766015861.760413,33
1766015861.7604249,32
1766015861.760438,29
1766015861.76057,29
1766015861.760587,30
1766015861.760601,30
1766015861.760614,29
1766015861.7606258,30
1766015861.760639,28
1766015861.760652,30
1766015861.7606652,30
1766015861.760677,30
1766015861.76069,34
1766015861.760733,31
1766015861.760747,33
1766015861.76076,32
1766015861.7607732,29
1766015861.7607849,30
1766015861.760798,32
1766015861.760813,32
1766015861.760826,32
1766015861.7608378,33
1766015861.760851,27
1766015861.760863,30
1766015861.760889,30
1766015861.760902,28
1766015861.7609138,28
1766015861.761757,30
1766015861.762707,31
1766015861.763755,33
1766015861.764745,30
1766015861.765742,29
1766015861.766735,29
1766015861.76774,31
1766015861.768779,33
1766015861.769768,29
1766015861.770795,30
1766015861.7718499,31
1766015861.7728078,30
1766015861.7737632,33
1766015861.774775,31
1766015861.775767,29
1766015861.776768,33
1766015861.777771,31
1766015861.778751,32
1766015861.779788,31
1766015861.780818,31
1766015861.7818172,29
1766015861.782827,31
1766015861.7838259,34
1766015861.7849011,31
1766015861.7858229,28
1766015861.7868018,29
1766015861.787837,30
1766015861.7888541,31
1766015861.789829,31
1766015861.790802,27
1766015861.791819,31
1766015861.7928078,29
1766015861.793828,31
1766015861.794803,28
1766015861.795819,33
1766015861.796823,32
1766015861.797827,33
1766015861.798838,30
1766015861.7998269,31
1766015861.800857,32
1766015861.8018281,30
1766015861.802887,32
1766015861.8038661,32
1766015861.8048692,31
1766015861.805891,32
1766015861.806891,31
1766015861.8078752,30
1766015861.808929,30
1766015861.80997,29
1766015861.8108869,34
1766015861.81186,29
1766015861.812858,31
1766015861.813865,29
1766015861.814859,27
1766015861.815882,32
1766015861.816875,31
1766015861.8179069,30
1766015861.8188832,31
1766015861.819874,28
1766015861.8208792,27
1766015861.821888,33
1766015861.822947,29
1766015861.823898,32
1766015861.8248892,29
1766015861.825907,31
1766015861.826916,29
1766015861.8279119,29
1766015861.82889,29
1766015861.829896,31
1766015861.8308969,30
1766015861.8319,33
1766015861.832926,32
1766015861.83392,30
1766015861.8349628,27
1766015861.8359098,27
1766015861.8369339,28
1766015861.8379369,30
1766015861.838975,30
1766015861.839948,30
1766015861.8409731,29
1766015861.841975,26
1766015861.842975,28
1766015861.843976,30
1766015861.844983,28
1766015861.846003,30
1766015861.846977,29
1766015861.847994,25
1766015861.848974,29
1766015861.8500228,29
1766015861.8509812,26
1766015861.852007,28
1766015861.8529549,26
1766015861.8539782,28
1766015861.854969,26
1766015861.856014,28
1766015861.8569741,26
1766015861.858102,28
1766015861.8591092,28
1766015861.860115,29
1766015861.861068,27
1766015861.862068,26
1766015861.863102,25
1766015861.864098,27
1766015861.865062,25
1766015861.866101,27
1766015861.867072,27
1766015861.868107,25
1766015861.869066,26
1766015861.870071,23
1766015861.87111,26
1766015861.872113,27
1766015861.8731232,25
1766015861.874063,26
1766015861.875065,27
1766015861.876079,25
1766015861.8771021,24
1766015861.878106,25
1766015861.879106,24
1766015861.880085,25
1766015861.8811011,27
1766015861.882061,27
1766015861.883096,28
1766015861.8841012,24
1766015861.885099,27
1766015861.88606,24
1766015861.887069,26
1766015861.888115,28
1766015861.8891132,25
1766015861.8900769,26
1766015861.891111,27
1766015861.8921301,24
1766015861.8931131,26
1766015861.894075,25
1766015861.895117,24
1766015861.8961332,26
1766015861.897119,23
1766015861.898137,26
1766015861.899093,26
1766015861.90014,28
1766015861.9011478,23
1766015861.902145,25
1766015861.903147,25
1766015861.904162,26
1766015861.905161,28
1766015861.906147,27
1766015861.9071438,28
1766015861.908152,27
1766015861.9091551,27
1766015861.9101639,23
1766015861.911173,25
1766015861.912174,24
1766015861.9131699,27
1766015861.9141738,28
1766015861.9151711,26
1766015861.91618,26
1766015861.917207,23
1766015861.9182,22
1766015861.919203,25
1766015861.9201841,24
1766015861.921185,25
1766015861.9221902,24
1766015861.923195,23
1766015861.9241972,20
1766015861.9252028,25
1766015861.926207,24
1766015861.927207,25
1766015861.928166,23
1766015861.929207,24
1766015861.93023,25
1766015861.931222,24
1766015861.932229,27
1766015861.9332411,25
1766015861.93427,27
1766015861.9351912,27
1766015861.93623,25
1766015861.9372559,24
1766015861.9382331,25
1766015861.939234,25
1766015861.940224,23
1766015861.9412448,26
1766015861.942231,23
1766015861.943239,24
1766015861.9442282,26
1766015861.945239,28
1766015861.946288,24
1766015861.947281,26
1766015861.948287,26
1766015861.949285,25
1766015861.9502778,26
1766015861.951274,18
1766015861.952291,24
1766015861.953299,26
1766015861.9543,24
1766015861.9552991,23
1766015861.95631,25
1766015861.9573162,21
1766015861.958289,27
1766015861.959316,25
1766015861.960327,23
1766015861.9612951,22
1766015861.9623091,23
1766015861.963319,21
1766015861.964313,25
1766015861.965323,22
1766015861.96633,23
1766015861.967354,25
1766015861.968354,25
1766015861.969346,26
1766015861.970363,22
1766015861.97135,22
1766015861.9723551,23
1766015861.973375,24
1766015861.974346,23
1766015861.975369,25
1766015861.976366,23
1766015861.97737,24
1766015861.978364,25
1766015861.9793642,22
1766015861.980373,25
1766015861.981375,21
1766015861.982361,22
1766015861.983367,24
1766015861.984395,23
1766015861.985377,22
1766015861.986421,21
1766015861.987408,24
1766015861.988381,20
1766015861.989381,21
1766015861.990394,25
1766015861.991403,24
1766015861.992408,24
1766015861.9934149,24
1766015861.99441,23
1766015861.995417,24
1766015861.996396,20
1766015861.997419,20
1766015861.99839,24
1766015861.9993951,21
1766015862.00042,24
1766015862.001419,23
1766015862.002422,24
1766015862.003423,25
1766015862.0044422,24
1766015862.0054379,25
1766015862.006448,25
1766015862.007454,21
1766015862.0084531,24
1766015862.009452,22
1766015862.010462,25
1766015862.011488,23
1766015862.012457,23
1766015862.0134861,22
1766015862.014496,24
1766015862.015487,22
1766015862.0164852,22
1766015862.017484,21
1766015862.018477,23
1766015862.0194838,22
1766015862.02049,24
1766015862.021514,22
1766015862.022507,25
1766015862.023487,22
1766015862.02448,22
1766015862.0254982,25
1766015862.026498,24
1766015862.027499,24
1766015862.0284932,22
1766015862.029506,25
1766015862.030529,20
1766015862.031542,24
1766015862.032533,24
1766015862.0335329,25
1766015862.0345201,20
1766015862.035542,25
1766015862.036531,24
1766015862.0375319,23
1766015862.038555,23
1766015862.039547,25
1766015862.040566,25
1766015862.0415711,23
1766015862.0425851,23
1766015862.043566,21
1766015862.044575,22
1766015862.045598,22
1766015862.0465732,20
1766015862.047573,22
1766015862.048574,22
1766015862.04958,23
1766015862.050554,24
1766015862.051564,23
1766015862.05257,20
1766015862.053581,22
1766015862.054569,23
1766015862.0555751,23
1766015862.056579,22
1766015862.057575,26
1766015862.0585768,25
1766015862.059593,23
1766015862.0606148,22
1766015862.061595,26
1766015862.062625,24
1766015862.0636349,25
1766015862.064615,23
1766015862.0656168,21
1766015862.066615,25
1766015862.067607,24
1766015862.068615,21
1766015862.069642,26
1766015862.0706172,27
1766015862.071619,22
1766015862.072623,24
1766015862.0736299,27
1766015862.074642,26
1766015862.075638,23
1766015862.0766468,23
1766015862.077653,26
1766015862.078648,23
1766015862.0796402,20
1766015862.080647,24
1766015862.081663,23
1766015862.082674,24
1766015862.0836742,25
1766015862.084681,23
1766015862.085686,24
1766015862.086689,23
1766015862.087687,24
1766015862.0886898,25
1766015862.089679,27
1766015862.0906801,21
1766015862.091682,26
1766015862.092692,27
1766015862.093725,25
1766015862.094701,28
1766015862.0957282,26
1766015862.096731,27
1766015862.0977259,26
1766015862.098716,28
1766015862.0997329,29
1766015862.100699,26
1766015862.101727,25
1766015862.1027288,26
1766015862.103727,26
1766015862.1047301,25
1766015862.1057448,28
1766015862.1067462,24
1766015862.1077602,27
1766015862.1087391,25
1766015862.10974,28
1766015862.110729,26
1766015862.1117382,30
1766015862.112753,28
1766015862.113754,29
1766015862.114774,28
1766015862.115781,30
1766015862.116765,30
1766015862.117769,29
1766015862.1187599,28
1766015862.1197708,27
1766015862.1207821,28
1766015862.1217878,29
1766015862.122761,30
1766015862.123776,31
1766015862.124772,30
1766015862.1257842,31
1766015862.1267772,28
1766015862.127798,29
1766015862.128795,31
1766015862.129795,30
1766015862.1307929,30
1766015862.131795,30
1766015862.1328151,33
1766015862.1338172,33
1766015862.1348228,31
1766015862.135828,32
1766015862.136839,32
1766015862.1378188,33
1766015862.138848,36
1766015862.139851,35
1766015862.1408691,34
1766015862.1418781,33
1766015862.142878,35
1766015862.143869,36
1766015862.144892,36
1766015862.145876,36
1766015862.146869,33
1766015862.1478772,36
1766015862.148864,33
1766015862.1498659,35
1766015862.150858,36
1766015862.151871,33
1766015862.152867,38
1766015862.1538692,36
1766015862.1548648,35
1766015862.155877,37
1766015862.156872,39
1766015862.157866,38
1766015862.158876,36
1766015862.159894,36
1766015862.1609101,37
1766015862.161898,38
1766015862.1628978,36
1766015862.163886,36
1766015862.164906,37
1766015862.1659021,36
1766015862.166922,37
1766015862.1679208,36
1766015862.1689038,40
1766015862.169926,39
1766015862.170916,43
1766015862.171925,44
1766015862.1729221,44
1766015862.1739268,42
1766015862.174925,44
1766015862.175943,45
1766015862.176932,45
1766015862.1779358,47
1766015862.1789382,47
1766015862.1799822,48
1766015862.180968,44
1766015862.181962,45
1766015862.182959,45
1766015862.183969,46
1766015862.1849658,46
1766015862.185955,45
1766015862.186964,48
1766015862.187986,46
1766015862.188968,46
1766015862.189966,47
1766015862.1909602,47
1766015862.1919591,43
1766015862.192962,46
1766015862.193995,46
1766015862.1949928,47
1766015862.196007,48
1766015862.197006,43
1766015862.198007,43
1766015862.199022,43
1766015862.200008,41
1766015862.2010071,44
1766015862.202025,42
1766015862.203011,48
1766015862.204015,46
1766015862.2051032,47
1766015862.2061079,45
1766015862.207107,44
1766015862.2081149,49
1766015862.2091122,48
1766015862.2101068,51
1766015862.2110982,51
1766015862.212103,49
1766015862.213098,51
1766015862.214099,49
1766015862.2150972,48
1766015862.2161012,49
1766015862.217099,48
1766015862.218094,50
1766015862.2190971,46
1766015862.220097,49
1766015862.2211058,49
1766015862.2221088,51
1766015862.2231019,49
1766015862.224101,48
1766015862.225106,49
1766015862.2260978,49
1766015862.227097,49
1766015862.228097,50
1766015862.229098,47
1766015862.230108,46
1766015862.231095,50
1766015862.232099,51
1766015862.23311,55
1766015862.234113,53
1766015862.235115,52
1766015862.236104,53
1766015862.2371142,52
1766015862.238116,53
1766015862.239128,52
1766015862.2401438,54
1766015862.241164,54
1766015862.242164,56
1766015862.243144,54
1766015862.244138,54
1766015862.2451499,56
1766015862.246144,57
1766015862.2471418,54
1766015862.248159,53
1766015862.249155,56
1766015862.250157,56
1766015862.2511659,54
1766015862.252168,55
1766015862.253182,54
1766015862.254157,53
1766015862.255179,52
1766015862.2561688,53
1766015862.2571661,55
1766015862.258187,53
1766015862.259197,54
1766015862.260205,55
1766015862.2611918,56
1766015862.2622058,56
1766015862.263211,55
1766015862.264205,54
1766015862.2652018,55
1766015862.266221,54
1766015862.2672188,53
1766015862.268225,53
1766015862.269231,55
1766015862.270232,54
1766015862.2712371,55
1766015862.27223,59
1766015862.2732291,57
1766015862.274241,59
1766015862.27524,60
1766015862.276244,62
1766015862.2772439,57
1766015862.27824,56
1766015862.2792408,59
1766015862.2802508,57
1766015862.281256,55
1766015862.282261,55
1766015862.283256,55
1766015862.2842638,55
1766015862.285274,54
1766015862.2862542,56
1766015862.2872581,55
1766015862.28827,55
1766015862.2892969,57
1766015862.290293,54
1766015862.2912781,57
1766015862.292296,58
1766015862.2932968,58
1766015862.294293,54
1766015862.29529,58
1766015862.296289,60
1766015862.297289,59
1766015862.298291,58
1766015862.299293,60
1766015862.300315,58
1766015862.301336,58
1766015862.302306,59
1766015862.303305,56
1766015862.304335,55
1766015862.3053172,56
1766015862.306317,53
1766015862.307363,58
1766015862.308335,53
1766015862.3093498,55
1766015862.31037,56
1766015862.3113532,54
1766015862.312355,52
1766015862.313354,57
1766015862.314351,57
1766015862.315354,56
1766015862.31635,57
1766015862.317376,54
1766015862.3183749,54
1766015862.3193579,52
1766015862.320365,56
1766015862.321394,52
1766015862.32238,57
1766015862.323391,55
1766015862.3243809,55
1766015862.325407,54
1766015862.3263848,54
1766015862.3273869,52
1766015862.328395,53
1766015862.329391,54
1766015862.330411,54
1766015862.331407,55
1766015862.33241,55
1766015862.33342,59
1766015862.334435,56
1766015862.335435,56
1766015862.336443,58
1766015862.337444,58
1766015862.338449,61
1766015862.339466,58
1766015862.3404648,59
1766015862.341438,57
1766015862.342439,60
1766015862.3434188,58
1766015862.34444,55
1766015862.3454561,58
1766015862.3464499,61
1766015862.347471,62
1766015862.3484852,66
1766015862.3494668,64
1766015862.350465,66
1766015862.3514738,64
1766015862.3524659,66
1766015862.353488,65
1766015862.354489,67
1766015862.355495,64
1766015862.356502,62
1766015862.357502,61
1766015862.358492,64
1766015862.359485,63
1766015862.360481,63
1766015862.361513,61
1766015862.362485,63
1766015862.3635259,60
1766015862.364497,62
1766015862.365506,63
1766015862.366509,62
1766015862.367538,66
1766015862.368514,64
1766015862.3695529,64
1766015862.3705359,63
1766015862.3715389,63
1766015862.37254,61
1766015862.373552,63
1766015862.3745332,63
1766015862.375534,64
1766015862.376512,64
1766015862.377523,63
1766015862.3785129,62
1766015862.379523,66
1766015862.3805408,68
1766015862.381533,66
1766015862.3825438,64
1766015862.3835468,63
1766015862.384525,63
1766015862.385539,66
1766015862.386548,63
1766015862.387554,64
1766015862.388566,63
1766015862.389568,62
1766015862.390562,64
1766015862.391577,64
1766015862.3925812,63
1766015862.393609,63
1766015862.394618,64
1766015862.395603,61
1766015862.3966,61
1766015862.3976152,62
1766015862.398579,59
1766015862.399586,59
1766015862.400588,59
1766015862.401593,57
1766015862.402594,56
1766015862.4035861,61
1766015862.404598,55
1766015862.405586,60
1766015862.406615,53
1766015862.407616,59
1766015862.408622,57
1766015862.4096231,56
1766015862.410621,55
1766015862.4116201,55
1766015862.412627,54
1766015862.4136472,53
1766015862.414698,52
1766015862.415692,52
1766015862.4166908,53
1766015862.417676,56
1766015862.418677,57
1766015862.419702,57
1766015862.420685,57
1766015862.421674,53
1766015862.4228292,57
1766015862.42368,54
1766015862.4246788,54
1766015862.4256792,59
1766015862.426697,60
1766015862.4277089,61
1766015862.4286988,59
1766015862.429714,58
1766015862.430738,58
1766015862.4317372,59
1766015862.432715,57
1766015862.4337192,59
1766015862.434738,59
1766015862.4357278,59
1766015862.436727,57
1766015862.4377239,55
1766015862.4387279,58
1766015862.43974,57
1766015862.440732,57
1766015862.4417431,56
1766015862.4427352,56
1766015862.443736,55
1766015862.444761,54
1766015862.445747,57
1766015862.446773,55
1766015862.447756,55
1766015862.448761,57
1766015862.4497669,55
1766015862.450756,55
1766015862.451757,52
1766015862.452778,56
1766015862.453784,52
1766015862.454792,56
1766015862.455776,51
1766015862.456785,55
1766015862.457791,51
1766015862.458795,52
1766015862.4597929,52
1766015862.460781,53
1766015862.4617999,48
1766015862.462805,52
1766015862.463825,53
1766015862.464826,51
1766015862.4658198,49
1766015862.466828,52
1766015862.467833,50
1766015862.468833,51
1766015862.469831,52
1766015862.470834,49
1766015862.471833,48
1766015862.472846,52
1766015862.4738429,51
1766015862.474847,51
1766015862.475851,52
1766015862.476852,54
1766015862.477879,55
1766015862.4788768,55
1766015862.479872,52
1766015862.480862,55
1766015862.481858,54
1766015862.482868,54
1766015862.483883,53
1766015862.4848819,56
1766015862.485878,55
1766015862.486876,53
1766015862.487863,55
1766015862.4889002,54
1766015862.4898849,55
1766015862.4909031,54
1766015862.491885,57
1766015862.4928992,55
1766015862.493899,54
1766015862.49491,55
1766015862.495906,54
1766015862.4969091,56
1766015862.497919,57
1766015862.4989052,54
1766015862.499905,54
1766015862.500909,52
1766015862.501917,50
1766015862.502934,53
1766015862.5039291,55
1766015862.504933,52
1766015862.5059369,52
1766015862.506944,52
1766015862.507946,52
1766015862.508943,53
1766015862.509952,54
1766015862.5109582,54
1766015862.511967,55
1766015862.512974,57
1766015862.5139542,53
1766015862.5149598,54
1766015862.515965,56
1766015862.516969,53
1766015862.5179808,55
1766015862.5190132,54
1766015862.519976,54
1766015862.520978,54
1766015862.521986,51
1766015862.52301,48
1766015862.523992,52
1766015862.524982,51
1766015862.526004,48
1766015862.527005,53
1766015862.528029,50
1766015862.529012,50
1766015862.530015,47
1766015862.531018,47
1766015862.5321019,48
1766015862.53302,52
1766015862.534016,49
1766015862.53511,48
1766015862.536031,52
1766015862.537109,52
1766015862.538048,50
1766015862.5391018,53
1766015862.540101,51
1766015862.541117,49
1766015862.542103,52
1766015862.543108,52
1766015862.544103,48
1766015862.5451121,47
1766015862.546116,49
1766015862.54712,53
1766015862.5481129,52
1766015862.54911,48
1766015862.550121,48
1766015862.551115,48
1766015862.552109,49
1766015862.553102,46
1766015862.554104,45
1766015862.5551062,47
1766015862.556096,45
1766015862.557117,48
1766015862.558114,47
1766015862.559108,48
1766015862.560113,46
1766015862.5611362,47
1766015862.5621278,47
1766015862.563122,43
1766015862.56412,41
1766015862.565113,43
1766015862.56613,45
1766015862.567123,46
1766015862.568115,43
1766015862.5691211,43
1766015862.5701199,42
1766015862.571115,46
1766015862.572117,47
1766015862.573098,48
1766015862.574107,47
1766015862.5751219,47
1766015862.576124,48
1766015862.5771258,48
1766015862.578135,48
1766015862.579144,49
1766015862.580129,50
1766015862.5811331,48
1766015862.582137,49
1766015862.5831418,50
1766015862.584147,47
1766015862.58515,46
1766015862.58614,49
1766015862.587203,47
1766015862.5881898,48
1766015862.58917,48
1766015862.590175,49
1766015862.591188,47
1766015862.5921862,45
1766015862.593201,45
1766015862.594165,47
1766015862.5951629,46
1766015862.5961971,44
1766015862.5972018,45
1766015862.598197,46
1766015862.599212,44
1766015862.600223,45
1766015862.601208,46
1766015862.602219,45
1766015862.603209,42
1766015862.604223,41
1766015862.605203,45
1766015862.606199,48
1766015862.607222,42
1766015862.608223,42
1766015862.609239,45
1766015862.610239,43
1766015862.6112409,42
1766015862.612244,43
1766015862.61326,43
1766015862.614253,44
1766015862.615241,43
1766015862.616249,41
1766015862.617248,43
1766015862.6182559,42
1766015862.6192691,44
1766015862.6202712,42
1766015862.62126,42
1766015862.622283,40
1766015862.623281,40
1766015862.6242812,40
1766015862.625281,40
1766015862.626281,41
1766015862.627278,41
1766015862.6282828,36
1766015862.6292968,38
1766015862.6303208,41
1766015862.6312902,40
1766015862.6322932,41
1766015862.633319,42
1766015862.634302,43
1766015862.635308,39
1766015862.6363132,40
1766015862.637305,41
1766015862.6383119,43
1766015862.639307,40
1766015862.6403031,40
1766015862.641335,39
1766015862.642338,40
1766015862.643351,43
1766015862.6443279,38
1766015862.6453602,43
1766015862.6463392,38
1766015862.6473558,42
1766015862.6483479,42
1766015862.64936,42
1766015862.650362,40
1766015862.651365,41
1766015862.652386,40
1766015862.653381,42
1766015862.654361,45
1766015862.655381,42
1766015862.6563609,45
1766015862.657376,43
1766015862.658387,42
1766015862.659391,40
1766015862.660392,44
1766015862.661382,42
1766015862.66238,41
1766015862.663392,40
1766015862.6643898,43
1766015862.665399,43
1766015862.6664152,42
1766015862.6674051,38
1766015862.668405,40
1766015862.669417,43
1766015862.6704152,41
1766015862.671403,40
1766015862.672404,37
1766015862.673404,37
1766015862.674408,37
1766015862.675412,41
1766015862.676424,40
1766015862.6774242,37
1766015862.678435,41
1766015862.6794329,42
1766015862.680439,40
1766015862.681453,41
1766015862.682446,40
1766015862.683469,42
1766015862.684457,38
1766015862.6854541,39
1766015862.686442,42
1766015862.687456,40
1766015862.688454,38
1766015862.6894798,41
1766015862.690468,41
1766015862.691474,39
1766015862.6924648,40
1766015862.693461,38
1766015862.694468,38
1766015862.695483,39
1766015862.696474,38
1766015862.697484,39
1766015862.698486,40
1766015862.699497,38
1766015862.700502,36
1766015862.7014961,43
1766015862.702503,40
1766015862.703497,38
1766015862.7044961,39
1766015862.705496,40
1766015862.706507,41
1766015862.707514,40
1766015862.70852,39
1766015862.7095182,39
1766015862.7105138,39
1766015862.711516,40
1766015862.712512,37
1766015862.713523,37
1766015862.714528,40
1766015862.71553,40
1766015862.716545,38
1766015862.717549,39
1766015862.7185369,40
1766015862.719567,39
1766015862.720562,39
1766015862.721559,41
1766015862.722535,38
1766015862.7235389,39
1766015862.724535,40
1766015862.725535,37
1766015862.726547,37
1766015862.727551,39
1766015862.728579,37
1766015862.729536,35
1766015862.730572,37
1766015862.7315469,38
1766015862.732617,40
1766015862.73357,40
1766015862.734587,41
1766015862.73557,45
1766015862.736607,41
1766015862.737613,41
1766015862.738611,42
1766015862.739611,41
1766015862.740611,42
1766015862.741618,39
