timestamp,emg_value
1766015878.8768158,53
1766015878.876833,51
1766015878.876846,52
1766015878.876857,52
1766015878.8768692,53
1766015878.876881,51
1766015878.8768919,53
1766015878.8769028,53
1766015878.876915,50
1766015878.876926,53
1766015878.8769379,51
1766015878.87695,52
1766015878.876961,49
1766015878.8769732,50
1766015878.8769841,52
1766015878.876995,51
1766015878.877007,52
1766015878.8770182,51
1766015878.8770292,46
1766015878.8770401,53
1766015878.8770518,49
1766015878.8770628,48
1766015878.877074,49
1766015878.877085,47
1766015878.877096,49
1766015878.8771079,46
1766015878.877119,47
1766015878.87713,47
1766015878.877142,49
1766015878.877154,48
1766015878.8771682,49
1766015878.877179,43
1766015878.877197,47
1766015878.8772109,49
1766015878.8772218,45
1766015878.877242,44
1766015878.877255,46
1766015878.877268,49
1766015878.877281,49
1766015878.877293,49
1766015878.877307,45
1766015878.8773189,48
1766015878.8773298,48
1766015878.877341,49
1766015878.877352,50
1766015878.877366,50
1766015878.877377,49
1766015878.877388,48
1766015878.877399,47
1766015878.8774111,49
1766015878.877422,46
1766015878.877433,44
1766015878.877444,46
1766015878.877456,47
1766015878.877467,46
1766015878.877478,46
1766015878.8774889,46
1766015878.8774998,43
1766015878.877512,44
1766015878.877523,42
1766015878.877534,44
1766015878.8775449,45
1766015878.877556,43
1766015878.877567,45
1766015878.87758,43
1766015878.8776052,44
1766015878.8776162,45
1766015878.8776278,46
1766015878.8776388,44
1766015878.877652,47
1766015878.877665,46
1766015878.877677,45
1766015878.8776882,47
1766015878.8776991,43
1766015878.877711,47
1766015878.877722,46
1766015878.8777332,46
1766015878.8777459,46
1766015878.877758,44
1766015878.877769,41
1766015878.87778,43
1766015878.877791,41
1766015878.877802,44
1766015878.877813,43
1766015878.877824,42
1766015878.877835,42
1766015878.877846,44
1766015878.877857,43
1766015878.8778691,44
1766015878.87788,46
1766015878.8778932,42
1766015878.8779058,45
1766015878.8779168,43
1766015878.877929,41
1766015878.877942,42
1766015878.877954,40
1766015878.8779662,43
1766015878.8779788,41
1766015878.8779898,42
1766015878.878002,42
1766015878.878013,41
1766015878.878025,39
1766015878.878036,42
1766015878.878047,39
1766015878.878058,40
1766015878.878068,40
1766015878.878078,40
1766015878.878088,42
1766015878.878098,38
1766015878.878127,38
1766015878.878138,38
1766015878.8781471,36
1766015878.878158,40
1766015878.878168,38
1766015878.8781781,38
1766015878.8781881,40
1766015878.878198,39
1766015878.878207,40
1766015878.878219,36
1766015878.87823,37
1766015878.87824,38
1766015878.87825,38
1766015878.87826,36
1766015878.87827,38
1766015878.878279,38
1766015878.878289,40
1766015878.878299,34
1766015878.878309,36
1766015878.8783202,38
1766015878.8783329,39
1766015878.878345,39
1766015878.878355,40
1766015878.878365,37
1766015878.8783748,35
1766015878.8783848,38
1766015878.8783948,38
1766015878.878405,42
1766015878.878415,40
1766015878.8784251,37
1766015878.8784351,39
1766015878.8784451,39
1766015878.878454,40
1766015878.878464,39
1766015878.878474,36
1766015878.878484,37
1766015878.878494,41
1766015878.878504,37
1766015878.8785138,42
1766015878.8785238,43
1766015878.8785338,41
1766015878.8785439,41
1766015878.878554,43
1766015878.8785641,43
1766015878.8785741,42
1766015878.8785841,41
1766015878.878595,40
1766015878.8786051,42
1766015878.8786151,41
1766015878.878625,44
1766015878.878635,42
1766015878.878645,44
1766015878.878655,42
1766015878.878668,39
1766015878.87868,41
1766015878.87869,40
1766015878.8787,40
1766015878.87871,40
1766015878.87872,42
1766015878.87873,43
1766015878.87874,43
1766015878.8787498,45
1766015878.8787599,45
1766015878.878769,48
1766015878.87878,44
1766015878.87879,41
1766015878.8788,44
1766015878.8788102,47
1766015878.8788202,46
1766015878.878829,45
1766015878.878839,43
1766015878.878849,43
1766015878.878859,45
1766015878.878869,45
1766015878.878879,43
1766015878.8788888,42
1766015878.8788989,43
1766015878.8789089,41
1766015878.878918,44
1766015878.878928,42
1766015878.8789382,39
1766015878.8789482,42
1766015878.878958,45
1766015878.878968,42
1766015878.878978,42
1766015878.878989,45
1766015878.879002,46
1766015878.8790138,46
1766015878.879024,45
1766015878.879033,43
1766015878.879043,45
1766015878.879053,45
1766015878.8790631,45
1766015878.8790731,47
1766015878.879083,43
1766015878.879093,45
1766015878.879103,45
1766015878.879113,45
1766015878.879124,43
1766015878.879133,44
1766015878.879143,43
1766015878.879153,44
1766015878.8791628,43
1766015878.879173,45
1766015878.879183,45
1766015878.879193,43
1766015878.879203,43
1766015878.879213,43
1766015878.879223,44
1766015878.879234,43
1766015878.879246,41
1766015878.8792572,42
1766015878.879267,43
1766015878.879277,41
1766015878.879287,40
1766015878.879297,41
1766015878.879307,41
1766015878.879317,43
1766015878.879329,39
1766015878.8793411,36
1766015878.879352,40
1766015878.879362,37
1766015878.879373,41
1766015878.879383,41
1766015878.879393,40
1766015878.879403,43
1766015878.879413,39
1766015878.879423,42
1766015878.879432,42
1766015878.879442,44
1766015878.879452,42
1766015878.879463,48
1766015878.879474,44
1766015878.879484,45
1766015878.879495,42
1766015878.879505,43
1766015878.879516,43
1766015878.879528,43
1766015878.879539,42
1766015878.879549,44
1766015878.8795578,41
1766015878.8795679,40
1766015878.879578,42
1766015878.8795881,40
1766015878.8795981,42
1766015878.8796082,41
1766015878.879618,41
1766015878.879627,39
1766015878.879646,41
1766015878.8796558,39
1766015878.8796659,43
1766015878.879679,39
1766015878.8796911,41
1766015878.879702,39
1766015878.879712,40
1766015878.8797219,38
1766015878.879732,40
1766015878.879742,39
1766015878.879752,38
1766015878.879762,38
1766015878.879773,38
1766015878.879783,40
1766015878.879793,37
1766015878.879803,37
1766015878.8798132,41
1766015878.8798232,37
1766015878.879833,36
1766015878.879843,39
1766015878.879853,34
1766015878.879863,34
1766015878.879885,36
1766015878.879895,34
1766015878.879905,37
1766015878.879915,38
1766015878.879925,36
1766015878.8799338,34
1766015878.8799438,33
1766015878.8799539,34
1766015878.8799648,36
1766015878.879977,36
1766015878.880067,37
1766015878.880085,34
1766015878.880098,31
1766015878.880115,35
1766015878.880128,35
1766015878.880141,34
1766015878.8801541,35
1766015878.880167,31
1766015878.88018,34
1766015878.880193,36
1766015878.880206,29
1766015878.880219,33
1766015878.880231,34
1766015878.880244,28
1766015878.880256,35
1766015878.880269,32
1766015878.8802822,33
1766015878.8802948,32
1766015878.880307,33
1766015878.88032,31
1766015878.880338,34
1766015878.880351,32
1766015878.880364,26
1766015878.880379,32
1766015878.880391,29
1766015878.880404,31
1766015878.880416,29
1766015878.880429,34
1766015878.8804412,28
1766015878.8804538,31
1766015878.880467,30
1766015878.88048,28
1766015878.8804932,30
1766015878.880515,30
1766015878.880528,29
1766015878.88054,31
1766015878.880557,28
1766015878.8805702,30
1766015878.8805828,30
1766015878.880596,29
1766015878.880609,29
1766015878.8806221,29
1766015878.880634,28
1766015878.880647,30
1766015878.8806632,30
1766015878.880676,25
1766015878.8806882,29
1766015878.8807008,30
1766015878.880714,27
1766015878.880727,29
1766015878.8807402,26
1766015878.880752,26
1766015878.880765,28
1766015878.880778,32
1766015878.88079,26
1766015878.880803,28
1766015878.8808162,29
1766015878.880828,26
1766015878.880841,27
1766015878.8808541,28
1766015878.880867,27
1766015878.8808792,26
1766015878.8808918,29
1766015878.880908,29
1766015878.8809211,27
1766015878.880934,28
1766015878.880946,23
1766015878.880959,26
1766015878.8809779,25
1766015878.8809931,26
1766015878.881006,26
1766015878.8810189,28
1766015878.8810308,26
1766015878.881044,25
1766015878.881057,26
1766015878.8810701,27
1766015878.881082,27
1766015878.881095,27
1766015878.881108,25
1766015878.88112,26
1766015878.881133,27
1766015878.881145,27
1766015878.8811579,22
1766015878.881171,23
1766015878.881183,28
1766015878.881196,23
1766015878.8812091,22
1766015878.881233,26
1766015878.881245,24
1766015878.881258,26
1766015878.8812711,25
1766015878.881283,27
1766015878.881296,25
1766015878.881309,23
1766015878.881322,22
1766015878.881334,25
1766015878.8813472,21
1766015878.8813598,26
1766015878.881372,22
1766015878.8813848,23
1766015878.881398,28
1766015878.881417,27
1766015878.881432,25
1766015878.8814452,25
1766015878.8814569,26
1766015878.88147,25
1766015878.881483,24
1766015878.881495,25
1766015878.881508,28
1766015878.88152,23
1766015878.881533,25
1766015878.881545,27
1766015878.881558,26
1766015878.881571,22
1766015878.8815842,25
1766015878.881597,22
1766015878.881609,25
1766015878.881622,22
1766015878.8816352,24
1766015878.881648,26
1766015878.881661,24
1766015878.881674,25
1766015878.881687,24
1766015878.8817,26
1766015878.8817122,23
1766015878.8817248,26
1766015878.881738,24
1766015878.881751,23
1766015878.881763,25
1766015878.881776,27
1766015878.881789,25
1766015878.881802,24
1766015878.881814,24
1766015878.881827,24
1766015878.881846,25
1766015878.8818612,23
1766015878.8818738,24
1766015878.881886,22
1766015878.881899,23
1766015878.881912,23
1766015878.881925,23
1766015878.881938,26
1766015878.881951,25
1766015878.881964,24
1766015878.881977,23
1766015878.88199,27
1766015878.8820019,23
1766015878.882015,24
1766015878.882028,24
1766015878.88204,22
1766015878.8820531,24
1766015878.8820648,23
1766015878.882078,23
1766015878.882091,22
1766015878.8821042,25
1766015878.882117,22
1766015878.882129,21
1766015878.882142,25
1766015878.882155,23
1766015878.8821702,21
1766015878.8821828,22
1766015878.882196,24
1766015878.882209,24
1766015878.882221,21
1766015878.882234,20
1766015878.882257,24
1766015878.882269,20
1766015878.882331,23
1766015878.882366,26
1766015878.88238,24
1766015878.882394,25
1766015878.882407,25
1766015878.88242,26
1766015878.882433,22
1766015878.882446,24
1766015878.882459,22
1766015878.882472,20
1766015878.882485,22
1766015878.882498,21
1766015878.8825111,22
1766015878.882524,22
1766015878.882537,23
1766015878.88255,22
1766015878.8825622,22
1766015878.882575,23
1766015878.882588,26
1766015878.882601,23
1766015878.882614,22
1766015878.882627,22
1766015878.88264,20
1766015878.882653,24
1766015878.8826659,22
1766015878.882679,25
1766015878.882692,24
1766015878.8827038,22
1766015878.882717,24
1766015878.88273,20
1766015878.8827431,22
1766015878.882756,21
1766015878.8827689,20
1766015878.882786,22
1766015878.8828,23
1766015878.882813,23
1766015878.882826,25
1766015878.882839,23
1766015878.882852,21
1766015878.8828642,20
1766015878.8828769,21
1766015878.88289,25
1766015878.882903,21
1766015878.882915,22
1766015878.8829281,25
1766015878.882941,24
1766015878.882954,22
1766015878.882967,20
1766015878.88298,21
1766015878.882993,18
1766015878.883005,22
1766015878.883018,22
1766015878.8830311,23
1766015878.883043,23
1766015878.8830562,21
1766015878.883069,24
1766015878.883082,24
1766015878.883094,21
1766015878.8831072,22
1766015878.88312,23
1766015878.883132,20
1766015878.8831449,21
1766015878.883158,24
1766015878.8831701,21
1766015878.883183,22
1766015878.8831968,26
1766015878.883213,25
1766015878.8832262,22
1766015878.883239,22
1766015878.883252,23
1766015878.883265,26
1766015878.8832781,20
1766015878.8832908,24
1766015878.8833039,25
1766015878.883317,22
1766015878.88333,22
1766015878.8833432,22
1766015878.8833559,20
1766015878.883369,25
1766015878.883381,26
1766015878.883394,21
1766015878.883407,25
1766015878.88342,23
1766015878.8834329,22
1766015878.88349,21
1766015878.8835049,19
1766015878.883518,23
1766015878.883531,22
1766015878.883544,23
1766015878.883557,19
1766015878.883569,24
1766015878.8835819,22
1766015878.883595,22
1766015878.883608,24
1766015878.88362,22
1766015878.883633,24
1766015878.883646,25
1766015878.8836591,22
1766015878.8836749,23
1766015878.883689,23
1766015878.883702,23
1766015878.883714,22
1766015878.883727,24
1766015878.883739,25
1766015878.8837519,21
1766015878.883765,28
1766015878.8837771,27
1766015878.88379,25
1766015878.8838022,23
1766015878.8838148,23
1766015878.883828,25
1766015878.88384,26
1766015878.883853,22
1766015878.883865,24
1766015878.883878,23
1766015878.88389,27
1766015878.883903,25
1766015878.8839161,25
1766015878.883928,25
1766015878.8839412,27
1766015878.8839521,28
1766015878.8839622,23
1766015878.8839731,28
1766015878.8839839,28
1766015878.8839948,27
1766015878.884005,30
1766015878.884016,24
1766015878.8840268,27
1766015878.884037,23
1766015878.884048,27
1766015878.884058,26
1766015878.884076,26
1766015878.884087,25
1766015878.884098,25
1766015878.884108,27
1766015878.884118,23
1766015878.884129,26
1766015878.88414,23
1766015878.884151,25
1766015878.884161,29
1766015878.884172,27
1766015878.884182,30
1766015878.884193,28
1766015878.8842041,27
1766015878.884214,25
1766015878.884235,27
1766015878.884245,23
1766015878.884256,28
1766015878.884266,29
1766015878.884277,27
1766015878.884288,25
1766015878.884298,27
1766015878.884309,30
1766015878.884319,27
1766015878.88433,26
1766015878.884341,28
1766015878.884351,28
1766015878.884362,29
1766015878.884372,28
1766015878.884383,28
1766015878.884393,28
1766015878.884404,29
1766015878.884415,29
1766015878.884425,28
1766015878.884442,27
1766015878.884455,30
1766015878.884465,26
1766015878.884476,23
1766015878.884486,28
1766015878.884496,27
1766015878.884507,26
1766015878.8845172,30
1766015878.8845272,24
1766015878.8845382,27
1766015878.8845482,26
1766015878.8845592,27
1766015878.8845692,28
1766015878.8845801,26
1766015878.8845901,28
1766015878.884601,25
1766015878.8846111,27
1766015878.884622,29
1766015878.884632,27
1766015878.884643,27
1766015878.884653,29
1766015878.884664,28
1766015878.884674,27
1766015878.884685,24
1766015878.884695,26
1766015878.884706,29
1766015878.884717,28
1766015878.884728,23
1766015878.8847392,26
1766015878.8847492,28
1766015878.8847601,27
1766015878.8847702,27
1766015878.8847811,27
1766015878.884795,28
1766015878.8848069,26
1766015878.884817,27
1766015878.8848279,26
1766015878.8848379,26
1766015878.8848488,24
1766015878.8848588,25
1766015878.8848698,26
1766015878.8848798,27
1766015878.8848908,28
1766015878.884902,25
1766015878.884913,28
1766015878.884923,28
1766015878.884934,25
1766015878.884945,27
1766015878.884956,27
1766015878.8849669,29
1766015878.8849778,25
1766015878.884989,25
1766015878.8849988,26
1766015878.88501,24
1766015878.885021,26
1766015878.885031,25
1766015878.885042,24
1766015878.885052,28
1766015878.885063,28
1766015878.885073,28
1766015878.885084,27
1766015878.885094,29
1766015878.885105,28
1766015878.885115,27
1766015878.8851259,26
1766015878.885136,25
1766015878.885152,29
1766015878.885165,25
1766015878.8851762,27
1766015878.885186,26
1766015878.8851972,29
1766015878.885207,24
1766015878.8852181,25
1766015878.885228,25
1766015878.8852491,26
1766015878.885259,27
1766015878.88527,24
1766015878.88528,28
1766015878.885291,26
1766015878.8853009,26
1766015878.885312,25
1766015878.885322,26
1766015878.885333,22
1766015878.885343,28
1766015878.885354,23
1766015878.885364,28
1766015878.885375,29
1766015878.885385,25
1766015878.885396,27
1766015878.885406,26
1766015878.885417,25
1766015878.885427,27
1766015878.885438,29
1766015878.885448,26
1766015878.885459,26
1766015878.885469,25
1766015878.88548,24
1766015878.88549,27
1766015878.885501,27
1766015878.885515,28
1766015878.885526,25
1766015878.885537,24
1766015878.885547,28
1766015878.8855581,27
1766015878.885568,25
1766015878.885591,26
1766015878.885602,25
1766015878.885612,24
1766015878.885623,27
1766015878.885633,27
1766015878.885644,28
1766015878.885654,25
1766015878.885665,25
1766015878.885675,22
1766015878.885686,24
1766015878.885696,27
1766015878.885707,29
1766015878.885717,27
1766015878.885728,25
1766015878.885738,27
1766015878.885749,25
1766015878.8857589,26
1766015878.88577,26
1766015878.8857799,27
1766015878.885791,27
1766015878.885801,29
1766015878.885812,26
1766015878.885822,28
1766015878.885833,26
1766015878.885843,27
1766015878.885854,26
1766015878.885864,24
1766015878.885875,25
1766015878.885888,28
1766015878.885901,23
1766015878.8859122,25
1766015878.8859231,26
1766015878.8859332,26
1766015878.8859441,28
1766015878.8859541,28
1766015878.885965,27
1766015878.8859751,25
1766015878.885986,28
1766015878.885996,29
1766015878.886007,24
1766015878.886017,23
1766015878.886027,27
1766015878.886038,28
1766015878.886048,25
1766015878.886059,27
1766015878.886069,26
1766015878.88608,27
1766015878.88609,25
1766015878.886101,28
1766015878.886111,26
1766015878.886122,25
1766015878.886132,28
1766015878.886143,26
1766015878.886153,28
1766015878.886164,28
1766015878.886175,24
1766015878.886185,27
1766015878.886196,25
1766015878.886206,25
1766015878.8862169,25
1766015878.886227,26
1766015878.886241,28
1766015878.886254,25
1766015878.886264,25
1766015878.886275,29
1766015878.886286,28
1766015878.886296,24
1766015878.886307,24
1766015878.886317,25
1766015878.886328,26
1766015878.886338,23
1766015878.886349,24
1766015878.886359,23
1766015878.88637,24
1766015878.88638,24
1766015878.88639,24
1766015878.886401,24
1766015878.886411,25
1766015878.886422,24
1766015878.886432,23
1766015878.886443,23
1766015878.886453,28
1766015878.886464,25
1766015878.886474,25
1766015878.886485,25
1766015878.8864949,26
1766015878.886506,25
1766015878.8865159,21
1766015878.886527,26
1766015878.886537,23
1766015878.886548,24
1766015878.886558,23
1766015878.886569,22
1766015878.886579,25
1766015878.886592,23
1766015878.886605,28
1766015878.886615,23
1766015878.886626,21
1766015878.886636,19
1766015878.886647,23
1766015878.886658,23
1766015878.886668,24
1766015878.886679,24
1766015878.886689,25
1766015878.886703,23
1766015878.8867142,20
1766015878.886724,25
1766015878.8867352,23
1766015878.8867462,23
1766015878.8867571,23
1766015878.8867671,26
1766015878.886778,21
1766015878.8867881,25
1766015878.886799,22
1766015878.886809,25
1766015878.88682,26
1766015878.886831,25
1766015878.886841,24
1766015878.886852,25
1766015878.886862,27
1766015878.886873,23
1766015878.886883,25
1766015878.886894,23
1766015878.886904,23
1766015878.886914,21
1766015878.886925,26
1766015878.886935,22
1766015878.886948,23
1766015878.886961,20
1766015878.886972,24
1766015878.886982,24
1766015878.886993,24
1766015878.887003,22
1766015878.887014,21
1766015878.8870242,26
1766015878.887035,22
1766015878.8870459,25
1766015878.8870559,27
1766015878.8870668,24
1766015878.887077,22
1766015878.887088,23
1766015878.887098,23
1766015878.887109,21
1766015878.887119,26
1766015878.88713,26
1766015878.88714,23
1766015878.88715,22
1766015878.887161,22
1766015878.887171,22
1766015878.887182,22
1766015878.887192,23
1766015878.887203,23
1766015878.887213,22
1766015878.887223,21
1766015878.887234,22
1766015878.887244,25
1766015878.887255,24
1766015878.887265,22
1766015878.887276,21
1766015878.887286,22
1766015878.887297,22
1766015878.8873112,21
1766015878.887323,23
1766015878.8873339,26
1766015878.8873441,24
1766015878.8873549,24
1766015878.887365,22
1766015878.8873758,24
1766015878.887386,22
1766015878.887397,22
1766015878.887407,23
1766015878.887418,21
1766015878.887428,23
1766015878.887439,25
1766015878.887449,23
1766015878.88746,23
1766015878.88747,19
1766015878.887481,24
1766015878.887491,21
1766015878.8875022,22
1766015878.887512,23
1766015878.8875232,22
1766015878.887533,23
1766015878.8875442,23
1766015878.887554,20
1766015878.8875651,22
1766015878.8875751,23
1766015878.887586,25
1766015878.8875961,22
1766015878.887607,23
1766015878.887617,24
1766015878.887628,22
1766015878.887638,21
1766015878.887649,21
1766015878.8876622,24
1766015878.887674,21
1766015878.887684,24
1766015878.887695,22
1766015878.887705,23
1766015878.887716,22
1766015878.887726,21
1766015878.887737,23
1766015878.887747,25
1766015878.887758,24
1766015878.887768,25
1766015878.887779,23
1766015878.887789,23
1766015878.8878,25
1766015878.88781,23
1766015878.887821,21
1766015878.887831,22
1766015878.887842,24
1766015878.887852,23
1766015878.8878632,24
1766015878.887873,25
1766015878.8878841,22
1766015878.887894,23
1766015878.8879051,22
1766015878.887915,22
1766015878.887926,24
1766015878.887936,25
1766015878.887946,26
1766015878.887957,22
1766015878.8879669,23
1766015878.887978,23
1766015878.887989,22
1766015878.887999,22
1766015878.888012,23
1766015878.888025,23
1766015878.888035,26
1766015878.888046,23
1766015878.888056,21
1766015878.888067,23
1766015878.888077,23
1766015878.888088,25
1766015878.888098,22
1766015878.888108,23
1766015878.888119,24
1766015878.888129,23
1766015878.88814,22
1766015878.88815,26
1766015878.888161,22
1766015878.8881721,21
1766015878.888182,24
1766015878.888192,21
1766015878.888203,22
1766015878.888214,23
1766015878.888225,23
1766015878.888236,24
1766015878.888247,24
1766015878.888257,22
1766015878.888267,25
1766015878.888278,22
1766015878.888288,23
1766015878.888299,22
1766015878.888309,20
1766015878.88832,21
1766015878.88833,24
1766015878.888341,21
1766015878.888351,21
1766015878.8883672,22
1766015878.8883789,21
1766015878.8883898,22
1766015878.8884008,21
1766015878.8884108,21
1766015878.8884218,21
1766015878.888432,24
1766015878.888443,21
1766015878.888453,22
1766015878.888464,23
1766015878.8884742,19
1766015878.8884852,26
1766015878.8884962,24
1766015878.8885062,22
1766015878.8885171,20
1766015878.8885272,19
1766015878.8885372,20
1766015878.8885481,22
1766015878.8885581,23
1766015878.888569,22
1766015878.8885791,20
1766015878.8885891,22
1766015878.8886,22
1766015878.8886101,23
1766015878.888621,22
1766015878.888631,24
1766015878.888642,19
1766015878.888652,23
1766015878.888663,21
1766015878.888673,20
1766015878.888684,21
1766015878.888694,20
1766015878.888704,22
1766015878.888715,22
1766015878.8887281,20
1766015878.888742,22
1766015878.888753,21
1766015878.888763,21
1766015878.888774,23
1766015878.888784,23
1766015878.8887942,21
1766015878.8888052,24
1766015878.8888152,22
1766015878.8888261,21
1766015878.8888361,22
1766015878.8888462,23
1766015878.8888571,22
1766015878.8888671,20
1766015878.888878,23
1766015878.8888881,23
1766015878.888899,21
1766015878.888909,22
1766015878.888919,22
1766015878.88893,21
1766015878.88894,23
1766015878.888951,23
1766015878.888961,21
1766015878.888972,22
1766015878.888982,24
1766015878.888993,24
1766015878.889003,23
1766015878.889014,23
1766015878.889024,21
1766015878.889035,22
1766015878.889045,22
1766015878.889055,23
1766015878.889066,22
1766015878.889081,21
1766015878.889096,24
1766015878.889107,23
1766015878.889117,21
1766015878.889128,21
1766015878.889138,24
1766015878.889149,25
1766015878.889159,23
1766015878.889169,21
1766015878.88918,25
1766015878.88919,25
1766015878.889201,24
1766015878.889211,22
1766015878.889222,22
1766015878.889232,20
1766015878.8892422,23
1766015878.8892531,23
1766015878.8892632,20
1766015878.8892741,22
1766015878.8892841,20
1766015878.889295,21
1766015878.889305,21
1766015878.8893151,21
1766015878.889326,22
1766015878.889336,22
1766015878.889347,21
1766015878.889357,23
1766015878.889368,21
1766015878.889379,23
1766015878.88939,24
1766015878.8894,22
1766015878.88941,23
1766015878.889421,22
1766015878.889438,23
1766015878.889451,25
1766015878.889462,23
1766015878.889472,22
1766015878.889482,21
1766015878.889493,23
1766015878.889504,26
1766015878.889514,23
1766015878.889525,26
1766015878.889536,23
1766015878.889546,23
1766015878.889557,25
1766015878.889568,25
1766015878.8895779,23
1766015878.889589,26
1766015878.889599,25
1766015878.88961,25
1766015878.889621,26
1766015878.889631,25
1766015878.889642,23
1766015878.889652,25
1766015878.889663,27
1766015878.889673,27
1766015878.889684,24
1766015878.889694,23
1766015878.889704,25
1766015878.889715,22
1766015878.889726,23
1766015878.889736,22
1766015878.889747,23
1766015878.889757,22
1766015878.889767,23
1766015878.889778,22
1766015878.889788,24
1766015878.889798,23
1766015878.889809,23
1766015878.889819,25
1766015878.8898299,23
1766015878.8898401,23
1766015878.8898509,21
1766015878.889861,25
1766015878.8898728,24
1766015878.8898828,28
1766015878.8898938,23
1766015878.889904,26
1766015878.889915,22
1766015878.889925,25
1766015878.889934,23
1766015878.8899431,24
1766015878.889952,24
1766015878.889961,24
1766015878.8899698,23
1766015878.889979,24
1766015878.8899882,24
1766015878.889997,27
1766015878.890006,24
1766015878.890015,28
1766015878.890024,27
1766015878.890033,27
1766015878.890042,25
1766015878.8900511,23
1766015878.89006,25
1766015878.890068,22
1766015878.8900769,27
1766015878.890086,23
1766015878.890095,23
1766015878.890104,26
1766015878.890113,24
1766015878.890123,24
1766015878.890132,24
1766015878.890141,26
1766015878.8901498,25
1766015878.8901591,26
1766015878.890168,29
1766015878.890177,27
1766015878.890186,29
1766015878.890195,24
1766015878.890204,26
1766015878.890213,27
1766015878.890222,26
1766015878.8902311,26
1766015878.890241,24
1766015878.89025,29
1766015878.890259,25
1766015878.8902678,26
1766015878.8902771,25
1766015878.890286,28
1766015878.890295,24
1766015878.890304,27
1766015878.890313,25
1766015878.890323,25
1766015878.890332,25
1766015878.890341,27
1766015878.89035,25
1766015878.890361,23
1766015878.8903701,24
1766015878.8903801,26
1766015878.890389,25
1766015878.890398,26
1766015878.8904068,23
1766015878.8904161,24
1766015878.8904252,27
1766015878.890434,29
1766015878.890443,26
1766015878.890452,26
1766015878.890461,26
1766015878.8904698,25
1766015878.890479,28
1766015878.8904881,26
1766015878.890497,26
1766015878.890506,27
1766015878.8905149,24
1766015878.890524,22
1766015878.8905332,26
1766015878.890542,26
1766015878.890551,23
1766015878.89056,28
1766015878.890569,26
1766015878.890579,26
1766015878.8905878,28
1766015878.890597,27
1766015878.8906062,25
1766015878.890615,26
1766015878.890626,27
1766015878.890635,24
1766015878.890644,21
1766015878.890653,26
1766015878.890663,26
1766015878.8906722,24
1766015878.8906822,28
1766015878.890691,25
1766015878.8907,27
1766015878.890709,27
1766015878.890718,25
1766015878.8907268,26
1766015878.890736,24
1766015878.8907452,27
1766015878.890754,28
1766015878.890763,23
1766015878.8907719,26
1766015878.890781,26
1766015878.89079,24
1766015878.890799,25
1766015878.890808,28
1766015878.890817,27
1766015878.890826,27
1766015878.890835,25
1766015878.8908439,28
1766015878.8908532,26
1766015878.890862,26
1766015878.890871,27
1766015878.89088,25
1766015878.89089,27
1766015878.890899,29
1766015878.890908,29
1766015878.890917,28
1766015878.8909261,27
1766015878.890935,24
1766015878.890944,23
1766015878.890953,26
1766015878.8909628,27
1766015878.890972,27
1766015878.8909812,27
1766015878.89099,25
1766015878.890999,23
1766015878.891008,26
1766015878.891017,24
1766015878.891026,26
1766015878.8910348,26
1766015878.8910441,26
1766015878.891053,26
1766015878.891062,26
1766015878.891071,26
1766015878.89108,22
1766015878.891089,26
1766015878.891098,26
1766015878.891107,26
1766015878.8911161,28
1766015878.891125,23
1766015878.891134,29
1766015878.8911428,24
1766015878.891152,26
1766015878.8911612,25
1766015878.89117,28
1766015878.891179,27
1766015878.891188,26
1766015878.891197,27
1766015878.8912058,27
1766015878.891215,26
1766015878.8912241,26
1766015878.891233,27
1766015878.891242,25
1766015878.891252,28
1766015878.8912609,28
1766015878.89127,27
1766015878.8912792,26
1766015878.891288,27
1766015878.891297,26
1766015878.891306,24
1766015878.891315,23
1766015878.891325,27
1766015878.891335,24
1766015878.891343,29
1766015878.8913522,23
1766015878.891362,26
1766015878.89137,25
1766015878.8913789,27
1766015878.891389,26
1766015878.891398,26
1766015878.891407,26
1766015878.891416,26
1766015878.891426,28
1766015878.891435,26
1766015878.891444,26
1766015878.891453,28
1766015878.8914618,26
1766015878.8914711,26
1766015878.89148,23
1766015878.891489,26
1766015878.891498,25
1766015878.891507,26
1766015878.891516,25
1766015878.891525,24
1766015878.891534,26
1766015878.8915431,25
1766015878.891552,23
1766015878.891561,28
1766015878.8915699,28
1766015878.891579,25
1766015878.8915882,26
1766015878.891597,25
1766015878.891606,28
1766015878.891615,23
1766015878.891624,23
1766015878.8916328,25
1766015878.891642,25
1766015878.892372,28
1766015878.893331,25
1766015878.8944142,26
1766015878.895314,24
1766015878.8963358,25
1766015878.89738,25
1766015878.898387,24
1766015878.8993511,24
1766015878.900346,24
1766015878.901435,25
1766015878.902414,25
1766015878.903397,22
1766015878.904397,23
1766015878.905378,26
1766015878.906404,23
1766015878.907358,24
1766015878.908434,21
1766015878.90939,27
1766015878.9104278,27
1766015878.9114182,28
1766015878.912383,27
1766015878.913406,24
1766015878.9144099,28
1766015878.915426,24
1766015878.9163961,25
1766015878.917396,27
1766015878.918438,27
1766015878.919418,27
1766015878.9204218,28
1766015878.9214342,24
1766015878.922445,26
1766015878.923431,25
1766015878.924397,24
1766015878.925437,22
1766015878.9264681,28
1766015878.927468,28
1766015878.928469,28
1766015878.929452,26
1766015878.9304829,27
1766015878.9314291,28
1766015878.9324381,25
1766015878.933462,22
1766015878.9344928,24
1766015878.935492,26
1766015878.9364722,25
1766015878.937473,24
1766015878.938483,26
1766015878.939475,25
1766015878.9405131,25
1766015878.941503,29
1766015878.942476,24
1766015878.943525,22
1766015878.9445062,25
1766015878.9455092,23
1766015878.946523,25
1766015878.94751,23
1766015878.9485152,25
1766015878.949482,23
1766015878.950589,24
1766015878.95156,24
1766015878.9525352,27
1766015878.953527,24
1766015878.9545522,23
1766015878.9555562,23
1766015878.956519,23
1766015878.9575932,25
1766015878.958546,24
1766015878.9595761,25
1766015878.9605298,24
1766015878.961571,24
1766015878.962558,24
1766015878.9635541,24
1766015878.964577,24
1766015878.96557,23
1766015878.966527,25
1766015878.967573,26
1766015878.96857,26
1766015878.969595,23
1766015878.9705548,24
1766015878.9715688,25
1766015878.9725828,25
1766015878.973569,24
1766015878.974561,24
1766015878.975586,24
1766015878.976581,27
1766015878.977579,21
1766015878.97858,23
1766015878.979584,23
1766015878.980588,20
1766015878.981577,23
1766015878.9825978,23
1766015878.9836218,26
1766015878.984616,25
1766015878.985611,24
1766015878.986608,20
1766015878.98762,23
1766015878.988621,24
1766015878.98963,24
1766015878.990626,21
1766015878.991636,23
1766015878.992637,25
1766015878.993621,24
1766015878.994613,21
1766015878.995626,23
1766015878.996632,24
1766015878.997619,24
1766015878.998614,24
1766015878.999628,21
1766015879.00065,25
1766015879.0016398,23
1766015879.002648,21
1766015879.003647,21
1766015879.004666,24
1766015879.005667,23
1766015879.006679,22
1766015879.007672,23
1766015879.008697,24
1766015879.0097091,21
1766015879.010696,24
1766015879.0116742,21
1766015879.012683,23
1766015879.0136828,21
1766015879.0147252,20
1766015879.0157099,24
1766015879.016721,24
1766015879.0177238,21
1766015879.018741,21
1766015879.019702,22
1766015879.0206962,23
1766015879.021739,20
1766015879.02274,22
1766015879.023755,26
1766015879.024708,21
1766015879.025725,23
1766015879.026745,21
1766015879.027735,20
1766015879.0287209,21
1766015879.029759,19
1766015879.030756,21
1766015879.031755,22
1766015879.0327349,22
1766015879.033731,22
1766015879.034763,21
1766015879.035768,21
1766015879.036741,21
1766015879.037749,22
1766015879.03878,24
1766015879.0397599,21
1766015879.040763,21
1766015879.041752,20
1766015879.042807,22
1766015879.043793,23
1766015879.044796,24
1766015879.0457962,23
1766015879.0467892,23
1766015879.047795,24
1766015879.0488122,22
1766015879.0497909,23
1766015879.050854,21
1766015879.0518222,23
1766015879.052819,22
1766015879.0538151,24
1766015879.054822,23
1766015879.055819,23
1766015879.056826,25
1766015879.057794,22
1766015879.05888,21
1766015879.059849,22
1766015879.06085,25
1766015879.061899,20
1766015879.062836,22
1766015879.06383,21
1766015879.0648499,25
1766015879.065799,24
1766015879.066831,23
1766015879.06787,23
1766015879.0688782,22
1766015879.069862,22
1766015879.070905,23
1766015879.071865,23
1766015879.072885,24
1766015879.073833,21
1766015879.07485,24
1766015879.075878,23
1766015879.076869,22
1766015879.0778382,22
1766015879.078889,24
1766015879.079917,22
1766015879.0809312,22
1766015879.081868,21
1766015879.082866,20
1766015879.083872,24
1766015879.0849018,24
1766015879.085917,26
1766015879.086925,23
1766015879.08796,25
1766015879.0888882,21
1766015879.089921,25
1766015879.090883,24
1766015879.091896,22
1766015879.092917,26
1766015879.0939379,25
1766015879.094898,21
1766015879.095906,24
1766015879.0969422,24
1766015879.0979378,26
1766015879.0989618,23
1766015879.099935,20
1766015879.100972,23
1766015879.101962,23
1766015879.102977,25
1766015879.103982,22
1766015879.104969,24
1766015879.10596,23
1766015879.106944,25
1766015879.107949,24
1766015879.109073,24
1766015879.110073,24
1766015879.1109738,24
1766015879.1120799,25
1766015879.113098,22
1766015879.1140852,24
1766015879.1150699,25
1766015879.116055,25
1766015879.1170602,22
1766015879.118073,22
1766015879.119071,25
1766015879.120082,22
1766015879.121088,24
1766015879.12208,24
1766015879.123073,22
1766015879.124077,25
1766015879.125073,25
1766015879.12608,23
1766015879.127072,26
1766015879.128072,24
1766015879.12908,22
1766015879.130083,24
1766015879.131077,29
1766015879.132071,21
1766015879.1330738,27
1766015879.134082,29
1766015879.135076,29
1766015879.136068,27
1766015879.137074,25
1766015879.1380758,24
1766015879.1390772,26
1766015879.140068,25
1766015879.141077,28
1766015879.1421099,28
1766015879.1430862,31
1766015879.144088,29
1766015879.1450949,33
1766015879.1460931,28
1766015879.147091,28
1766015879.148111,25
1766015879.149102,31
1766015879.150097,29
1766015879.151107,26
1766015879.152111,27
1766015879.1531148,26
1766015879.1541178,27
1766015879.1551292,28
1766015879.156128,27
1766015879.157126,27
1766015879.158123,30
1766015879.1591291,27
1766015879.1601238,28
1766015879.161122,30
1766015879.162136,27
1766015879.1631732,33
1766015879.164145,31
1766015879.1651552,30
1766015879.166133,30
1766015879.16712,28
1766015879.168112,29
1766015879.169135,30
1766015879.170154,30
1766015879.1711402,28
1766015879.172194,29
1766015879.1731882,28
1766015879.174129,30
1766015879.175133,31
1766015879.1761322,30
1766015879.177141,29
1766015879.178144,31
1766015879.179141,27
1766015879.1801732,27
1766015879.181178,31
1766015879.182168,28
1766015879.183167,28
1766015879.184198,28
1766015879.18517,30
1766015879.186205,27
1766015879.1871989,25
1766015879.188176,26
1766015879.1892202,29
1766015879.190221,28
1766015879.191197,28
1766015879.192197,26
1766015879.1931882,30
1766015879.1942348,26
1766015879.195235,29
1766015879.1962628,29
1766015879.19723,31
1766015879.19823,28
1766015879.199192,26
1766015879.200209,27
1766015879.201267,25
1766015879.202253,31
1766015879.203251,25
1766015879.204257,30
1766015879.2052789,27
1766015879.2062771,29
1766015879.207249,28
1766015879.208272,29
1766015879.209283,30
1766015879.2102542,30
1766015879.2112708,29
1766015879.2122722,30
1766015879.213278,29
1766015879.214283,30
1766015879.2152882,29
1766015879.2162938,33
1766015879.2173061,29
1766015879.218299,30
1766015879.2193012,31
1766015879.220295,29
1766015879.2212942,30
1766015879.222314,30
1766015879.2233238,31
1766015879.224307,32
1766015879.225319,30
1766015879.226326,28
1766015879.2273338,30
1766015879.228339,29
1766015879.2293382,29
1766015879.2303512,29
1766015879.2313411,31
1766015879.2323809,29
1766015879.2333472,31
1766015879.234344,32
1766015879.235347,30
1766015879.236347,28
1766015879.237361,28
1766015879.238337,31
1766015879.239367,30
1766015879.240364,31
1766015879.241418,32
1766015879.242388,32
1766015879.2433898,32
1766015879.244389,33
1766015879.2453818,34
1766015879.246371,33
1766015879.247382,33
1766015879.2484229,35
1766015879.249397,34
1766015879.250398,34
1766015879.251387,33
1766015879.252405,35
1766015879.253403,34
1766015879.2544022,30
1766015879.255389,34
1766015879.2564049,35
1766015879.2574122,32
1766015879.2584162,33
1766015879.259437,33
1766015879.2604191,32
1766015879.261419,30
1766015879.26242,34
1766015879.263424,32
1766015879.26443,32
1766015879.265436,34
1766015879.266453,31
1766015879.26746,34
1766015879.2684429,33
1766015879.269439,34
1766015879.270454,34
1766015879.271455,31
1766015879.272473,33
1766015879.273459,33
1766015879.274454,34
1766015879.275476,32
1766015879.276458,33
1766015879.277463,33
1766015879.278462,33
1766015879.279465,34
1766015879.280504,35
1766015879.281479,34
1766015879.282476,35
1766015879.2834969,35
1766015879.284502,38
1766015879.285523,36
1766015879.286509,37
1766015879.287481,34
1766015879.2884989,37
1766015879.289522,37
1766015879.290522,42
1766015879.291507,37
1766015879.2925088,41
1766015879.2935371,39
1766015879.294514,40
1766015879.295521,40
1766015879.296562,41
1766015879.2975411,40
1766015879.298545,41
1766015879.299535,42
1766015879.300541,39
1766015879.301538,37
1766015879.302531,39
1766015879.303564,41
1766015879.304557,41
1766015879.305564,43
1766015879.306564,38
1766015879.3075771,41
1766015879.3085818,41
1766015879.309566,42
1766015879.310584,40
1766015879.311578,39
1766015879.312564,43
1766015879.313605,41
1766015879.314572,41
1766015879.315579,43
1766015879.316588,41
1766015879.317591,40
1766015879.31859,44
1766015879.3195982,39
1766015879.320595,43
1766015879.321614,44
1766015879.322598,44
1766015879.323594,43
1766015879.3246,41
1766015879.32563,41
1766015879.326609,39
1766015879.3276181,42
1766015879.328622,41
1766015879.3296251,42
1766015879.330645,42
1766015879.331636,43
1766015879.332638,44
1766015879.333645,44
1766015879.3346581,45
1766015879.335658,47
1766015879.33665,46
1766015879.337631,47
1766015879.338651,46
1766015879.339675,49
1766015879.340662,46
1766015879.3416462,45
1766015879.34268,45
1766015879.343681,47
1766015879.3446689,46
1766015879.345664,46
1766015879.346679,45
1766015879.3476899,46
1766015879.3486888,48
1766015879.349697,48
1766015879.350702,47
1766015879.3516932,47
1766015879.352723,48
1766015879.353707,46
1766015879.3547032,48
1766015879.355708,46
1766015879.3567019,42
1766015879.3577118,44
1766015879.35871,46
1766015879.3597178,48
1766015879.36072,50
1766015879.3617148,51
1766015879.362711,52
1766015879.363734,51
1766015879.364741,50
1766015879.365739,51
1766015879.366743,50
1766015879.3677492,51
1766015879.36876,52
1766015879.3697321,50
1766015879.370757,50
1766015879.3717592,51
1766015879.3727539,47
1766015879.3737311,50
1766015879.3747442,48
1766015879.375774,51
1766015879.376749,51
1766015879.3777568,47
1766015879.3787892,47
1766015879.379775,47
1766015879.380779,47
1766015879.3817852,48
1766015879.3827531,47
1766015879.3837671,47
1766015879.384792,49
1766015879.385796,48
1766015879.386791,47
1766015879.3878138,48
1766015879.388829,45
1766015879.389816,46
1766015879.3907928,45
1766015879.3918028,46
1766015879.3927832,47
1766015879.393801,43
1766015879.394827,46
1766015879.3958158,45
1766015879.396815,46
1766015879.397805,42
1766015879.398807,48
1766015879.399808,44
1766015879.4007978,45
1766015879.401812,45
1766015879.40282,47
1766015879.403866,45
1766015879.404885,44
1766015879.405844,42
1766015879.406892,47
1766015879.4078562,45
1766015879.40885,44
1766015879.409887,46
1766015879.4108741,44
1766015879.411883,46
1766015879.4128351,46
1766015879.413883,47
1766015879.41488,47
1766015879.415848,52
1766015879.416848,50
1766015879.417878,49
1766015879.418901,47
1766015879.4199,48
1766015879.420875,51
1766015879.4219131,48
1766015879.422891,48
1766015879.423908,48
1766015879.4248781,48
1766015879.425914,46
1766015879.4269261,48
1766015879.4279318,49
1766015879.428889,45
1766015879.4299378,48
1766015879.43094,45
1766015879.43189,49
1766015879.432895,46
1766015879.43393,46
1766015879.434945,45
1766015879.4359071,47
1766015879.436939,48
1766015879.437948,45
1766015879.4389691,44
1766015879.43996,46
1766015879.440914,46
1766015879.441935,47
1766015879.442961,47
1766015879.443976,42
1766015879.44496,47
1766015879.4459689,44
1766015879.446976,46
1766015879.447986,49
1766015879.4489741,45
1766015879.4499788,49
1766015879.451017,47
1766015879.452074,50
1766015879.4530728,52
1766015879.454069,53
1766015879.455081,56
1766015879.456077,57
1766015879.457074,56
1766015879.4580731,56
1766015879.459079,54
1766015879.4600792,55
1766015879.461076,54
1766015879.4620721,57
1766015879.463073,57
1766015879.464066,54
1766015879.465087,52
1766015879.466068,52
1766015879.467073,53
1766015879.46808,51
1766015879.4690719,52
1766015879.4700701,49
1766015879.471066,53
1766015879.472075,51
1766015879.473088,52
1766015879.474072,50
1766015879.4750762,51
1766015879.476081,55
1766015879.4770439,52
1766015879.47806,54
1766015879.47906,53
1766015879.480077,51
1766015879.48108,50
1766015879.4820611,53
1766015879.483079,51
1766015879.48408,50
1766015879.485086,52
1766015879.4860868,47
1766015879.487082,52
1766015879.488092,47
1766015879.489085,48
1766015879.490108,52
1766015879.4910889,47
1766015879.4920971,48
1766015879.493097,46
1766015879.494119,48
1766015879.495061,46
1766015879.4961002,46
1766015879.4970958,45
1766015879.498084,45
1766015879.499085,45
1766015879.500146,45
1766015879.501128,45
1766015879.502145,47
1766015879.5031471,48
1766015879.504153,47
1766015879.505155,51
1766015879.5061498,46
1766015879.507156,48
1766015879.508158,46
1766015879.5091588,48
1766015879.510155,48
1766015879.511159,45
1766015879.512161,45
1766015879.513161,47
1766015879.514179,48
1766015879.51513,49
1766015879.516171,46
1766015879.517191,46
1766015879.518194,46
1766015879.519155,47
1766015879.5201972,46
1766015879.521191,47
1766015879.522197,46
1766015879.523156,45
1766015879.524218,46
1766015879.5252259,44
1766015879.526247,45
1766015879.527227,48
1766015879.528235,46
1766015879.529234,45
1766015879.530255,43
1766015879.5312371,43
1766015879.532228,42
1766015879.53324,44
1766015879.5342212,45
1766015879.535251,43
1766015879.536215,43
1766015879.5372229,47
1766015879.538209,48
1766015879.539236,45
1766015879.540218,50
1766015879.5412228,49
1766015879.542214,50
1766015879.543232,50
1766015879.544232,51
1766015879.545235,49
1766015879.546299,52
1766015879.547275,51
1766015879.548241,50
1766015879.549244,49
1766015879.550294,47
1766015879.5512881,49
1766015879.552247,47
1766015879.553309,51
1766015879.554334,49
1766015879.555281,47
1766015879.556331,46
1766015879.557309,46
1766015879.558309,46
1766015879.5593119,48
1766015879.560308,48
1766015879.5612879,51
1766015879.56231,46
1766015879.563335,46
1766015879.564337,48
1766015879.565359,46
1766015879.566334,49
1766015879.5673332,48
1766015879.568348,49
1766015879.569338,47
1766015879.570343,47
1766015879.5713458,49
1766015879.5723479,52
1766015879.573354,51
1766015879.574362,48
1766015879.5753589,48
1766015879.57636,48
1766015879.577367,52
1766015879.578368,49
1766015879.579384,46
1766015879.580377,49
1766015879.581377,47
1766015879.582367,49
1766015879.583389,44
1766015879.584374,50
1766015879.585367,46
1766015879.58637,44
1766015879.587384,46
1766015879.588385,44
1766015879.58939,45
1766015879.5904,47
1766015879.591394,45
1766015879.5924108,43
1766015879.5934038,47
1766015879.594412,47
1766015879.595398,45
1766015879.596421,43
1766015879.5974169,44
1766015879.598439,46
1766015879.599432,45
1766015879.60043,44
1766015879.601425,49
1766015879.602448,52
1766015879.603435,54
1766015879.6044312,52
1766015879.605443,52
1766015879.606459,52
1766015879.607463,51
1766015879.608463,49
1766015879.609456,50
1766015879.610469,52
1766015879.6114209,49
1766015879.612469,48
1766015879.613469,50
1766015879.6144881,49
1766015879.615498,52
1766015879.61648,47
1766015879.6174889,50
1766015879.6184819,46
1766015879.619484,49
1766015879.6204941,46
1766015879.6214972,43
1766015879.622507,45
1766015879.623521,48
1766015879.6245198,46
1766015879.625515,47
1766015879.626532,46
1766015879.627527,43
1766015879.628531,43
1766015879.629515,43
1766015879.630517,43
1766015879.631544,43
1766015879.6325262,44
1766015879.633534,42
1766015879.63454,44
1766015879.635542,41
1766015879.63655,43
1766015879.637537,40
1766015879.6385632,41
1766015879.639541,40
1766015879.6405492,42
1766015879.641557,43
1766015879.642575,43
1766015879.643568,44
1766015879.6445749,45
1766015879.645731,43
1766015879.646569,41
1766015879.647568,40
1766015879.648584,43
1766015879.649586,43
1766015879.650572,43
1766015879.6515698,44
1766015879.6525838,38
1766015879.653596,41
1766015879.6546,43
1766015879.6556091,43
1766015879.656609,43
1766015879.65761,42
1766015879.658601,43
1766015879.659616,42
1766015879.66062,45
1766015879.661611,46
1766015879.662621,42
1766015879.663632,40
1766015879.66463,42
1766015879.665631,44
1766015879.6666398,41
1766015879.667628,41
1766015879.668641,41
1766015879.669632,38
1766015879.670654,40
1766015879.671662,42
1766015879.672655,42
1766015879.673653,43
1766015879.6746619,42
1766015879.6756601,46
1766015879.67666,41
1766015879.677663,43
1766015879.678677,48
1766015879.679679,47
1766015879.680667,46
1766015879.6816761,45
1766015879.682682,44
1766015879.6836932,43
1766015879.684694,45
1766015879.685694,43
1766015879.6867049,45
1766015879.687683,46
1766015879.688688,46
1766015879.689686,43
1766015879.690717,43
1766015879.6917162,45
1766015879.692718,44
1766015879.69372,41
1766015879.6947122,43
1766015879.695719,41
1766015879.69672,43
1766015879.6977239,42
1766015879.698723,43
1766015879.69972,45
1766015879.7007391,45
1766015879.701737,47
1766015879.7027452,55
1766015879.703747,53
1766015879.704753,56
1766015879.705747,61
1766015879.7067652,66
1766015879.7077382,62
1766015879.708755,65
1766015879.70976,66
1766015879.7107499,65
1766015879.7117739,65
1766015879.712747,65
1766015879.7137358,60
1766015879.714752,59
1766015879.7157362,59
1766015879.716762,59
1766015879.7177548,59
1766015879.718773,60
1766015879.719774,57
1766015879.720778,59
1766015879.721772,58
1766015879.7227788,59
1766015879.723784,57
1766015879.7247748,55
1766015879.72576,56
1766015879.726758,57
1766015879.72779,56
1766015879.728786,57
1766015879.7297988,54
1766015879.7308202,57
1766015879.7318761,54
1766015879.7328131,55
1766015879.733804,55
1766015879.734814,56
1766015879.7358122,55
1766015879.736823,55
1766015879.737816,56
1766015879.738827,54
1766015879.7398632,55
1766015879.7408261,55
1766015879.741863,51
1766015879.742878,56
1766015879.7438662,53
1766015879.744874,55
1766015879.745875,53
1766015879.7468789,51
1766015879.747884,54
1766015879.748898,50
1766015879.74989,52
1766015879.750897,50
1766015879.751907,48
1766015879.752909,52
1766015879.753906,52
1766015879.754903,48
1766015879.755905,48
1766015879.756906,51
1766015879.757898,49
1766015879.758917,49
1766015879.759923,48
1766015879.760911,49
1766015879.761905,49
1766015879.762913,48
1766015879.7638998,46
1766015879.7649238,46
1766015879.7659252,47
1766015879.7669299,46
1766015879.7679412,48
1766015879.7689312,49
1766015879.769938,50
1766015879.7709372,50
1766015879.771955,53
1766015879.772941,50
1766015879.773958,52
1766015879.774931,52
1766015879.775955,53
1766015879.776942,51
1766015879.777971,53
1766015879.77897,50
1766015879.779973,54
1766015879.7809741,52
1766015879.7819781,55
1766015879.782969,53
1766015879.7839758,50
1766015879.785078,52
1766015879.785983,54
1766015879.786981,50
1766015879.787981,50
1766015879.789126,51
1766015879.7900858,50
1766015879.790946,52
1766015879.792033,49
1766015879.7931142,48
1766015879.794066,46
1766015879.795084,48
1766015879.796077,49
1766015879.79709,47
1766015879.798073,50
1766015879.799066,49
1766015879.800093,49
1766015879.801035,51
1766015879.802065,48
1766015879.803031,49
1766015879.804065,47
1766015879.805078,49
1766015879.8060749,48
1766015879.80704,45
1766015879.80804,47
1766015879.809039,49
1766015879.81008,51
1766015879.8110862,50
1766015879.812087,51
1766015879.813101,50
1766015879.814079,51
1766015879.815066,52
1766015879.8160489,50
1766015879.817078,50
1766015879.818079,51
1766015879.819066,49
1766015879.8200572,51
1766015879.821077,50
1766015879.822057,50
1766015879.823055,50
1766015879.8240519,51
1766015879.825067,51
1766015879.82607,50
1766015879.8270772,46
1766015879.828068,47
1766015879.829081,48
1766015879.8300748,45
1766015879.831069,49
1766015879.832067,44
1766015879.83307,47
1766015879.83408,47
1766015879.8350852,46
1766015879.836137,46
1766015879.83711,42
1766015879.838114,43
1766015879.839104,44
1766015879.840103,44
1766015879.8411,42
1766015879.84211,47
1766015879.843128,45
1766015879.844119,44
1766015879.8451169,44
1766015879.8461099,45
1766015879.847125,44
1766015879.848125,45
1766015879.849119,47
1766015879.850132,43
1766015879.8511229,43
1766015879.852136,41
1766015879.853164,43
1766015879.854164,44
1766015879.8552,44
1766015879.8562071,43
1766015879.857137,41
1766015879.8582022,43
1766015879.859189,41
1766015879.860199,41
1766015879.8612192,40
1766015879.8621829,44
1766015879.863192,45
1766015879.864188,42
1766015879.865185,44
1766015879.866184,41
1766015879.867181,43
1766015879.868182,42
1766015879.869194,44
1766015879.870197,43
1766015879.871198,45
1766015879.8721821,42
1766015879.8732002,42
1766015879.874211,43
1766015879.875194,41
1766015879.8762062,41
1766015879.877204,40
