timestamp,emg_value
1766015869.574465,40
1766015869.574485,38
1766015869.574502,37
1766015869.574518,36
1766015869.574534,40
1766015869.574551,38
1766015869.5745668,38
1766015869.574583,40
1766015869.5745978,40
1766015869.574613,38
1766015869.5746298,39
1766015869.574645,35
1766015869.574661,39
1766015869.574676,39
1766015869.574692,36
1766015869.574709,41
1766015869.5747242,38
1766015869.574742,41
1766015869.5747578,38
1766015869.574773,40
1766015869.574789,38
1766015869.574806,40
1766015869.574822,40
1766015869.574837,39
1766015869.574852,40
1766015869.574869,41
1766015869.5748842,40
1766015869.574899,39
1766015869.574914,40
1766015869.574931,40
1766015869.5749462,39
1766015869.574961,39
1766015869.574985,39
1766015869.575001,41
1766015869.575017,41
1766015869.575032,36
1766015869.575047,37
1766015869.575063,37
1766015869.57508,36
1766015869.575095,43
1766015869.57511,42
1766015869.575128,39
1766015869.5751429,42
1766015869.575158,39
1766015869.5751731,38
1766015869.57519,35
1766015869.575205,40
1766015869.5752199,39
1766015869.575236,41
1766015869.5752509,37
1766015869.575268,37
1766015869.575283,39
1766015869.575298,39
1766015869.575316,39
1766015869.5753322,36
1766015869.575347,39
1766015869.575362,37
1766015869.575385,39
1766015869.575403,39
1766015869.575419,39
1766015869.575435,41
1766015869.5754502,40
1766015869.5754628,40
1766015869.575476,39
1766015869.5754912,41
1766015869.5755079,39
1766015869.57552,39
1766015869.5755332,40
1766015869.575546,41
1766015869.575559,40
1766015869.575572,39
1766015869.5755851,39
1766015869.575598,41
1766015869.5756109,35
1766015869.575625,37
1766015869.57564,36
1766015869.575653,38
1766015869.575669,39
1766015869.5756822,38
1766015869.575695,36
1766015869.575708,38
1766015869.575721,38
1766015869.575734,37
1766015869.575747,39
1766015869.57576,37
1766015869.575773,41
1766015869.5757859,36
1766015869.575799,38
1766015869.575812,39
1766015869.5758238,39
1766015869.575837,34
1766015869.57585,42
1766015869.5758631,34
1766015869.575876,38
1766015869.5758898,37
1766015869.575904,38
1766015869.575917,40
1766015869.5759318,36
1766015869.575945,39
1766015869.575958,36
1766015869.575973,38
1766015869.5759869,40
1766015869.576001,37
1766015869.576014,38
1766015869.5760288,36
1766015869.576042,38
1766015869.5760572,35
1766015869.5760698,38
1766015869.576085,34
1766015869.5761049,35
1766015869.576118,37
1766015869.576131,39
1766015869.576144,36
1766015869.5761569,37
1766015869.576169,35
1766015869.576184,35
1766015869.5761971,36
1766015869.57621,37
1766015869.576223,35
1766015869.576235,36
1766015869.5762482,35
1766015869.576261,36
1766015869.576274,34
1766015869.5762858,35
1766015869.576299,33
1766015869.576312,31
1766015869.5763252,31
1766015869.5763369,35
1766015869.576352,35
1766015869.576375,33
1766015869.576392,34
1766015869.576405,34
1766015869.5764182,33
1766015869.57643,31
1766015869.576443,30
1766015869.576458,36
1766015869.576472,33
1766015869.5764852,33
1766015869.576498,32
1766015869.576511,37
1766015869.576524,34
1766015869.5765371,37
1766015869.57655,37
1766015869.576563,32
1766015869.576575,34
1766015869.576588,36
1766015869.576601,35
1766015869.576614,38
1766015869.5766258,35
1766015869.576639,34
1766015869.576652,35
1766015869.5766652,33
1766015869.5766778,36
1766015869.57669,34
1766015869.576703,36
1766015869.576716,30
1766015869.576729,36
1766015869.5767412,32
1766015869.5767539,35
1766015869.576768,34
1766015869.576781,34
1766015869.5767941,34
1766015869.576808,33
1766015869.576823,36
1766015869.5768352,35
1766015869.5768478,33
1766015869.576861,35
1766015869.576874,32
1766015869.576886,33
1766015869.576899,32
1766015869.576912,36
1766015869.576925,33
1766015869.576937,34
1766015869.576951,33
1766015869.5769632,34
1766015869.5769758,33
1766015869.576989,35
1766015869.577002,36
1766015869.577014,30
1766015869.5770292,30
1766015869.577041,32
1766015869.577054,32
1766015869.577067,32
1766015869.5770812,32
1766015869.5770938,35
1766015869.577107,33
1766015869.57712,33
1766015869.577139,34
1766015869.577152,29
1766015869.5771651,31
1766015869.577177,33
1766015869.5771909,34
1766015869.577209,34
1766015869.5772219,36
1766015869.577235,35
1766015869.57725,34
1766015869.577263,37
1766015869.577277,38
1766015869.5772889,37
1766015869.577303,35
1766015869.577323,39
1766015869.577336,37
1766015869.57735,34
1766015869.577369,35
1766015869.577384,36
1766015869.577399,34
1766015869.5774121,36
1766015869.5774238,34
1766015869.57744,35
1766015869.577452,34
1766015869.577467,33
1766015869.577481,36
1766015869.577493,36
1766015869.577506,34
1766015869.5775208,35
1766015869.577534,34
1766015869.577546,37
1766015869.577559,34
1766015869.577572,32
1766015869.577585,33
1766015869.577597,32
1766015869.57761,34
1766015869.5776231,34
1766015869.5776372,35
1766015869.577652,31
1766015869.577664,33
1766015869.577677,38
1766015869.5776918,35
1766015869.577705,38
1766015869.577718,37
1766015869.577738,35
1766015869.577759,33
1766015869.5777721,33
1766015869.577796,37
1766015869.577808,36
1766015869.577821,37
1766015869.577834,31
1766015869.577848,35
1766015869.5778701,33
1766015869.577884,37
1766015869.5778959,35
1766015869.577909,36
1766015869.577922,33
1766015869.5779352,35
1766015869.577947,32
1766015869.577973,35
1766015869.577986,34
1766015869.577999,33
1766015869.5780108,34
1766015869.578024,34
1766015869.578037,33
1766015869.5780501,35
1766015869.578075,32
1766015869.5780869,36
1766015869.5781,38
1766015869.578121,37
1766015869.578134,37
1766015869.578146,35
1766015869.578159,35
1766015869.578173,40
1766015869.578188,40
1766015869.5782,39
1766015869.5782132,38
1766015869.578229,38
1766015869.578242,38
1766015869.5782552,39
1766015869.5782669,38
1766015869.578281,37
1766015869.578294,38
1766015869.5783072,39
1766015869.578327,39
1766015869.57834,39
1766015869.578353,36
1766015869.578366,37
1766015869.578384,33
1766015869.578397,37
1766015869.57841,34
1766015869.578424,37
1766015869.578437,36
1766015869.578451,39
1766015869.578463,39
1766015869.578476,35
1766015869.578489,37
1766015869.578503,40
1766015869.578516,34
1766015869.5785291,36
1766015869.578542,38
1766015869.5785558,36
1766015869.578569,35
1766015869.578582,37
1766015869.578594,36
1766015869.57861,36
1766015869.578624,37
1766015869.5786371,39
1766015869.578651,33
1766015869.578666,38
1766015869.5786781,36
1766015869.578691,37
1766015869.5787039,37
1766015869.578717,35
1766015869.578729,37
1766015869.578742,36
1766015869.578756,37
1766015869.578769,35
1766015869.5787818,35
1766015869.578795,31
1766015869.578807,34
1766015869.57882,34
1766015869.5788329,36
1766015869.578859,33
1766015869.5788732,33
1766015869.5788941,32
1766015869.5789068,32
1766015869.5789208,34
1766015869.578934,37
1766015869.578947,34
1766015869.57896,32
1766015869.5789802,32
1766015869.5789928,35
1766015869.5790138,33
1766015869.579026,33
1766015869.5790389,33
1766015869.579052,32
1766015869.579066,31
1766015869.579097,33
1766015869.5791109,31
1766015869.579124,30
1766015869.579137,35
1766015869.57915,33
1766015869.5791628,34
1766015869.579175,33
1766015869.5791879,33
1766015869.579201,32
1766015869.579215,31
1766015869.579228,31
1766015869.5792398,33
1766015869.579253,31
1766015869.579266,35
1766015869.5792792,29
1766015869.5792909,32
1766015869.579304,29
1766015869.579317,33
1766015869.5793412,35
1766015869.579353,33
1766015869.579366,33
1766015869.579384,33
1766015869.5793972,30
1766015869.579411,32
1766015869.579424,31
1766015869.579438,34
1766015869.5794508,31
1766015869.579465,32
1766015869.579478,32
1766015869.5794911,33
1766015869.579504,29
1766015869.5795178,31
1766015869.57953,30
1766015869.5795462,30
1766015869.57956,34
1766015869.5795798,29
1766015869.579593,31
1766015869.579606,33
1766015869.579618,31
1766015869.579631,30
1766015869.579652,28
1766015869.5796638,31
1766015869.5796769,30
1766015869.57969,30
1766015869.579703,30
1766015869.5797231,30
1766015869.579736,28
1766015869.5797482,30
1766015869.579778,28
1766015869.579791,32
1766015869.579804,31
1766015869.579817,29
1766015869.57983,29
1766015869.579843,27
1766015869.5798552,30
1766015869.579869,30
1766015869.579884,30
1766015869.5798972,31
1766015869.5799098,31
1766015869.579922,29
1766015869.579935,30
1766015869.579948,31
1766015869.579961,28
1766015869.5799732,29
1766015869.579998,32
1766015869.580011,29
1766015869.580034,29
1766015869.5800462,33
1766015869.5800588,28
1766015869.580072,30
1766015869.580085,32
1766015869.580097,28
1766015869.58011,28
1766015869.580123,31
1766015869.580148,30
1766015869.580161,30
1766015869.580182,34
1766015869.5801961,29
1766015869.58021,30
1766015869.580224,33
1766015869.5802372,30
1766015869.58025,27
1766015869.5802639,28
1766015869.5802848,28
1766015869.580298,29
1766015869.580311,30
1766015869.5803242,30
1766015869.580338,30
1766015869.5803509,28
1766015869.5803719,30
1766015869.580393,29
1766015869.5804071,30
1766015869.580419,27
1766015869.580433,28
1766015869.5804448,27
1766015869.58046,28
1766015869.5804741,27
1766015869.5804858,27
1766015869.580501,29
1766015869.580516,30
1766015869.580529,29
1766015869.5805418,29
1766015869.580555,29
1766015869.580569,27
1766015869.580584,28
1766015869.580596,26
1766015869.580609,28
1766015869.5806222,28
1766015869.580634,27
1766015869.580647,27
1766015869.580668,26
1766015869.5806808,26
1766015869.5806952,29
1766015869.580708,27
1766015869.580721,26
1766015869.5807328,25
1766015869.580749,25
1766015869.5807612,28
1766015869.5807738,32
1766015869.580787,29
1766015869.5808,27
1766015869.580812,27
1766015869.580825,26
1766015869.580844,26
1766015869.580857,27
1766015869.5808692,26
1766015869.580883,26
1766015869.580897,30
1766015869.58091,27
1766015869.5809221,29
1766015869.580936,28
1766015869.5809522,24
1766015869.580967,27
1766015869.58098,27
1766015869.580993,26
1766015869.581006,26
1766015869.581019,26
1766015869.581032,28
1766015869.581047,28
1766015869.5810602,24
1766015869.581074,27
1766015869.581088,26
1766015869.581101,27
1766015869.581114,26
1766015869.581128,27
1766015869.58114,28
1766015869.581153,23
1766015869.581166,27
1766015869.581179,28
1766015869.581192,24
1766015869.581205,28
1766015869.581218,27
1766015869.581231,23
1766015869.5812428,24
1766015869.581256,28
1766015869.581269,25
1766015869.5812821,28
1766015869.581294,27
1766015869.5813088,22
1766015869.581322,26
1766015869.581335,27
1766015869.5813498,24
1766015869.581363,26
1766015869.581378,24
1766015869.581393,25
1766015869.581407,22
1766015869.58142,26
1766015869.581433,28
1766015869.581446,26
1766015869.581459,22
1766015869.581472,23
1766015869.581485,25
1766015869.5814981,26
1766015869.581511,25
1766015869.581524,21
1766015869.581537,25
1766015869.5815501,27
1766015869.581564,23
1766015869.581577,28
1766015869.58159,25
1766015869.581603,27
1766015869.5816152,27
1766015869.581629,24
1766015869.581642,26
1766015869.581698,27
1766015869.5817149,26
1766015869.581729,27
1766015869.581743,24
1766015869.5817559,23
1766015869.581769,24
1766015869.581782,22
1766015869.581795,25
1766015869.5818088,24
1766015869.581822,23
1766015869.581835,24
1766015869.581849,24
1766015869.581868,22
1766015869.581887,24
1766015869.581902,26
1766015869.581915,21
1766015869.581928,29
1766015869.581941,27
1766015869.581954,28
1766015869.581967,27
1766015869.58198,25
1766015869.5819929,28
1766015869.582006,24
1766015869.582019,26
1766015869.582032,26
1766015869.5820448,23
1766015869.582057,24
1766015869.582071,21
1766015869.5820842,24
1766015869.5820968,26
1766015869.582111,26
1766015869.582124,23
1766015869.582137,21
1766015869.582151,26
1766015869.582164,24
1766015869.582177,23
1766015869.58219,24
1766015869.5822022,23
1766015869.582216,22
1766015869.582228,22
1766015869.582241,27
1766015869.5822542,23
1766015869.5822668,23
1766015869.5822809,23
1766015869.582297,23
1766015869.582313,23
1766015869.582328,26
1766015869.5823412,27
1766015869.5823538,23
1766015869.582368,23
1766015869.582382,25
1766015869.5823958,22
1766015869.582408,22
1766015869.582421,22
1766015869.5824351,26
1766015869.5824482,23
1766015869.5824609,22
1766015869.582474,25
1766015869.582488,24
1766015869.5825012,25
1766015869.5825138,26
1766015869.582527,24
1766015869.58254,22
1766015869.5825531,22
1766015869.5825658,22
1766015869.5825799,24
1766015869.582593,23
1766015869.582606,22
1766015869.58262,26
1766015869.582633,25
1766015869.5826461,22
1766015869.582659,23
1766015869.5826719,25
1766015869.582686,25
1766015869.5826979,20
1766015869.582711,24
1766015869.582724,23
1766015869.582742,21
1766015869.582756,22
1766015869.5827699,24
1766015869.582784,25
1766015869.582797,26
1766015869.5828102,26
1766015869.5828228,24
1766015869.582836,25
1766015869.5828512,24
1766015869.5828638,23
1766015869.582877,21
1766015869.582891,28
1766015869.582904,22
1766015869.5829172,25
1766015869.5829298,24
1766015869.582943,23
1766015869.582956,24
1766015869.5829692,23
1766015869.5829818,22
1766015869.582995,23
1766015869.583008,24
1766015869.5830212,20
1766015869.583034,25
1766015869.583047,22
1766015869.58306,23
1766015869.5830731,22
1766015869.583086,27
1766015869.583099,22
1766015869.583112,24
1766015869.583126,23
1766015869.583138,25
1766015869.583151,24
1766015869.583166,24
1766015869.583182,25
1766015869.583195,23
1766015869.583209,24
1766015869.583223,25
1766015869.583236,25
1766015869.5832489,21
1766015869.583262,25
1766015869.583275,23
1766015869.5832891,23
1766015869.5833018,22
1766015869.583315,22
1766015869.583356,25
1766015869.583389,23
1766015869.5834281,23
1766015869.583442,23
1766015869.583453,23
1766015869.5834649,23
1766015869.583476,22
1766015869.583488,24
1766015869.583499,23
1766015869.583511,26
1766015869.583522,22
1766015869.583534,24
1766015869.583545,22
1766015869.5835571,23
1766015869.5835679,23
1766015869.5835788,25
1766015869.5835898,24
1766015869.583602,24
1766015869.583613,23
1766015869.583624,26
1766015869.583636,23
1766015869.58365,25
1766015869.583662,20
1766015869.5836742,29
1766015869.5836852,27
1766015869.583696,24
1766015869.5837078,23
1766015869.583719,22
1766015869.58373,26
1766015869.583741,26
1766015869.5837529,26
1766015869.583764,23
1766015869.583775,23
1766015869.583787,22
1766015869.583798,23
1766015869.5838091,21
1766015869.583821,23
1766015869.583832,26
1766015869.583843,23
1766015869.5838552,22
1766015869.5838661,23
1766015869.5838778,28
1766015869.583889,25
1766015869.583901,25
1766015869.583915,21
1766015869.5839272,27
1766015869.5839381,25
1766015869.583949,24
1766015869.583961,25
1766015869.583972,22
1766015869.5839832,24
1766015869.5839942,22
1766015869.5840058,24
1766015869.5840168,25
1766015869.5840309,25
1766015869.584043,25
1766015869.584054,24
1766015869.584065,26
1766015869.5840771,25
1766015869.584088,23
1766015869.584099,25
1766015869.58411,22
1766015869.5841222,24
1766015869.5841331,20
1766015869.5841439,22
1766015869.5841548,25
1766015869.584167,23
1766015869.584178,25
1766015869.58419,25
1766015869.5842009,23
1766015869.584212,25
1766015869.584224,26
1766015869.584235,23
1766015869.584246,25
1766015869.584258,24
1766015869.584269,24
1766015869.58428,27
1766015869.584291,20
1766015869.5843031,23
1766015869.584314,25
1766015869.5843258,26
1766015869.584337,23
1766015869.584353,21
1766015869.584364,27
1766015869.5843751,24
1766015869.584388,21
1766015869.584401,24
1766015869.584451,22
1766015869.5844648,23
1766015869.584477,25
1766015869.5844889,25
1766015869.584501,25
1766015869.584512,22
1766015869.584524,25
1766015869.584536,25
1766015869.584547,27
1766015869.5845592,24
1766015869.5845702,26
1766015869.5845811,24
1766015869.5845928,24
1766015869.5846038,24
1766015869.584615,25
1766015869.584627,29
1766015869.5846379,24
1766015869.58465,23
1766015869.584661,26
1766015869.584673,23
1766015869.5846841,26
1766015869.584695,27
1766015869.584707,25
1766015869.584718,29
1766015869.5847301,25
1766015869.584741,26
1766015869.584752,27
1766015869.584765,28
1766015869.584776,28
1766015869.584787,25
1766015869.5847979,25
1766015869.58481,27
1766015869.5848262,24
1766015869.584838,24
1766015869.5848498,23
1766015869.584861,24
1766015869.584873,28
1766015869.584884,24
1766015869.584895,28
1766015869.584907,27
1766015869.584919,29
1766015869.58493,26
1766015869.5849411,28
1766015869.584953,28
1766015869.584964,25
1766015869.584979,26
1766015869.58499,29
1766015869.585003,27
1766015869.585014,28
1766015869.585025,25
1766015869.585037,25
1766015869.585048,26
1766015869.5850601,28
1766015869.585071,25
1766015869.585082,25
1766015869.585094,28
1766015869.585106,24
1766015869.5851169,25
1766015869.5851278,27
1766015869.585141,23
1766015869.585153,24
1766015869.585164,29
1766015869.585176,22
1766015869.5851882,24
1766015869.585199,27
1766015869.585215,25
1766015869.585228,26
1766015869.585241,26
1766015869.5852532,24
1766015869.5852642,24
1766015869.585275,25
1766015869.5852869,28
1766015869.585299,29
1766015869.585312,24
1766015869.585325,29
1766015869.585336,21
1766015869.5853481,26
1766015869.585359,24
1766015869.58537,23
1766015869.585383,23
1766015869.5853949,25
1766015869.585408,27
1766015869.5854201,26
1766015869.585432,24
1766015869.585443,28
1766015869.585454,27
1766015869.5854652,26
1766015869.585477,26
1766015869.5854878,27
1766015869.5854988,27
1766015869.585511,27
1766015869.585522,26
1766015869.5855339,27
1766015869.585545,26
1766015869.585556,27
1766015869.585568,25
1766015869.585579,26
1766015869.585592,26
1766015869.5856059,26
1766015869.585618,30
1766015869.585629,23
1766015869.585641,26
1766015869.5856519,27
1766015869.585664,26
1766015869.585675,28
1766015869.585686,28
1766015869.5856981,28
1766015869.58571,26
1766015869.585721,24
1766015869.585732,23
1766015869.585744,22
1766015869.5857558,24
1766015869.585767,28
1766015869.585778,24
1766015869.58579,24
1766015869.585802,24
1766015869.585813,26
1766015869.585825,30
1766015869.585836,24
1766015869.585848,26
1766015869.585859,24
1766015869.58587,26
1766015869.5858822,26
1766015869.5858939,27
1766015869.5859048,25
1766015869.5859158,26
1766015869.585928,26
1766015869.585939,25
1766015869.58595,27
1766015869.585962,23
1766015869.5859761,28
1766015869.585988,28
1766015869.586,25
1766015869.586011,28
1766015869.586022,26
1766015869.5860338,27
1766015869.586046,28
1766015869.586057,30
1766015869.586068,29
1766015869.58608,29
1766015869.586091,27
1766015869.586102,27
1766015869.586114,26
1766015869.5861251,24
1766015869.586137,25
1766015869.5861492,30
1766015869.586161,28
1766015869.5861719,27
1766015869.586184,27
1766015869.586195,26
1766015869.586206,29
1766015869.5862179,29
1766015869.58623,29
1766015869.586241,30
1766015869.586252,27
1766015869.5862641,23
1766015869.586275,28
1766015869.586287,29
1766015869.5862982,29
1766015869.58631,29
1766015869.5863209,25
1766015869.5863318,27
1766015869.5863428,26
1766015869.586359,30
1766015869.58637,26
1766015869.586381,26
1766015869.586393,25
1766015869.586404,27
1766015869.586418,28
1766015869.5864289,24
1766015869.586441,27
1766015869.586452,28
1766015869.586464,26
1766015869.586475,26
1766015869.586487,25
1766015869.586499,29
1766015869.5865102,28
1766015869.5865211,26
1766015869.586533,27
1766015869.586544,27
1766015869.5865548,29
1766015869.586567,27
1766015869.586578,26
1766015869.58659,28
1766015869.586601,27
1766015869.586612,27
1766015869.586623,28
1766015869.586635,30
1766015869.586646,28
1766015869.586658,29
1766015869.586669,24
1766015869.5866811,25
1766015869.586692,28
1766015869.586703,24
1766015869.586715,26
1766015869.5867279,28
1766015869.586742,29
1766015869.586754,27
1766015869.586766,27
1766015869.586777,29
1766015869.5867891,26
1766015869.5868,28
1766015869.5868108,28
1766015869.586823,26
1766015869.5868359,28
1766015869.586849,24
1766015869.5868611,28
1766015869.586872,27
1766015869.586883,28
1766015869.586895,27
1766015869.586907,31
1766015869.5869179,26
1766015869.58693,26
1766015869.586941,25
1766015869.586952,31
1766015869.586964,29
1766015869.5869749,28
1766015869.586986,27
1766015869.586998,28
1766015869.587009,28
1766015869.587021,27
1766015869.587032,25
1766015869.587044,26
1766015869.5870562,27
1766015869.587067,29
1766015869.5870779,29
1766015869.587091,27
1766015869.587104,28
1766015869.5871181,28
1766015869.587129,25
1766015869.587141,26
1766015869.5871518,30
1766015869.587164,27
1766015869.587175,29
1766015869.587187,25
1766015869.587198,28
1766015869.58721,26
1766015869.587222,30
1766015869.587233,25
1766015869.587245,29
1766015869.5872571,27
1766015869.587268,30
1766015869.5872798,28
1766015869.587292,24
1766015869.587303,23
1766015869.587314,30
1766015869.587326,26
1766015869.587337,28
1766015869.587349,27
1766015869.58736,28
1766015869.58737,28
1766015869.58738,28
1766015869.587391,30
1766015869.5874019,31
1766015869.587413,30
1766015869.587424,27
1766015869.587435,31
1766015869.587446,29
1766015869.587456,29
1766015869.587467,28
1766015869.587478,26
1766015869.58749,31
1766015869.587501,30
1766015869.587511,29
1766015869.587521,28
1766015869.587531,29
1766015869.587542,31
1766015869.587553,28
1766015869.587564,30
1766015869.587574,30
1766015869.587584,29
1766015869.587594,31
1766015869.587604,31
1766015869.587614,31
1766015869.587625,29
1766015869.587635,29
1766015869.5876448,27
1766015869.5876548,30
1766015869.5876648,28
1766015869.5876758,31
1766015869.587687,29
1766015869.5876968,30
1766015869.587708,30
1766015869.5877178,26
1766015869.5877278,27
1766015869.587738,29
1766015869.587748,30
1766015869.587758,28
1766015869.587768,32
1766015869.587778,29
1766015869.587789,31
1766015869.587799,26
1766015869.587809,27
1766015869.587821,27
1766015869.587832,29
1766015869.587842,30
1766015869.587852,31
1766015869.587862,30
1766015869.587872,26
1766015869.587883,28
1766015869.587893,30
1766015869.587903,30
1766015869.587913,28
1766015869.587923,28
1766015869.5879328,31
1766015869.587944,27
1766015869.5879538,27
1766015869.5879638,29
1766015869.5879738,27
1766015869.5879848,26
1766015869.5879948,29
1766015869.588005,28
1766015869.588015,29
1766015869.588028,28
1766015869.588038,26
1766015869.588049,26
1766015869.588059,28
1766015869.5880692,29
1766015869.5880792,29
1766015869.5880902,31
1766015869.5881002,30
1766015869.58811,25
1766015869.58812,27
1766015869.5881312,25
1766015869.588141,28
1766015869.588151,30
1766015869.588164,27
1766015869.588174,27
1766015869.588184,25
1766015869.5881941,28
1766015869.5882041,29
1766015869.588215,27
1766015869.5882251,29
1766015869.588235,24
1766015869.588246,29
1766015869.588256,27
1766015869.588266,26
1766015869.588276,28
1766015869.5882869,29
1766015869.588297,26
1766015869.588307,27
1766015869.5883179,28
1766015869.588328,27
1766015869.588338,26
1766015869.5883489,27
1766015869.5883589,26
1766015869.588369,25
1766015869.588379,28
1766015869.5883899,27
1766015869.5884001,28
1766015869.5884101,29
1766015869.5884202,29
1766015869.5884302,30
1766015869.5884411,30
1766015869.5884511,28
1766015869.5884612,27
1766015869.588471,27
1766015869.588481,28
1766015869.588492,28
1766015869.5885031,27
1766015869.5885131,23
1766015869.588523,29
1766015869.588534,28
1766015869.588544,26
1766015869.588554,30
1766015869.588564,27
1766015869.588575,31
1766015869.588585,28
1766015869.588595,26
1766015869.588605,29
1766015869.588616,28
1766015869.588626,26
1766015869.5886369,26
1766015869.588647,27
1766015869.588657,28
1766015869.588667,23
1766015869.5886772,26
1766015869.5886872,28
1766015869.5886981,25
1766015869.5887082,24
1766015869.5887182,28
1766015869.588728,30
1766015869.5887392,27
1766015869.588751,29
1766015869.588762,25
1766015869.588774,27
1766015869.5887842,26
1766015869.588794,27
1766015869.588804,27
1766015869.588814,27
1766015869.588824,26
1766015869.5888362,24
1766015869.5888488,27
1766015869.5888598,28
1766015869.5888698,27
1766015869.5888798,26
1766015869.58889,27
1766015869.5889,30
1766015869.58891,26
1766015869.58892,28
1766015869.5889301,26
1766015869.5889401,28
1766015869.58895,27
1766015869.58896,27
1766015869.588971,26
1766015869.588981,28
1766015869.588991,31
1766015869.589001,28
1766015869.589011,30
1766015869.5890229,25
1766015869.589034,31
1766015869.5890439,31
1766015869.5890539,30
1766015869.589064,27
1766015869.589074,30
1766015869.589084,28
1766015869.589094,27
1766015869.589105,31
1766015869.5891159,28
1766015869.5891268,28
1766015869.5891368,28
1766015869.5891469,26
1766015869.589157,28
1766015869.589167,31
1766015869.58918,28
1766015869.58919,27
1766015869.5891998,26
1766015869.58921,26
1766015869.5892212,29
1766015869.589231,30
1766015869.589241,28
1766015869.589251,28
1766015869.589324,26
1766015869.589358,29
1766015869.589369,29
1766015869.589382,26
1766015869.5893939,27
1766015869.589416,27
1766015869.589428,28
1766015869.5895,27
1766015869.5896242,26
1766015869.589679,29
1766015869.5896971,29
1766015869.58971,27
1766015869.5897229,24
1766015869.589736,25
1766015869.589749,25
1766015869.589762,30
1766015869.5897741,27
1766015869.5897868,29
1766015869.5898,28
1766015869.589813,26
1766015869.589825,26
1766015869.589838,26
1766015869.589851,26
1766015869.5898628,27
1766015869.58988,26
1766015869.5898938,27
1766015869.589907,28
1766015869.589919,26
1766015869.589932,27
1766015869.590019,24
1766015869.590036,27
1766015869.590049,29
1766015869.5900621,26
1766015869.5900748,27
1766015869.5900888,28
1766015869.590101,27
1766015869.590115,29
1766015869.5901282,28
1766015869.5901408,25
1766015869.590154,29
1766015869.590167,25
1766015869.5901802,28
1766015869.5901928,23
1766015869.590205,26
1766015869.590218,25
1766015869.590231,24
1766015869.590244,29
1766015869.5902662,26
1766015869.5902789,25
1766015869.590292,28
1766015869.590304,26
1766015869.590317,29
1766015869.5903301,29
1766015869.590343,27
1766015869.590355,26
1766015869.590368,27
1766015869.5903811,28
1766015869.5903978,25
1766015869.590411,27
1766015869.590424,28
1766015869.5904372,29
1766015869.5904498,27
1766015869.590463,26
1766015869.590476,25
1766015869.5904891,30
1766015869.5905018,28
1766015869.590515,23
1766015869.590527,29
1766015869.59054,25
1766015869.590553,29
1766015869.590566,27
1766015869.5905778,30
1766015869.5905979,27
1766015869.590611,27
1766015869.590624,28
1766015869.590637,25
1766015869.59065,28
1766015869.590662,25
1766015869.5906749,28
1766015869.590688,30
1766015869.590701,26
1766015869.5907142,27
1766015869.5907269,28
1766015869.590739,29
1766015869.590752,30
1766015869.590765,26
1766015869.590778,26
1766015869.5909078,27
1766015869.590962,27
1766015869.590979,27
1766015869.5909948,26
1766015869.591007,27
1766015869.591018,24
1766015869.591028,27
1766015869.591037,27
1766015869.5910468,24
1766015869.5910568,26
1766015869.591072,25
1766015869.591083,28
1766015869.5911129,27
1766015869.591125,29
1766015869.591135,28
1766015869.591146,26
1766015869.591158,26
1766015869.5912,30
1766015869.591221,27
1766015869.5912352,29
1766015869.5912452,27
1766015869.591255,31
1766015869.591265,24
1766015869.591275,27
1766015869.591357,28
1766015869.591402,30
1766015869.5914261,29
1766015869.59144,29
1766015869.5914528,29
1766015869.591468,27
1766015869.59148,24
1766015869.5915,27
1766015869.5915132,28
1766015869.5915258,30
1766015869.591539,27
1766015869.591555,28
1766015869.591569,28
1766015869.5915809,28
1766015869.591594,27
1766015869.591607,30
1766015869.5916202,30
1766015869.5916328,26
1766015869.591645,26
1766015869.591666,29
1766015869.591678,27
1766015869.591691,31
1766015869.5917041,28
1766015869.591717,30
1766015869.591729,31
1766015869.591742,29
1766015869.591755,26
1766015869.591767,26
1766015869.5917802,27
1766015869.5917928,31
1766015869.5918121,26
1766015869.5918238,27
1766015869.591837,29
1766015869.59185,24
1766015869.591862,28
1766015869.591875,28
1766015869.591888,25
1766015869.5918999,31
1766015869.591913,29
1766015869.5919318,28
1766015869.591945,29
1766015869.591958,28
1766015869.5919712,29
1766015869.591984,30
1766015869.5920022,26
1766015869.592015,30
1766015869.592028,30
1766015869.5920472,28
1766015869.5920682,27
1766015869.5920808,29
1766015869.592093,27
1766015869.592173,29
1766015869.592192,28
1766015869.592205,27
1766015869.5922182,27
1766015869.5922308,29
1766015869.592243,28
1766015869.592256,29
1766015869.592269,28
1766015869.592282,28
1766015869.592294,27
1766015869.5923069,28
1766015869.592319,28
1766015869.5923321,27
1766015869.592345,29
1766015869.5923572,26
1766015869.59237,25
1766015869.592383,30
1766015869.592395,29
1766015869.5924082,27
1766015869.592421,27
1766015869.592433,28
1766015869.5924459,27
1766015869.592458,25
1766015869.5924711,24
1766015869.592484,29
1766015869.5924969,25
1766015869.59252,31
1766015869.592532,26
1766015869.592545,28
1766015869.592566,26
1766015869.592578,29
1766015869.592591,29
1766015869.592604,28
1766015869.5926158,28
1766015869.592632,26
1766015869.5926452,28
1766015869.5926578,26
1766015869.59267,28
1766015869.592688,30
1766015869.5927,28
1766015869.5927129,29
1766015869.592725,30
1766015869.5927382,29
1766015869.59275,26
1766015869.592763,28
1766015869.5927749,29
1766015869.592788,29
1766015869.592801,27
1766015869.592813,27
1766015869.5928252,25
1766015869.592847,27
1766015869.59286,27
1766015869.5928729,29
1766015869.592885,26
1766015869.5928981,24
1766015869.59292,30
1766015869.5929332,28
1766015869.5929458,27
1766015869.592961,27
1766015869.5929759,26
1766015869.592988,25
1766015869.593001,28
1766015869.593014,25
1766015869.593027,24
1766015869.593039,29
1766015869.593052,26
1766015869.593067,27
1766015869.59308,25
1766015869.5930922,27
1766015869.5931132,29
1766015869.593125,27
1766015869.593138,26
1766015869.593151,28
1766015869.593163,25
1766015869.5931761,28
1766015869.593188,27
1766015869.593201,30
1766015869.593214,30
1766015869.593226,23
1766015869.593239,26
1766015869.59325,29
1766015869.593261,30
1766015869.593271,26
1766015869.593282,27
1766015869.593293,27
1766015869.593303,26
1766015869.593314,27
1766015869.593324,25
1766015869.5933352,23
1766015869.593345,26
1766015869.5933561,25
1766015869.5933728,24
1766015869.5933938,25
1766015869.593411,27
1766015869.5934222,26
1766015869.5934348,25
1766015869.593445,25
1766015869.593456,27
1766015869.593466,25
1766015869.593477,27
1766015869.593488,28
1766015869.5934982,28
1766015869.593508,26
1766015869.5935192,27
1766015869.593529,28
1766015869.5935402,27
1766015869.59355,27
1766015869.5935612,26
1766015869.5935712,27
1766015869.5935822,30
1766015869.5935922,26
1766015869.5936031,24
1766015869.5936131,28
1766015869.593624,27
1766015869.5936341,24
1766015869.593645,26
1766015869.593655,27
1766015869.593666,27
1766015869.593676,26
1766015869.593686,25
1766015869.593697,26
1766015869.593707,27
1766015869.593717,28
1766015869.593728,26
1766015869.5937421,27
1766015869.593754,27
1766015869.593765,24
1766015869.5937762,24
1766015869.593786,24
1766015869.593796,24
1766015869.5938072,24
1766015869.5938182,23
1766015869.5938282,25
1766015869.5938392,24
1766015869.5938492,25
1766015869.5938601,26
1766015869.593871,24
1766015869.5938811,24
1766015869.5938911,28
1766015869.593902,27
1766015869.5939121,23
1766015869.593923,28
1766015869.593933,25
1766015869.593943,25
1766015869.593954,29
1766015869.593965,25
1766015869.593975,23
1766015869.593986,27
1766015869.593996,25
1766015869.594007,28
1766015869.594017,25
1766015869.594028,27
1766015869.594039,28
1766015869.59405,22
1766015869.594062,24
1766015869.594072,25
1766015869.594083,25
1766015869.594093,27
1766015869.594107,27
1766015869.5941188,29
1766015869.5941298,24
1766015869.5941398,27
1766015869.594151,25
1766015869.5941608,26
1766015869.594172,27
1766015869.5941818,27
1766015869.594193,27
1766015869.594203,26
1766015869.594214,27
1766015869.5942242,29
1766015869.594235,28
1766015869.5942452,25
1766015869.5942552,27
1766015869.5942662,28
1766015869.5942762,24
1766015869.5942872,24
1766015869.5942981,29
1766015869.594309,25
1766015869.5943198,23
1766015869.59433,28
1766015869.594341,25
1766015869.594351,25
1766015869.594362,25
1766015869.594374,31
1766015869.594385,26
1766015869.594395,27
1766015869.594406,24
1766015869.5944161,23
1766015869.5944269,29
1766015869.5944378,26
1766015869.5944479,27
1766015869.5944629,28
1766015869.594475,25
1766015869.594486,25
1766015869.594496,28
1766015869.594507,23
1766015869.594517,26
1766015869.594528,27
1766015869.594538,28
1766015869.594548,26
1766015869.594559,28
1766015869.59457,25
1766015869.594581,27
1766015869.594591,24
1766015869.5946019,25
1766015869.594612,24
1766015869.594623,28
1766015869.5946329,26
1766015869.594644,27
1766015869.5946538,22
1766015869.594665,25
1766015869.594676,24
1766015869.594686,24
1766015869.594697,24
1766015869.594707,25
1766015869.594718,26
1766015869.594728,27
1766015869.594739,26
1766015869.594749,24
1766015869.59476,27
1766015869.594775,27
1766015869.594785,26
1766015869.594796,27
1766015869.594806,29
1766015869.594819,27
1766015869.594832,28
1766015869.5948422,26
1766015869.5948522,25
1766015869.5948632,24
1766015869.5948732,25
1766015869.5948842,24
1766015869.5948942,26
1766015869.5949051,25
1766015869.5949152,27
1766015869.594926,24
1766015869.5949361,26
1766015869.594947,25
1766015869.594957,28
1766015869.594968,26
1766015869.594978,26
1766015869.594989,25
1766015869.594999,28
1766015869.59501,27
1766015869.59502,25
1766015869.595031,25
1766015869.595041,24
1766015869.595052,24
1766015869.595062,26
1766015869.595073,25
1766015869.595083,26
1766015869.595094,26
1766015869.595104,25
1766015869.595115,26
1766015869.595125,23
1766015869.595136,26
1766015869.595146,27
1766015869.595157,23
1766015869.59517,26
1766015869.5951831,26
1766015869.595194,26
1766015869.595205,26
1766015869.595215,25
1766015869.595226,27
1766015869.595236,27
1766015869.595247,27
1766015869.595257,21
1766015869.595268,25
1766015869.595278,27
1766015869.595288,26
1766015869.595299,25
1766015869.595309,26
1766015869.59532,22
1766015869.59533,27
1766015869.595341,26
1766015869.5953522,26
1766015869.5953631,26
1766015869.595374,23
1766015869.595385,22
1766015869.595395,26
1766015869.595406,25
1766015869.595417,26
1766015869.595427,25
1766015869.595437,25
1766015869.595448,25
1766015869.595459,23
1766015869.595469,23
1766015869.59548,26
1766015869.59549,24
1766015869.595501,25
1766015869.5955122,23
1766015869.595525,26
1766015869.595538,23
1766015869.59555,22
1766015869.5955598,25
1766015869.595571,23
1766015869.5955808,24
1766015869.595592,25
1766015869.595602,22
1766015869.595613,24
1766015869.595623,22
1766015869.595634,23
1766015869.595645,21
1766015869.595655,26
1766015869.595666,22
1766015869.595676,22
1766015869.595687,23
1766015869.5956979,25
1766015869.595708,23
1766015869.5957189,23
1766015869.5957289,25
1766015869.5957398,25
1766015869.5957499,21
1766015869.5957608,25
1766015869.5957708,23
1766015869.5957818,23
1766015869.595793,25
1766015869.5958028,24
1766015869.595813,21
1766015869.5958242,22
1766015869.595834,24
1766015869.5958452,22
1766015869.595856,23
1766015869.5958662,26
1766015869.595876,23
1766015869.5958898,25
1766015869.595904,25
1766015869.595915,22
1766015869.595925,21
1766015869.595936,26
1766015869.595947,23
1766015869.595957,24
1766015869.595968,26
1766015869.595978,24
1766015869.595989,24
1766015869.596,23
1766015869.59601,22
1766015869.596021,24
1766015869.596032,20
1766015869.596042,23
1766015869.596053,24
1766015869.596064,24
1766015869.5960739,24
1766015869.596085,25
1766015869.596096,24
1766015869.596106,23
1766015869.596117,22
1766015869.596127,25
1766015869.596138,23
1766015869.596149,22
1766015869.596159,25
1766015869.59617,23
1766015869.596181,22
1766015869.596191,26
1766015869.596202,25
1766015869.596212,25
1766015869.5962229,25
1766015869.596233,21
1766015869.596247,21
1766015869.59626,28
1766015869.59627,22
1766015869.596281,26
1766015869.596292,23
1766015869.596302,23
1766015869.596313,23
1766015869.596323,24
1766015869.596334,23
1766015869.5963452,21
1766015869.596355,22
1766015869.5963662,25
1766015869.5963771,22
1766015869.5963871,21
1766015869.596398,24
1766015869.596409,23
1766015869.596419,24
1766015869.59643,23
1766015869.59644,22
1766015869.596451,24
1766015869.596462,24
1766015869.596472,21
1766015869.596483,25
1766015869.596493,24
1766015869.596504,24
1766015869.5965152,22
1766015869.596525,24
1766015869.5965362,21
1766015869.596546,24
1766015869.5965571,24
1766015869.596568,22
1766015869.5965781,26
1766015869.596589,25
1766015869.5966039,24
1766015869.596617,25
1766015869.596627,23
1766015869.596638,23
1766015869.596649,21
1766015869.596659,23
1766015869.59667,24
1766015869.59668,23
1766015869.596691,21
1766015869.5967019,26
1766015869.5967119,23
1766015869.5967228,19
1766015869.596734,19
1766015869.5967438,24
1766015869.596755,23
1766015869.596766,22
1766015869.596776,26
1766015869.596787,22
1766015869.596797,22
1766015869.596808,20
1766015869.596819,25
1766015869.596829,20
1766015869.59684,24
1766015869.59685,22
1766015869.596861,25
1766015869.596871,25
1766015869.5968819,24
1766015869.5968928,23
1766015869.5969028,24
1766015869.5969138,25
1766015869.596925,25
1766015869.5969348,22
1766015869.596946,19
1766015869.5969589,21
1766015869.596973,23
1766015869.5969841,21
1766015869.596995,20
1766015869.5970051,19
1766015869.597016,20
1766015869.597027,22
1766015869.597037,22
1766015869.597048,24
1766015869.597058,23
1766015869.597069,24
1766015869.59708,22
1766015869.59709,23
1766015869.597101,21
1766015869.597111,23
1766015869.597122,21
1766015869.597132,22
1766015869.597143,21
1766015869.5971541,21
1766015869.597164,21
1766015869.5971751,22
1766015869.597186,26
1766015869.597196,21
1766015869.597207,23
1766015869.597217,22
1766015869.597228,20
1766015869.597237,24
1766015869.597247,26
1766015869.597256,21
1766015869.597265,23
1766015869.597274,23
1766015869.5972831,20
1766015869.597292,23
1766015869.597304,21
1766015869.597313,21
1766015869.5973241,22
1766015869.597333,20
1766015869.597342,20
1766015869.5973508,20
1766015869.5973601,19
1766015869.5973701,23
1766015869.597379,21
1766015869.597388,19
1766015869.597397,20
1766015869.597406,23
1766015869.597416,22
1766015869.597425,22
1766015869.597434,20
1766015869.597444,21
1766015869.597453,20
1766015869.597462,20
1766015869.597471,22
1766015869.5974798,24
1766015869.5974889,19
1766015869.5974982,19
1766015869.5975082,22
1766015869.597517,24
1766015869.597526,20
1766015869.597536,21
1766015869.597545,20
1766015869.597554,21
1766015869.5975628,19
1766015869.597572,22
1766015869.597582,20
1766015869.597591,20
1766015869.5976,22
1766015869.597609,23
1766015869.597621,23
1766015869.5976331,21
1766015869.597642,20
1766015869.597651,21
1766015869.5976598,23
1766015869.5976698,23
1766015869.5976791,21
1766015869.597688,21
1766015869.597697,23
1766015869.597706,23
1766015869.597715,18
1766015869.597724,23
1766015869.597733,22
1766015869.597742,24
1766015869.597752,22
1766015869.597761,22
1766015869.59777,23
1766015869.597779,21
1766015869.5977879,21
1766015869.5977979,24
1766015869.5978072,23
1766015869.597816,23
1766015869.597825,23
1766015869.5978339,24
1766015869.597844,22
1766015869.597853,24
1766015869.597862,20
1766015869.597871,23
1766015869.5978801,26
1766015869.597889,25
1766015869.597899,22
1766015869.597908,28
1766015869.5979168,22
1766015869.597929,23
1766015869.597939,22
1766015869.59795,24
1766015869.5979588,24
1766015869.5979679,25
1766015869.5979772,23
1766015869.597986,22
1766015869.597995,26
1766015869.598005,25
1766015869.5980139,24
1766015869.598024,24
1766015869.598033,24
1766015869.598043,23
1766015869.598052,24
1766015869.598061,26
1766015869.59807,26
1766015869.59808,24
1766015869.598089,24
1766015869.5980978,24
1766015869.5981069,23
1766015869.5981162,27
1766015869.5981262,20
1766015869.598135,23
1766015869.598144,28
1766015869.5981529,27
1766015869.598162,23
1766015869.598171,24
1766015869.59818,27
1766015869.598189,28
1766015869.598198,28
1766015869.598207,26
1766015869.5982158,23
1766015869.5982249,24
1766015869.5982342,25
1766015869.5982459,25
1766015869.5982568,27
1766015869.5982661,26
1766015869.5982752,25
1766015869.598284,27
1766015869.598293,27
1766015869.598302,28
1766015869.598311,27
1766015869.5983202,29
1766015869.59833,27
1766015869.598339,26
1766015869.5983481,23
1766015869.598357,26
1766015869.598367,22
1766015869.598377,28
1766015869.5983858,26
1766015869.5983949,29
1766015869.5984042,27
1766015869.598413,27
1766015869.598423,26
1766015869.598432,26
1766015869.598441,27
1766015869.59845,30
1766015869.5984588,32
1766015869.598468,30
1766015869.598478,30
1766015869.5984871,27
1766015869.598496,27
1766015869.598505,29
1766015869.5985138,27
1766015869.5985239,25
1766015869.5985332,26
1766015869.598542,26
1766015869.5985541,27
1766015869.5985641,31
1766015869.5985742,27
1766015869.598583,30
1766015869.598592,26
1766015869.5986009,29
1766015869.59861,29
1766015869.598619,28
1766015869.5986292,29
1766015869.598638,30
1766015869.598647,29
1766015869.598656,27
1766015869.598665,28
1766015869.5986738,30
1766015869.5986829,27
1766015869.5986922,26
1766015869.5987022,25
1766015869.598711,31
1766015869.59872,26
1766015869.598729,28
1766015869.598738,28
1766015869.5987468,27
1766015869.598757,30
1766015869.598766,30
1766015869.5987751,28
1766015869.598784,30
1766015869.598794,32
1766015869.598803,29
1766015869.5988119,30
1766015869.5988212,28
1766015869.59883,28
1766015869.59884,31
1766015869.598849,27
1766015869.5988579,31
1766015869.598867,28
1766015869.598876,29
1766015869.5988858,29
1766015869.598895,32
1766015869.5989041,32
1766015869.598913,31
1766015869.598922,32
1766015869.5989308,30
1766015869.5989408,29
1766015869.59895,32
1766015869.5989592,32
1766015869.5989702,31
1766015869.598979,30
1766015869.598988,29
1766015869.598998,30
1766015869.599007,30
1766015869.599017,30
1766015869.599026,30
1766015869.5990348,31
1766015869.599044,29
1766015869.599054,31
1766015869.5990632,32
1766015869.599072,31
1766015869.599081,30
1766015869.5990899,30
1766015869.599099,31
1766015869.599108,28
1766015869.599117,32
1766015869.599126,31
1766015869.599135,31
1766015869.599145,34
1766015869.599154,31
1766015869.5991628,30
1766015869.599172,29
1766015869.599181,31
1766015869.59919,30
1766015869.5992,27
1766015869.599209,33
1766015869.599218,35
1766015869.599227,31
1766015869.5992372,31
1766015869.599246,32
1766015869.599255,30
1766015869.599264,30
1766015869.599273,29
1766015869.599282,32
1766015869.5992918,30
1766015869.599301,30
1766015869.5993102,30
1766015869.599319,29
1766015869.599328,31
1766015869.5993369,32
1766015869.599346,30
1766015869.599355,32
1766015869.5993652,29
1766015869.599374,33
1766015869.599383,31
1766015869.5993931,32
1766015869.599402,29
1766015869.599411,30
1766015869.5994198,29
1766015869.5994298,28
1766015869.5994399,32
1766015869.5994492,32
1766015869.599458,30
1766015869.599468,31
1766015869.599477,27
1766015869.5994859,32
1766015869.599495,30
1766015869.5995038,30
1766015869.599513,31
1766015869.599523,29
1766015869.5995321,31
1766015869.599541,33
1766015869.59955,30
1766015869.5995588,28
1766015869.599568,31
1766015869.5995772,29
1766015869.599586,30
1766015869.599595,29
1766015869.599604,30
1766015869.599613,29
1766015869.5996218,29
1766015869.5996318,30
1766015869.599641,30
1766015869.5996501,31
1766015869.599659,31
1766015869.599668,29
1766015869.5996768,31
1766015869.599686,28
1766015869.5996952,32
1766015869.599704,29
1766015869.599714,33
1766015869.599723,28
1766015869.599732,29
1766015869.599741,25
1766015869.5997498,29
1766015869.599759,30
1766015869.5997682,28
1766015869.599777,27
1766015869.599786,30
1766015869.5997949,26
1766015869.599804,31
1766015869.599814,29
1766015869.599823,29
1766015869.599832,25
1766015869.599841,28
1766015869.59985,30
1766015869.599859,27
1766015869.5998678,29
1766015869.599877,27
1766015869.5998862,28
1766015869.599896,27
1766015869.599905,25
1766015869.599914,31
1766015869.599923,29
1766015869.599932,29
1766015869.599941,26
1766015869.599957,29
1766015869.599966,28
1766015869.5999749,27
1766015869.599985,30
1766015869.5999942,27
1766015869.600003,27
1766015869.600012,31
1766015869.600021,28
1766015869.60003,30
1766015869.600039,29
1766015869.600048,29
1766015869.6000571,27
1766015869.600066,30
1766015869.600075,28
1766015869.600084,29
1766015869.600093,27
1766015869.600102,30
1766015869.600111,28
1766015869.60012,32
1766015869.6001291,28
1766015869.600287,31
1766015869.600296,27
1766015869.6003048,30
1766015869.6003141,29
1766015869.600323,29
1766015869.600332,29
1766015869.600342,26
1766015869.600351,30
1766015869.60036,28
1766015869.600369,26
1766015869.600378,31
1766015869.600387,29
1766015869.600396,27
1766015869.600406,28
1766015869.600415,27
1766015869.600424,29
1766015869.6004329,26
1766015869.6004422,30
1766015869.600451,25
1766015869.60046,27
1766015869.6004689,29
1766015869.600479,23
1766015869.600488,28
1766015869.600497,27
1766015869.600508,27
1766015869.600517,26
1766015869.600526,26
1766015869.6005352,27
1766015869.600544,26
1766015869.600554,27
1766015869.600563,26
1766015869.6005719,27
1766015869.6005812,28
1766015869.60059,29
1766015869.6006,28
1766015869.600609,27
1766015869.600618,28
1766015869.600627,25
1766015869.600636,27
1766015869.600645,26
1766015869.6006541,27
1766015869.600663,27
1766015869.600672,25
1766015869.600682,25
1766015869.6006908,30
1766015869.6007,28
1766015869.60071,29
1766015869.6007192,27
1766015869.600728,27
1766015869.600737,26
1766015869.600746,23
1766015869.600756,24
1766015869.600765,26
1766015869.6007738,23
1766015869.600783,26
1766015869.6007922,25
1766015869.600801,26
1766015869.60081,23
1766015869.6008189,27
1766015869.600828,27
1766015869.6008372,27
1766015869.600847,24
1766015869.600856,27
1766015869.6008651,24
1766015869.600874,24
1766015869.600883,25
1766015869.6008918,24
1766015869.6009011,26
1766015869.6009102,24
1766015869.60092,28
1766015869.600929,27
1766015869.600938,24
1766015869.601544,26
1766015869.602529,24
1766015869.603529,27
1766015869.604542,25
1766015869.605553,27
1766015869.6065521,26
1766015869.607543,26
1766015869.608553,26
1766015869.609557,25
1766015869.610559,27
1766015869.6115441,27
1766015869.6125708,25
1766015869.6135612,21
1766015869.614563,24
1766015869.615538,24
1766015869.616544,26
1766015869.6175518,27
1766015869.6185448,23
1766015869.619529,26
1766015869.6205618,24
1766015869.6215549,24
1766015869.622613,25
1766015869.623577,25
1766015869.6246111,25
1766015869.625559,25
1766015869.6266198,24
1766015869.6276,24
1766015869.628591,24
1766015869.629622,28
1766015869.630584,27
1766015869.63159,25
1766015869.632589,26
1766015869.633634,27
1766015869.6345758,23
1766015869.635626,24
1766015869.63661,25
1766015869.637581,25
1766015869.638638,25
1766015869.639668,26
1766015869.640617,27
1766015869.641641,25
1766015869.642634,24
1766015869.6436338,25
1766015869.644629,29
1766015869.645649,26
1766015869.646695,27
1766015869.647646,27
1766015869.6486669,25
1766015869.6496232,27
1766015869.650639,28
1766015869.6516411,24
1766015869.65266,25
1766015869.653641,26
1766015869.654647,25
1766015869.655658,25
1766015869.656663,26
1766015869.657658,25
1766015869.658668,25
1766015869.6596968,26
1766015869.660684,24
1766015869.661654,26
1766015869.6626618,25
1766015869.663664,26
1766015869.664681,28
1766015869.665681,23
1766015869.666683,23
1766015869.667714,23
1766015869.668715,25
1766015869.669738,24
1766015869.670697,26
1766015869.671713,25
1766015869.6727328,27
1766015869.673721,24
1766015869.674742,23
1766015869.675725,24
1766015869.676754,23
1766015869.677728,24
1766015869.678745,24
1766015869.679717,24
1766015869.680727,23
1766015869.681729,23
1766015869.682713,24
1766015869.683719,25
1766015869.684754,24
1766015869.68574,24
1766015869.686777,25
1766015869.687747,22
1766015869.68879,24
1766015869.689779,23
1766015869.690754,24
1766015869.691794,24
1766015869.692804,21
1766015869.693794,23
1766015869.694796,23
1766015869.6958,27
1766015869.69681,23
1766015869.6978052,24
1766015869.6988091,22
1766015869.699818,23
1766015869.700814,24
1766015869.701826,26
1766015869.7028182,25
1766015869.7038348,24
1766015869.704822,21
1766015869.7058308,22
1766015869.70682,21
1766015869.707851,24
1766015869.7088408,22
1766015869.709846,23
1766015869.710835,24
1766015869.711842,24
1766015869.712843,22
1766015869.7138402,24
1766015869.714839,24
1766015869.71586,23
1766015869.716856,22
1766015869.717869,23
1766015869.7188659,24
1766015869.719866,21
1766015869.720855,22
1766015869.721856,21
1766015869.722854,25
1766015869.7238772,23
1766015869.724861,24
1766015869.725878,25
1766015869.726876,25
1766015869.727896,24
1766015869.728891,22
1766015869.729894,24
1766015869.73089,24
1766015869.7319,22
1766015869.7329018,23
1766015869.7339132,24
1766015869.734913,25
1766015869.7359219,24
1766015869.736906,23
1766015869.7379289,23
1766015869.738932,22
1766015869.7399292,23
1766015869.7409081,22
1766015869.7419431,23
1766015869.742937,23
1766015869.743937,26
1766015869.744931,24
1766015869.745936,23
1766015869.746942,23
1766015869.747945,25
1766015869.748956,22
1766015869.749936,23
1766015869.750942,22
1766015869.751942,24
1766015869.7529678,24
1766015869.753962,25
1766015869.754959,22
1766015869.755966,22
1766015869.7569752,23
1766015869.7579799,23
1766015869.75899,21
1766015869.7599812,23
1766015869.7609742,23
1766015869.7619689,24
1766015869.762997,22
1766015869.763979,23
1766015869.764978,24
1766015869.765992,24
1766015869.766987,25
1766015869.768002,23
1766015869.769004,21
1766015869.770001,22
1766015869.7710872,24
1766015869.772089,25
1766015869.773005,25
1766015869.774092,23
1766015869.775087,22
1766015869.776088,24
1766015869.777094,23
1766015869.778086,24
1766015869.779095,21
1766015869.780088,27
1766015869.781091,26
1766015869.782089,25
1766015869.7831051,26
1766015869.784091,25
1766015869.7850912,23
1766015869.7860951,24
1766015869.787099,26
1766015869.788095,24
1766015869.7890959,23
1766015869.79009,23
1766015869.791109,24
1766015869.7920902,21
1766015869.7931,26
1766015869.794094,22
1766015869.7950919,26
1766015869.7960918,29
1766015869.7970839,26
1766015869.7980852,24
1766015869.7991,23
1766015869.8000991,28
1766015869.8010938,28
1766015869.802093,25
1766015869.803095,26
1766015869.804103,23
1766015869.805113,27
1766015869.8061109,25
1766015869.807136,27
1766015869.8081422,25
1766015869.8091362,22
1766015869.810146,27
1766015869.811168,27
1766015869.812149,28
1766015869.8131359,25
1766015869.8141298,25
1766015869.81513,27
1766015869.816119,28
1766015869.817122,25
1766015869.818135,24
1766015869.8191419,27
1766015869.820147,24
1766015869.82113,25
1766015869.822127,25
1766015869.823173,27
1766015869.82413,28
1766015869.825137,27
1766015869.826134,28
1766015869.827148,26
1766015869.8281531,25
1766015869.8291452,25
1766015869.8301609,24
1766015869.831142,27
1766015869.832185,24
1766015869.833188,28
1766015869.834186,25
1766015869.835211,25
1766015869.836215,24
1766015869.837229,24
1766015869.838225,23
1766015869.8392708,27
1766015869.840225,27
1766015869.8412511,27
1766015869.842431,29
1766015869.8432488,26
1766015869.844266,25
1766015869.8452659,28
1766015869.846261,28
1766015869.8472419,26
1766015869.8482182,27
1766015869.8492029,28
1766015869.850216,25
1766015869.851222,25
1766015869.8522398,28
1766015869.853215,28
1766015869.8542259,30
1766015869.85521,30
1766015869.856224,29
1766015869.857219,26
1766015869.858227,29
1766015869.8592288,28
1766015869.8602371,29
1766015869.861238,30
1766015869.862238,31
1766015869.863246,31
1766015869.8642921,31
1766015869.8653219,30
1766015869.8663008,31
1766015869.867306,31
1766015869.868324,28
1766015869.869332,31
1766015869.870336,28
1766015869.871304,27
1766015869.8723378,31
1766015869.873342,28
1766015869.874337,30
1766015869.8753228,27
1766015869.8763268,30
1766015869.877341,25
1766015869.8783302,26
1766015869.879328,27
1766015869.880331,27
1766015869.881336,29
1766015869.882335,29
1766015869.883353,30
1766015869.884355,30
1766015869.885343,27
1766015869.886386,30
1766015869.887396,26
1766015869.8883688,29
1766015869.8893828,27
1766015869.890357,29
1766015869.891368,29
1766015869.892381,30
1766015869.893364,29
1766015869.8943622,30
1766015869.895374,25
1766015869.8963761,28
1766015869.897387,26
1766015869.898388,28
1766015869.899402,29
1766015869.900393,29
1766015869.9013991,29
1766015869.9024,30
1766015869.903404,26
1766015869.904417,26
1766015869.9053938,26
1766015869.90642,26
1766015869.907422,28
1766015869.908431,27
1766015869.9094121,27
1766015869.910434,29
1766015869.911443,29
1766015869.9124281,28
1766015869.913447,32
1766015869.914422,31
1766015869.915432,31
1766015869.916446,31
1766015869.917454,33
1766015869.918452,34
1766015869.919455,32
1766015869.920452,30
1766015869.92146,31
1766015869.922457,30
1766015869.923462,30
1766015869.924434,31
1766015869.925471,31
1766015869.926456,32
1766015869.927457,29
1766015869.9284632,30
1766015869.929467,34
1766015869.930463,29
1766015869.93151,33
1766015869.932498,32
1766015869.933509,30
1766015869.934495,32
1766015869.935518,31
1766015869.936496,31
1766015869.937495,31
1766015869.9385128,28
1766015869.939518,34
1766015869.940507,30
1766015869.941514,31
1766015869.942529,31
1766015869.94351,33
1766015869.944514,29
1766015869.945545,35
1766015869.946538,35
1766015869.9475431,35
1766015869.948531,35
1766015869.9495249,35
1766015869.950537,37
1766015869.951542,36
1766015869.952536,36
1766015869.9535391,35
1766015869.954546,35
1766015869.955557,37
1766015869.956554,35
1766015869.9575539,40
1766015869.9585621,39
1766015869.959563,37
1766015869.960567,38
1766015869.9615629,39
1766015869.962573,41
1766015869.963588,40
1766015869.964591,43
1766015869.965586,36
1766015869.966591,38
1766015869.967593,42
1766015869.968588,43
1766015869.969603,37
1766015869.9706109,43
1766015869.971609,37
1766015869.9726112,39
1766015869.973608,39
1766015869.974607,40
1766015869.975631,41
1766015869.976612,39
1766015869.977623,42
1766015869.978623,43
1766015869.9796312,42
1766015869.980632,42
1766015869.9816341,43
1766015869.98264,43
1766015869.9836469,41
1766015869.984639,43
1766015869.9856482,43
1766015869.9866502,41
1766015869.9876559,39
1766015869.988637,41
1766015869.989662,44
1766015869.990675,42
1766015869.991673,39
1766015869.992667,43
1766015869.993684,39
1766015869.994673,45
1766015869.9956732,44
1766015869.9966872,43
1766015869.997688,45
1766015869.998681,42
1766015869.9997,43
1766015870.000731,45
1766015870.001718,45
1766015870.0027258,44
1766015870.003715,47
1766015870.004691,45
1766015870.005686,46
1766015870.0066948,42
1766015870.007702,43
1766015870.0087051,41
1766015870.009683,40
1766015870.010707,41
1766015870.0116968,41
1766015870.0126982,42
1766015870.0137,41
1766015870.014702,46
1766015870.015706,42
1766015870.0166972,44
1766015870.0177128,44
1766015870.018711,44
1766015870.019714,44
1766015870.0207202,42
1766015870.021725,43
1766015870.022721,39
1766015870.023703,43
1766015870.024734,45
1766015870.025774,46
1766015870.026774,47
1766015870.027772,51
1766015870.028773,48
1766015870.029778,48
1766015870.0307689,48
1766015870.031776,51
1766015870.032792,52
1766015870.0337942,47
1766015870.034795,50
1766015870.035789,49
1766015870.036802,49
1766015870.037803,53
1766015870.038804,49
1766015870.039797,53
1766015870.040805,53
1766015870.041802,55
1766015870.0428119,52
1766015870.0438,51
1766015870.0448132,54
1766015870.0458272,55
1766015870.046814,52
1766015870.0478148,52
1766015870.048825,53
1766015870.049815,54
1766015870.050844,56
1766015870.051838,53
1766015870.0528388,50
1766015870.0538309,54
1766015870.05485,55
1766015870.0558422,53
1766015870.0568378,53
1766015870.057835,52
1766015870.058867,53
1766015870.059859,52
1766015870.060862,56
1766015870.061874,50
1766015870.062859,52
1766015870.0638678,55
1766015870.0648682,51
1766015870.065888,55
1766015870.066887,55
1766015870.067876,54
1766015870.068886,51
1766015870.06989,54
1766015870.070901,56
1766015870.0719109,57
1766015870.072906,58
1766015870.0739148,55
1766015870.0748968,59
1766015870.075924,55
1766015870.076919,55
1766015870.077919,54
1766015870.078933,55
1766015870.079929,59
1766015870.080926,55
1766015870.0819252,56
1766015870.082923,56
1766015870.083928,56
1766015870.084929,56
1766015870.085954,55
1766015870.086965,55
1766015870.087949,54
1766015870.088941,61
1766015870.089948,61
1766015870.090948,60
1766015870.091944,58
1766015870.092949,63
1766015870.093945,63
1766015870.0949702,64
1766015870.095968,62
1766015870.096972,69
1766015870.0979671,74
1766015870.0989828,74
1766015870.09997,71
1766015870.100966,75
1766015870.1019788,72
1766015870.102974,75
1766015870.103984,79
1766015870.104987,85
1766015870.105991,94
1766015870.106991,96
1766015870.108006,97
1766015870.1090019,97
1766015870.1100018,98
1766015870.110997,95
1766015870.1120908,96
1766015870.113004,92
1766015870.11401,93
1766015870.115027,94
1766015870.116095,92
1766015870.1170912,91
1766015870.118092,89
1766015870.1190872,91
1766015870.120095,91
1766015870.121088,91
1766015870.1220858,91
1766015870.123095,88
1766015870.124089,88
1766015870.125091,89
1766015870.126095,88
1766015870.127091,88
1766015870.1280892,88
1766015870.1290932,87
1766015870.13009,87
1766015870.13109,86
1766015870.132101,83
1766015870.133093,85
1766015870.1340868,86
1766015870.135096,86
1766015870.136089,87
1766015870.1370912,88
1766015870.138089,87
1766015870.139088,86
1766015870.1400971,90
1766015870.141089,87
1766015870.142093,90
1766015870.143094,87
1766015870.144104,87
1766015870.1451032,88
1766015870.146106,90
1766015870.147109,90
1766015870.148105,89
1766015870.14911,89
1766015870.150114,88
1766015870.151121,92
1766015870.152131,89
1766015870.153122,87
1766015870.154132,86
1766015870.155134,87
1766015870.156138,88
1766015870.157145,87
1766015870.158149,88
1766015870.1591291,88
1766015870.160146,82
1766015870.16114,86
1766015870.1621509,81
1766015870.163153,85
1766015870.164159,85
1766015870.165151,81
1766015870.166162,80
1766015870.1671638,81
1766015870.168164,81
1766015870.169163,82
1766015870.1701682,82
1766015870.171166,79
1766015870.1721869,75
1766015870.173175,80
1766015870.17417,75
1766015870.175185,75
1766015870.176181,75
1766015870.1772008,76
1766015870.178205,75
1766015870.1792,74
1766015870.180201,70
1766015870.181199,74
1766015870.182208,75
1766015870.1832068,71
1766015870.184217,67
1766015870.1852229,70
1766015870.1862311,72
1766015870.1872299,67
1766015870.188234,69
1766015870.189238,69
1766015870.190243,69
1766015870.191217,66
1766015870.1922328,64
1766015870.193239,66
1766015870.194239,66
1766015870.19524,68
1766015870.1962528,66
1766015870.197252,66
1766015870.198261,68
1766015870.1992588,65
1766015870.200268,65
1766015870.201257,62
1766015870.202255,61
1766015870.203265,63
1766015870.204268,62
1766015870.2052732,63
1766015870.20627,61
1766015870.207275,62
1766015870.20827,61
1766015870.209284,63
1766015870.210288,62
1766015870.211301,60
1766015870.212301,61
1766015870.213284,62
1766015870.2142878,61
1766015870.215296,62
1766015870.2163022,58
1766015870.2173078,61
1766015870.218312,58
1766015870.219318,61
1766015870.220311,62
1766015870.221313,61
1766015870.222316,59
1766015870.223329,61
1766015870.224332,58
1766015870.225337,62
1766015870.2263339,60
1766015870.2273312,61
1766015870.2283342,60
1766015870.229333,58
1766015870.230329,60
1766015870.231332,60
1766015870.232353,58
1766015870.233359,55
1766015870.234366,57
1766015870.235348,57
1766015870.236338,59
1766015870.237375,59
1766015870.238369,56
1766015870.239363,56
1766015870.2403672,56
1766015870.2413561,56
1766015870.242365,54
1766015870.2433631,54
1766015870.24438,54
1766015870.245383,56
1766015870.246356,53
1766015870.2473788,52
1766015870.248405,49
1766015870.249365,54
1766015870.2503638,53
1766015870.251374,55
1766015870.252361,57
1766015870.253383,57
1766015870.254424,57
1766015870.255435,55
1766015870.256406,55
1766015870.257405,55
1766015870.258413,58
1766015870.259416,53
1766015870.260426,57
1766015870.261399,57
1766015870.262403,57
1766015870.263443,54
1766015870.264408,57
1766015870.26541,61
1766015870.2664042,61
1766015870.267402,59
1766015870.2683961,63
1766015870.2694101,68
1766015870.270415,66
1766015870.271459,67
1766015870.272465,67
1766015870.27347,71
1766015870.274465,66
1766015870.275479,71
1766015870.276479,66
1766015870.277472,67
1766015870.278471,69
1766015870.279475,67
1766015870.280477,66
1766015870.281488,65
1766015870.282491,62
1766015870.283485,64
1766015870.2844942,64
1766015870.285505,64
1766015870.2865028,62
1766015870.287501,64
1766015870.288511,63
1766015870.289512,60
1766015870.290518,61
1766015870.291521,59
1766015870.2925282,61
1766015870.293516,62
1766015870.294521,65
1766015870.295522,61
1766015870.2965171,65
1766015870.2975202,63
1766015870.2985349,61
1766015870.2995331,60
1766015870.3005471,59
1766015870.301541,57
1766015870.302546,59
1766015870.3035462,62
1766015870.304558,59
1766015870.305534,58
1766015870.306572,56
1766015870.307571,56
1766015870.3085802,58
1766015870.3095648,57
1766015870.310577,57
1766015870.311567,55
1766015870.3125691,55
1766015870.313575,54
1766015870.314583,55
1766015870.3155851,54
1766015870.3165922,55
1766015870.317593,51
1766015870.318586,53
1766015870.319586,54
1766015870.320586,52
1766015870.321592,54
1766015870.322604,53
1766015870.3236039,55
1766015870.324617,55
1766015870.3256161,52
1766015870.326623,51
1766015870.327599,54
1766015870.328625,54
1766015870.329612,52
1766015870.3306282,51
1766015870.331625,53
1766015870.332623,48
1766015870.3336241,51
1766015870.334639,51
1766015870.335639,47
1766015870.336649,49
1766015870.337645,49
1766015870.338635,45
1766015870.339637,47
1766015870.3406541,49
1766015870.34164,51
1766015870.342657,46
1766015870.343658,46
1766015870.344662,48
1766015870.345653,47
1766015870.3466501,49
1766015870.347661,49
1766015870.348673,47
1766015870.34967,45
1766015870.350677,45
1766015870.351685,47
1766015870.3526988,46
1766015870.353688,47
1766015870.354692,47
1766015870.3556852,48
1766015870.356697,48
1766015870.357704,55
1766015870.3587022,54
1766015870.359696,54
1766015870.360708,55
1766015870.361707,56
1766015870.3627,54
1766015870.363723,58
1766015870.3647108,58
1766015870.365706,54
1766015870.366722,56
1766015870.367718,57
1766015870.368729,56
1766015870.369736,52
1766015870.370741,52
1766015870.371725,56
1766015870.372739,53
1766015870.37373,53
1766015870.374751,55
1766015870.375753,53
1766015870.376747,58
1766015870.3777459,52
1766015870.378742,52
1766015870.3797472,54
1766015870.3807628,51
1766015870.38176,56
1766015870.382777,52
1766015870.383774,54
1766015870.384778,55
1766015870.385781,54
1766015870.386776,53
1766015870.387784,54
1766015870.388793,57
1766015870.3897731,51
1766015870.390794,54
1766015870.391798,51
1766015870.392797,51
1766015870.393795,49
1766015870.394799,49
1766015870.395793,51
1766015870.3968031,51
1766015870.397799,49
1766015870.398808,47
1766015870.399817,51
1766015870.400814,48
1766015870.4018078,47
1766015870.402807,49
1766015870.4038231,47
1766015870.404832,48
1766015870.405824,45
1766015870.406827,48
1766015870.4078279,47
1766015870.408823,46
1766015870.409827,46
1766015870.4108522,49
1766015870.411842,51
1766015870.412847,53
1766015870.413849,50
1766015870.4148521,52
1766015870.4158459,57
1766015870.4168499,51
1766015870.417849,53
1766015870.418868,52
1766015870.419868,54
1766015870.4208739,57
1766015870.421859,57
1766015870.422873,55
1766015870.423866,56
1766015870.424876,51
1766015870.4258912,51
1766015870.426891,54
1766015870.427885,51
1766015870.428868,56
1766015870.4299068,54
1766015870.4308999,52
1766015870.431893,51
1766015870.4329011,48
1766015870.433902,51
1766015870.434913,46
1766015870.435905,50
1766015870.436922,51
1766015870.437921,51
1766015870.43892,47
1766015870.4399118,48
1766015870.440921,50
1766015870.441922,47
1766015870.442928,48
1766015870.443941,45
1766015870.444947,46
1766015870.445937,49
1766015870.446956,47
1766015870.447953,45
1766015870.4489338,47
1766015870.4499369,48
1766015870.450965,45
1766015870.451961,48
1766015870.45296,43
1766015870.453964,42
1766015870.4549608,47
1766015870.455971,44
1766015870.456974,47
1766015870.457954,41
1766015870.458983,45
1766015870.459965,47
1766015870.4609642,48
1766015870.461961,44
1766015870.4629781,44
1766015870.463979,42
1766015870.464982,45
1766015870.4659798,44
1766015870.4670038,45
1766015870.467988,46
1766015870.4689841,42
1766015870.469991,49
1766015870.471006,45
1766015870.472095,43
1766015870.473087,42
1766015870.474091,44
1766015870.475083,42
1766015870.476087,43
1766015870.477087,49
1766015870.47809,44
1766015870.4790888,48
1766015870.480093,45
1766015870.481101,48
1766015870.4820962,49
1766015870.4830909,50
1766015870.484092,49
1766015870.485097,48
1766015870.486094,49
1766015870.487095,44
1766015870.488095,47
1766015870.4890912,48
1766015870.490088,45
1766015870.4910889,45
1766015870.492089,47
1766015870.493092,50
1766015870.49409,47
1766015870.495091,50
1766015870.496083,48
1766015870.497094,50
1766015870.498095,51
1766015870.499091,49
1766015870.500086,51
1766015870.5011048,50
1766015870.502094,47
1766015870.503102,50
1766015870.504096,49
1766015870.5050912,50
1766015870.506104,46
1766015870.5071092,46
1766015870.508112,46
1766015870.50911,44
1766015870.510108,46
1766015870.511112,46
1766015870.51211,47
1766015870.513134,44
1766015870.514133,49
1766015870.515127,46
1766015870.516143,45
1766015870.517132,45
1766015870.518137,47
1766015870.519148,44
1766015870.520146,43
1766015870.5211499,45
1766015870.5221398,43
1766015870.5231419,43
1766015870.5241501,44
1766015870.525154,44
1766015870.526162,42
1766015870.527165,43
1766015870.528171,42
1766015870.529174,43
1766015870.530182,45
1766015870.531178,42
1766015870.5321972,41
1766015870.5331872,41
1766015870.5341911,42
1766015870.535189,43
1766015870.536194,39
1766015870.537188,42
1766015870.5381901,43
1766015870.539194,44
1766015870.5402,45
1766015870.541207,41
1766015870.542206,46
1766015870.543215,45
1766015870.544214,42
1766015870.5452049,43
1766015870.546211,43
1766015870.5472178,43
1766015870.5482152,42
1766015870.549222,40
1766015870.550213,42
1766015870.551235,41
1766015870.5522182,38
1766015870.5532281,39
1766015870.554249,39
1766015870.555237,41
1766015870.556245,40
1766015870.557247,41
1766015870.558253,37
1766015870.5592608,38
1766015870.560245,40
1766015870.56125,40
1766015870.562274,40
1766015870.563264,42
1766015870.5642712,38
1766015870.565278,40
1766015870.566283,43
1766015870.5672781,44
1766015870.56829,43
1766015870.569283,43
1766015870.570287,41
1766015870.5712829,42
1766015870.572287,43
1766015870.573295,43
1766015870.57429,44
1766015870.575287,40
