timestamp,emg_value
1766015859.342871,97
1766015859.342892,97
1766015859.342908,98
1766015859.3429272,100
1766015859.342946,104
1766015859.342966,103
1766015859.342985,105
1766015859.3430028,105
1766015859.343024,103
1766015859.343046,102
1766015859.343067,106
1766015859.3430889,103
1766015859.3431082,102
1766015859.343126,100
1766015859.343144,102
1766015859.3431602,99
1766015859.343176,96
1766015859.343193,95
1766015859.3432078,96
1766015859.343223,96
1766015859.3432379,94
1766015859.343253,92
1766015859.3432682,93
1766015859.343283,97
1766015859.3432992,99
1766015859.343318,101
1766015859.3433359,107
1766015859.343355,107
1766015859.343387,103
1766015859.343405,103
1766015859.343423,106
1766015859.343442,107
1766015859.34346,104
1766015859.343481,104
1766015859.3435001,106
1766015859.343522,103
1766015859.343541,105
1766015859.3435678,105
1766015859.3435872,101
1766015859.343606,101
1766015859.3436239,103
1766015859.343644,100
1766015859.343659,99
1766015859.3436742,93
1766015859.343689,94
1766015859.343702,97
1766015859.3437152,95
1766015859.343727,94
1766015859.34374,97
1766015859.3437529,95
1766015859.343766,98
1766015859.3437781,96
1766015859.343791,95
1766015859.3438048,96
1766015859.343818,98
1766015859.343831,97
1766015859.3438442,96
1766015859.343859,95
1766015859.343874,95
1766015859.343887,93
1766015859.3439,95
1766015859.343913,92
1766015859.343926,89
1766015859.343939,89
1766015859.343952,92
1766015859.3439748,95
1766015859.343987,98
1766015859.344,98
1766015859.3440158,104
1766015859.344032,104
1766015859.344048,106
1766015859.344064,107
1766015859.344081,104
1766015859.3440971,107
1766015859.3441129,110
1766015859.344129,108
1766015859.3441448,112
1766015859.3441641,107
1766015859.3441799,105
1766015859.344196,104
1766015859.344212,104
1766015859.344228,104
1766015859.344244,104
1766015859.34426,103
1766015859.344276,100
1766015859.344295,101
1766015859.344309,99
1766015859.344322,99
1766015859.344335,98
1766015859.344348,98
1766015859.344361,98
1766015859.3443751,94
1766015859.344388,98
1766015859.3444018,95
1766015859.344415,94
1766015859.344428,92
1766015859.3444412,91
1766015859.344453,93
1766015859.344466,91
1766015859.344479,91
1766015859.344492,94
1766015859.344505,97
1766015859.344521,103
1766015859.344537,109
1766015859.3445601,111
1766015859.344577,111
1766015859.3445928,111
1766015859.344609,115
1766015859.344625,112
1766015859.344671,114
1766015859.344687,111
1766015859.344703,111
1766015859.3447192,115
1766015859.344735,110
1766015859.3447528,112
1766015859.3447711,109
1766015859.344787,108
1766015859.344803,107
1766015859.3448179,107
1766015859.344834,105
1766015859.344851,108
1766015859.3448682,106
1766015859.344884,105
1766015859.3449001,104
1766015859.3449159,103
1766015859.344932,101
1766015859.344948,105
1766015859.344964,106
1766015859.34498,104
1766015859.3449988,101
1766015859.345015,101
1766015859.3450298,103
1766015859.345047,103
1766015859.345063,101
1766015859.345076,99
1766015859.345092,100
1766015859.345108,100
1766015859.345121,99
1766015859.345134,95
1766015859.345147,92
1766015859.34516,95
1766015859.345173,92
1766015859.3451898,94
1766015859.3452039,92
1766015859.345217,92
1766015859.34523,90
1766015859.345243,93
1766015859.3452559,88
1766015859.345269,87
1766015859.345282,87
1766015859.3452952,88
1766015859.3453069,92
1766015859.345321,97
1766015859.345336,101
1766015859.345352,106
1766015859.345367,104
1766015859.345383,105
1766015859.3453991,105
1766015859.345414,107
1766015859.345431,107
1766015859.3454468,103
1766015859.345463,104
1766015859.345479,103
1766015859.3454962,105
1766015859.345511,101
1766015859.345527,108
1766015859.345543,102
1766015859.345566,104
1766015859.3455849,102
1766015859.345601,103
1766015859.345622,100
1766015859.345639,100
1766015859.345651,97
1766015859.3456728,96
1766015859.345686,95
1766015859.345699,96
1766015859.3457122,93
1766015859.3457239,96
1766015859.345737,95
1766015859.34575,93
1766015859.345762,93
1766015859.3457751,93
1766015859.345788,92
1766015859.3458009,91
1766015859.345814,91
1766015859.345827,89
1766015859.3458402,87
1766015859.345852,90
1766015859.345865,92
1766015859.345879,95
1766015859.345891,96
1766015859.345906,94
1766015859.345919,97
1766015859.345932,99
1766015859.3459451,98
1766015859.345957,95
1766015859.34597,97
1766015859.345983,98
1766015859.3459961,94
1766015859.3460102,95
1766015859.3460228,93
1766015859.346036,91
1766015859.3460531,92
1766015859.346067,93
1766015859.34608,89
1766015859.346093,91
1766015859.3461068,91
1766015859.346124,95
1766015859.346137,94
1766015859.34615,91
1766015859.346163,96
1766015859.346176,91
1766015859.346189,95
1766015859.3462021,92
1766015859.346217,88
1766015859.34623,90
1766015859.3462431,88
1766015859.346257,85
1766015859.3462698,88
1766015859.3462842,91
1766015859.346297,90
1766015859.34631,89
1766015859.346323,85
1766015859.346336,85
1766015859.346349,86
1766015859.346362,87
1766015859.346376,83
1766015859.346389,86
1766015859.346402,85
1766015859.346415,89
1766015859.346428,87
1766015859.346442,85
1766015859.346455,87
1766015859.3464682,85
1766015859.346482,82
1766015859.3465002,82
1766015859.3465128,85
1766015859.346526,82
1766015859.34654,82
1766015859.3465579,82
1766015859.346573,81
1766015859.346588,81
1766015859.3465998,79
1766015859.346613,82
1766015859.346626,83
1766015859.3466392,80
1766015859.3466518,84
1766015859.346665,82
1766015859.346678,84
1766015859.3466911,80
1766015859.3467038,82
1766015859.346717,81
1766015859.346729,81
1766015859.346742,81
1766015859.346755,81
1766015859.346768,85
1766015859.346781,88
1766015859.346794,87
1766015859.346807,90
1766015859.34682,93
1766015859.346833,93
1766015859.3468459,90
1766015859.346859,91
1766015859.346873,93
1766015859.346886,93
1766015859.3468978,93
1766015859.346911,92
1766015859.346926,92
1766015859.3469388,92
1766015859.346952,92
1766015859.346965,93
1766015859.3469849,91
1766015859.346998,93
1766015859.347011,93
1766015859.347023,94
1766015859.3470368,93
1766015859.34705,92
1766015859.347063,91
1766015859.3470762,89
1766015859.3470888,89
1766015859.347106,88
1766015859.34712,85
1766015859.347132,86
1766015859.3471448,83
1766015859.347158,85
1766015859.347171,86
1766015859.3471842,81
1766015859.3471968,84
1766015859.34721,83
1766015859.347223,82
1766015859.347235,85
1766015859.347248,86
1766015859.347261,88
1766015859.347274,84
1766015859.347287,83
1766015859.347301,83
1766015859.347313,83
1766015859.347326,80
1766015859.347339,83
1766015859.347352,83
1766015859.347369,82
1766015859.347384,80
1766015859.347397,81
1766015859.34741,80
1766015859.347423,77
1766015859.3474371,79
1766015859.34745,81
1766015859.347463,78
1766015859.347476,77
1766015859.347489,78
1766015859.347502,75
1766015859.3475149,74
1766015859.347528,71
1766015859.347541,74
1766015859.3475552,76
1766015859.347573,72
1766015859.347587,76
1766015859.347601,71
1766015859.347614,75
1766015859.347627,74
1766015859.347639,72
1766015859.3476522,74
1766015859.3476648,72
1766015859.347679,74
1766015859.347692,75
1766015859.347706,73
1766015859.347718,73
1766015859.3477309,70
1766015859.347744,70
1766015859.347757,71
1766015859.347769,72
1766015859.3477829,69
1766015859.3478,68
1766015859.3478148,72
1766015859.347828,71
1766015859.347841,72
1766015859.3478541,69
1766015859.3478668,71
1766015859.347879,71
1766015859.347893,71
1766015859.347906,75
1766015859.347919,68
1766015859.3479319,70
1766015859.347946,70
1766015859.347959,73
1766015859.3479722,72
1766015859.3479848,71
1766015859.347998,72
1766015859.348011,73
1766015859.3480241,71
1766015859.348038,69
1766015859.3480508,72
1766015859.348064,72
1766015859.348078,72
1766015859.3480902,70
1766015859.3481028,74
1766015859.348116,70
1766015859.348129,71
1766015859.3481421,72
1766015859.3481548,71
1766015859.348168,69
1766015859.34818,72
1766015859.348193,74
1766015859.348206,77
1766015859.348219,77
1766015859.348236,73
1766015859.3482509,74
1766015859.348263,75
1766015859.348276,79
1766015859.348289,77
1766015859.3483021,80
1766015859.348314,79
1766015859.3483279,78
1766015859.34834,76
1766015859.348353,77
1766015859.348366,75
1766015859.348379,77
1766015859.348392,78
1766015859.348404,77
1766015859.3484192,74
1766015859.3484318,76
1766015859.348445,74
1766015859.3484569,74
1766015859.34847,72
1766015859.348483,75
1766015859.348496,73
1766015859.3485088,75
1766015859.348521,77
1766015859.348535,79
1766015859.3485482,77
1766015859.3485608,79
1766015859.348578,81
1766015859.348592,80
1766015859.348607,74
1766015859.34862,76
1766015859.348633,75
1766015859.3486469,80
1766015859.348662,75
1766015859.3486772,74
1766015859.34869,75
1766015859.348703,75
1766015859.348717,77
1766015859.34873,75
1766015859.348744,72
1766015859.348756,77
1766015859.348769,75
1766015859.348782,74
1766015859.348795,73
1766015859.348808,73
1766015859.34882,72
1766015859.348833,71
1766015859.3488462,70
1766015859.348858,69
1766015859.348871,67
1766015859.348889,68
1766015859.348902,67
1766015859.3489149,69
1766015859.348927,72
1766015859.3489401,72
1766015859.348953,69
1766015859.348966,73
1766015859.348979,69
1766015859.348992,72
1766015859.349005,73
1766015859.349018,73
1766015859.349031,69
1766015859.349044,70
1766015859.349057,71
1766015859.349071,70
1766015859.349084,71
1766015859.349101,70
1766015859.349115,69
1766015859.349128,70
1766015859.349141,69
1766015859.349154,68
1766015859.3491662,68
1766015859.349183,64
1766015859.3491971,64
1766015859.34921,68
1766015859.349223,64
1766015859.349235,63
1766015859.349248,67
1766015859.349261,70
1766015859.3492749,75
1766015859.349288,86
1766015859.349301,91
1766015859.349314,92
1766015859.3493278,96
1766015859.3493419,98
1766015859.349355,96
1766015859.34937,99
1766015859.349387,101
1766015859.349403,100
1766015859.34942,104
1766015859.3494358,102
1766015859.349452,101
1766015859.349468,100
1766015859.3494852,105
1766015859.349501,100
1766015859.349514,99
1766015859.349532,99
1766015859.349546,98
1766015859.3495638,99
1766015859.3496199,100
1766015859.349639,99
1766015859.349653,94
1766015859.349666,95
1766015859.3496802,93
1766015859.3496919,92
1766015859.349706,94
1766015859.349719,91
1766015859.3497322,92
1766015859.3497448,88
1766015859.349758,91
1766015859.349771,85
1766015859.3497841,86
1766015859.349797,85
1766015859.34981,86
1766015859.349823,84
1766015859.349836,83
1766015859.349849,82
1766015859.3498611,84
1766015859.349874,85
1766015859.349888,86
1766015859.349903,87
1766015859.349916,91
1766015859.3499289,91
1766015859.349942,88
1766015859.349955,88
1766015859.349968,90
1766015859.3499808,91
1766015859.349995,89
1766015859.3500118,92
1766015859.350026,93
1766015859.350039,88
1766015859.350053,89
1766015859.350066,87
1766015859.3500779,85
1766015859.350091,84
1766015859.350105,81
1766015859.350118,84
1766015859.3501298,82
1766015859.350144,84
1766015859.350157,85
1766015859.3501701,84
1766015859.350183,84
1766015859.350196,85
1766015859.350209,84
1766015859.350222,89
1766015859.350235,95
1766015859.350249,94
1766015859.350262,95
1766015859.350275,96
1766015859.350288,97
1766015859.350301,95
1766015859.350314,92
1766015859.350327,92
1766015859.3503401,95
1766015859.350353,91
1766015859.3503659,92
1766015859.350379,95
1766015859.350396,91
1766015859.350409,92
1766015859.350423,91
1766015859.3504362,95
1766015859.3504572,101
1766015859.350473,102
1766015859.3504891,102
1766015859.3505049,100
1766015859.350521,102
1766015859.350537,102
1766015859.350553,103
1766015859.350566,98
1766015859.350579,98
1766015859.350593,99
1766015859.3506072,95
1766015859.3506198,97
1766015859.350633,98
1766015859.350646,96
1766015859.3506591,95
1766015859.3506718,95
1766015859.350685,94
1766015859.350698,96
1766015859.350711,95
1766015859.350724,91
1766015859.3507369,93
1766015859.35075,93
1766015859.350763,92
1766015859.350776,94
1766015859.350789,97
1766015859.350802,97
1766015859.350815,97
1766015859.350828,95
1766015859.350841,95
1766015859.350854,94
1766015859.350867,94
1766015859.3508842,94
1766015859.3508968,91
1766015859.35091,92
1766015859.350923,93
1766015859.3509362,93
1766015859.350949,92
1766015859.3509629,92
1766015859.350975,89
1766015859.3509881,94
1766015859.351001,91
1766015859.3510149,89
1766015859.351027,91
1766015859.35104,92
1766015859.351053,90
1766015859.351066,87
1766015859.351079,85
1766015859.3510919,87
1766015859.3511062,86
1766015859.351119,88
1766015859.351132,86
1766015859.351145,90
1766015859.351159,87
1766015859.3511722,88
1766015859.3511848,88
1766015859.351198,87
1766015859.351212,88
1766015859.351224,87
1766015859.351237,87
1766015859.35125,87
1766015859.351263,85
1766015859.351276,86
1766015859.351289,84
1766015859.351305,86
1766015859.35132,84
1766015859.3513331,84
1766015859.351346,83
1766015859.351359,83
1766015859.351373,84
1766015859.351386,82
1766015859.351399,85
1766015859.351413,81
1766015859.351425,80
1766015859.351439,78
1766015859.3514519,78
1766015859.351465,81
1766015859.351477,77
1766015859.351491,78
1766015859.3515031,75
1766015859.351517,77
1766015859.351529,74
1766015859.351543,76
1766015859.351558,74
1766015859.35157,77
1766015859.351583,75
1766015859.351597,73
1766015859.3516102,75
1766015859.3516228,72
1766015859.351636,73
1766015859.351649,71
1766015859.3516622,72
1766015859.351674,71
1766015859.351685,70
1766015859.351697,68
1766015859.351708,68
1766015859.3517199,67
1766015859.351735,67
1766015859.351748,70
1766015859.3517592,70
1766015859.3517702,65
1766015859.3517811,63
1766015859.3517928,67
1766015859.351804,66
1766015859.351815,66
1766015859.351826,66
1766015859.351839,66
1766015859.351851,68
1766015859.351862,71
1766015859.351873,69
1766015859.351885,67
1766015859.351896,71
1766015859.351907,74
1766015859.3519192,71
1766015859.3519301,71
1766015859.3519418,73
1766015859.3519528,74
1766015859.351964,75
1766015859.351975,70
1766015859.351986,71
1766015859.3519979,68
1766015859.352009,66
1766015859.35202,67
1766015859.352031,68
1766015859.352043,69
1766015859.352054,66
1766015859.352065,65
1766015859.352077,63
1766015859.352088,64
1766015859.3521001,65
1766015859.352115,64
1766015859.352127,70
1766015859.352138,65
1766015859.352149,70
1766015859.352161,68
1766015859.3521721,68
1766015859.352183,68
1766015859.352194,69
1766015859.352208,69
1766015859.3522198,69
1766015859.352232,67
1766015859.352243,71
1766015859.352254,70
1766015859.352265,68
1766015859.352277,71
1766015859.352288,69
1766015859.3523,69
1766015859.352312,67
1766015859.352324,69
1766015859.352336,67
1766015859.352347,68
1766015859.3523579,68
1766015859.35237,65
1766015859.352381,66
1766015859.352392,67
1766015859.352403,65
1766015859.352414,65
1766015859.3524249,65
1766015859.352436,64
1766015859.352447,64
1766015859.352459,64
1766015859.35247,65
1766015859.352484,64
1766015859.3524978,62
1766015859.352509,63
1766015859.35252,62
1766015859.352531,61
1766015859.3525429,60
1766015859.352554,62
1766015859.352565,64
1766015859.352576,58
1766015859.3525891,60
1766015859.352601,55
1766015859.352612,58
1766015859.352623,59
1766015859.352635,61
1766015859.3526459,58
1766015859.3526568,57
1766015859.352669,58
1766015859.35268,54
1766015859.3526962,57
1766015859.352708,55
1766015859.352719,54
1766015859.35273,55
1766015859.352742,57
1766015859.352753,55
1766015859.352764,57
1766015859.3527749,53
1766015859.352787,57
1766015859.352798,53
1766015859.352809,54
1766015859.35282,55
1766015859.352831,52
1766015859.352842,55
1766015859.352855,56
1766015859.352869,55
1766015859.3528802,53
1766015859.352891,50
1766015859.352903,53
1766015859.3529139,51
1766015859.352926,51
1766015859.352937,50
1766015859.352948,50
1766015859.35296,49
1766015859.352971,50
1766015859.352983,51
1766015859.352994,48
1766015859.3530052,52
1766015859.3530161,53
1766015859.353028,51
1766015859.353039,47
1766015859.35305,50
1766015859.353062,50
1766015859.353073,49
1766015859.353085,46
1766015859.353096,46
1766015859.353107,49
1766015859.353119,47
1766015859.353131,48
1766015859.353143,46
1766015859.3531551,46
1766015859.353166,46
1766015859.353177,46
1766015859.353188,44
1766015859.3532002,47
1766015859.3532119,44
1766015859.3532228,48
1766015859.353236,49
1766015859.353248,46
1766015859.353259,49
1766015859.353271,46
1766015859.3532841,47
1766015859.3532958,46
1766015859.3533099,46
1766015859.353321,48
1766015859.353332,49
1766015859.353345,44
1766015859.353407,45
1766015859.3534179,46
1766015859.353429,43
1766015859.35344,46
1766015859.353452,43
1766015859.3534641,46
1766015859.353477,42
1766015859.353488,46
1766015859.353499,44
1766015859.3535109,44
1766015859.3535218,45
1766015859.353533,48
1766015859.353545,44
1766015859.353556,43
1766015859.353567,44
1766015859.353578,45
1766015859.353596,42
1766015859.3536088,45
1766015859.353621,43
1766015859.353632,46
1766015859.3536441,41
1766015859.353655,44
1766015859.35367,39
1766015859.3536818,39
1766015859.353693,43
1766015859.353704,45
1766015859.353716,41
1766015859.3537269,44
1766015859.353738,46
1766015859.35375,45
1766015859.353761,46
1766015859.353772,47
1766015859.3537831,43
1766015859.353794,49
1766015859.353806,46
1766015859.353817,46
1766015859.3538282,50
1766015859.35384,50
1766015859.3538508,50
1766015859.3538618,49
1766015859.353873,47
1766015859.353884,46
1766015859.353896,47
1766015859.3539069,51
1766015859.3539178,49
1766015859.353929,48
1766015859.35394,50
1766015859.353951,48
1766015859.353963,48
1766015859.353974,46
1766015859.353986,44
1766015859.353997,49
1766015859.354008,49
1766015859.3540192,46
1766015859.3540359,45
1766015859.354051,46
1766015859.354062,45
1766015859.354073,46
1766015859.354084,50
1766015859.3540952,45
1766015859.354107,48
1766015859.3541179,45
1766015859.3541288,44
1766015859.3541398,45
1766015859.354152,44
1766015859.354163,46
1766015859.354174,45
1766015859.3541849,45
1766015859.354196,46
1766015859.354207,48
1766015859.354219,44
1766015859.35423,45
1766015859.3542411,46
1766015859.354252,44
1766015859.354264,46
1766015859.354275,42
1766015859.3542862,44
1766015859.3542972,45
1766015859.354309,41
1766015859.3543198,41
1766015859.3543308,43
1766015859.354342,43
1766015859.354354,44
1766015859.3543649,42
1766015859.3543758,43
1766015859.354387,43
1766015859.354399,43
1766015859.354412,42
1766015859.3544269,45
1766015859.354439,43
1766015859.354451,45
1766015859.3544629,44
1766015859.354474,44
1766015859.354485,41
1766015859.354496,42
1766015859.354507,44
1766015859.3545191,43
1766015859.35453,44
1766015859.354541,40
1766015859.354552,42
1766015859.3545651,40
1766015859.3545759,43
1766015859.3545868,44
1766015859.354603,45
1766015859.3546162,44
1766015859.354629,44
1766015859.354641,40
1766015859.354652,41
1766015859.354663,43
1766015859.354679,44
1766015859.354692,46
1766015859.3547049,44
1766015859.3547158,46
1766015859.354727,46
1766015859.354739,42
1766015859.35475,41
1766015859.354761,44
1766015859.3547719,42
1766015859.354784,44
1766015859.354795,43
1766015859.35481,40
1766015859.3548229,42
1766015859.354835,43
1766015859.354846,41
1766015859.354857,42
1766015859.354868,45
1766015859.354879,43
1766015859.354891,44
1766015859.354903,45
1766015859.3549151,46
1766015859.354926,44
1766015859.354937,45
1766015859.3549492,44
1766015859.35496,46
1766015859.354971,47
1766015859.354982,48
1766015859.3549929,46
1766015859.355005,46
1766015859.355016,49
1766015859.355027,50
1766015859.355039,50
1766015859.35505,48
1766015859.355061,51
1766015859.355072,52
1766015859.355084,48
1766015859.3550951,48
1766015859.355106,48
1766015859.355117,47
1766015859.355128,47
1766015859.355139,50
1766015859.35515,49
1766015859.3551621,45
1766015859.3551738,48
1766015859.355188,50
1766015859.355201,46
1766015859.355212,45
1766015859.355223,45
1766015859.355235,48
1766015859.355246,46
1766015859.355257,45
1766015859.355268,45
1766015859.35528,49
1766015859.355291,48
1766015859.3553019,49
1766015859.355314,48
1766015859.355325,50
1766015859.355336,49
1766015859.355347,50
1766015859.355358,46
1766015859.3553689,46
1766015859.355381,48
1766015859.355392,46
1766015859.355403,47
1766015859.355415,46
1766015859.355426,48
1766015859.355437,45
1766015859.355448,45
1766015859.355459,48
1766015859.3554711,44
1766015859.355482,46
1766015859.3554938,48
1766015859.355506,45
1766015859.355517,45
1766015859.355529,45
1766015859.35554,45
1766015859.355554,45
1766015859.355564,47
1766015859.3555741,47
1766015859.355585,46
1766015859.355595,49
1766015859.355606,46
1766015859.355617,47
1766015859.355627,48
1766015859.355637,49
1766015859.355647,48
1766015859.3556569,46
1766015859.355668,47
1766015859.35568,47
1766015859.35569,49
1766015859.3557,49
1766015859.35571,50
1766015859.35572,52
1766015859.3557298,50
1766015859.3557398,49
1766015859.3557508,48
1766015859.3557608,48
1766015859.3557708,48
1766015859.3557801,46
1766015859.3557901,49
1766015859.355801,51
1766015859.355812,50
1766015859.355822,51
1766015859.355833,49
1766015859.355844,47
1766015859.355854,49
1766015859.355864,49
1766015859.355874,49
1766015859.355884,47
1766015859.3558972,46
1766015859.355909,50
1766015859.3559191,51
1766015859.3559291,52
1766015859.3559391,53
1766015859.3559492,51
1766015859.355959,51
1766015859.355969,52
1766015859.355979,49
1766015859.355989,52
1766015859.355999,51
1766015859.356009,52
1766015859.356019,53
1766015859.3560278,52
1766015859.3560388,52
1766015859.3560488,54
1766015859.3560588,50
1766015859.356069,53
1766015859.356079,54
1766015859.3560882,52
1766015859.356098,53
1766015859.356108,52
1766015859.356118,54
1766015859.356128,54
1766015859.356138,53
1766015859.356148,55
1766015859.356158,54
1766015859.356174,53
1766015859.3561862,53
1766015859.356197,54
1766015859.3562071,52
1766015859.3562171,53
1766015859.356228,55
1766015859.3562398,53
1766015859.356252,53
1766015859.356262,50
1766015859.3562722,53
1766015859.356281,54
1766015859.356292,54
1766015859.356302,53
1766015859.3563159,53
1766015859.356328,52
1766015859.35634,56
1766015859.35635,56
1766015859.35636,53
1766015859.35637,56
1766015859.35638,51
1766015859.35639,53
1766015859.356399,55
1766015859.356409,56
1766015859.356419,55
1766015859.356429,56
1766015859.356439,55
1766015859.3564491,56
1766015859.356459,57
1766015859.356469,55
1766015859.356479,58
1766015859.356489,59
1766015859.356499,60
1766015859.356509,59
1766015859.356519,60
1766015859.356529,59
1766015859.35654,62
1766015859.35655,62
1766015859.3565598,63
1766015859.356572,64
1766015859.3565838,64
1766015859.3565938,62
1766015859.3566048,61
1766015859.3566139,63
1766015859.3566248,61
1766015859.3566349,62
1766015859.3566442,61
1766015859.3566542,61
1766015859.3566642,60
1766015859.356674,62
1766015859.356684,64
1766015859.356694,64
1766015859.356704,67
1766015859.356714,59
1766015859.356724,63
1766015859.356734,62
1766015859.356744,64
1766015859.3567538,65
1766015859.3567638,63
1766015859.3567739,64
1766015859.356784,64
1766015859.356794,63
1766015859.3568041,63
1766015859.3568141,64
1766015859.3568242,65
1766015859.356834,62
1766015859.356844,65
1766015859.356854,64
1766015859.356864,64
1766015859.356874,62
1766015859.356884,63
1766015859.356894,64
1766015859.356907,61
1766015859.356919,60
1766015859.356929,60
1766015859.356939,60
1766015859.356949,62
1766015859.3569589,63
1766015859.3569689,63
1766015859.356979,66
1766015859.356988,63
1766015859.356998,66
1766015859.357008,67
1766015859.357018,68
1766015859.357028,67
1766015859.357038,65
1766015859.357048,66
1766015859.357057,66
1766015859.357068,66
1766015859.357077,65
1766015859.357088,62
1766015859.357098,62
1766015859.3571079,63
1766015859.357118,65
1766015859.357128,67
1766015859.357138,65
1766015859.357148,68
1766015859.357158,66
1766015859.3571682,63
1766015859.3571782,63
1766015859.357188,63
1766015859.357198,63
1766015859.357208,65
1766015859.357218,68
1766015859.3572302,67
1766015859.357242,68
1766015859.357253,66
1766015859.357263,65
1766015859.357274,68
1766015859.357284,66
1766015859.3572931,66
1766015859.3573031,65
1766015859.357313,66
1766015859.357323,66
1766015859.357333,67
1766015859.357343,71
1766015859.357354,70
1766015859.357363,72
1766015859.357374,70
1766015859.357385,70
1766015859.357395,71
1766015859.357405,70
1766015859.357415,70
1766015859.357425,67
1766015859.357435,67
1766015859.357445,70
1766015859.357455,71
1766015859.357465,72
1766015859.3575501,74
1766015859.357583,78
1766015859.3575969,79
1766015859.357611,81
1766015859.3577,82
1766015859.357714,80
1766015859.3577259,80
1766015859.357738,80
1766015859.35775,77
1766015859.357766,77
1766015859.357833,77
1766015859.357853,75
1766015859.357863,77
1766015859.357873,72
1766015859.357883,77
1766015859.3578932,77
1766015859.357903,78
1766015859.357913,78
1766015859.3579252,77
1766015859.3579369,77
1766015859.357949,79
1766015859.35796,75
1766015859.3579688,80
1766015859.3579788,79
1766015859.35804,78
1766015859.358061,76
1766015859.358075,77
1766015859.358088,79
1766015859.358101,78
1766015859.358114,77
1766015859.358127,75
1766015859.3581388,76
1766015859.358152,78
1766015859.358165,78
1766015859.3581781,75
1766015859.358191,74
1766015859.358228,74
1766015859.358238,75
1766015859.358248,77
1766015859.358258,74
1766015859.358268,76
1766015859.358282,75
1766015859.358318,76
1766015859.358351,78
1766015859.3583639,80
1766015859.358377,77
1766015859.358389,81
1766015859.358402,81
1766015859.35847,80
1766015859.358502,81
1766015859.35853,84
1766015859.358542,83
1766015859.3585532,81
1766015859.3585632,85
1766015859.358573,87
1766015859.358583,85
1766015859.358593,87
1766015859.358603,82
1766015859.3586419,80
1766015859.358677,81
1766015859.358688,80
1766015859.358707,80
1766015859.35873,79
1766015859.358742,85
1766015859.358805,81
1766015859.358816,82
1766015859.358826,83
1766015859.358836,83
1766015859.358847,84
1766015859.358857,81
1766015859.358867,82
1766015859.358877,86
1766015859.358888,85
1766015859.358898,85
1766015859.358918,84
1766015859.3589299,83
1766015859.358942,81
1766015859.358952,84
1766015859.3589618,80
1766015859.3589718,80
1766015859.3589818,84
1766015859.3589919,81
1766015859.359002,85
1766015859.3590121,83
1766015859.3590221,82
1766015859.3590322,86
1766015859.359042,85
1766015859.359052,84
1766015859.359062,85
1766015859.359072,84
1766015859.359082,81
1766015859.359092,84
1766015859.359102,83
1766015859.359114,83
1766015859.359124,81
1766015859.359134,84
1766015859.359145,81
1766015859.359155,80
1766015859.359165,82
1766015859.359176,83
1766015859.359186,80
1766015859.359218,78
1766015859.359256,79
1766015859.359267,77
1766015859.359277,82
1766015859.359305,80
1766015859.359322,80
1766015859.359336,79
1766015859.359349,79
1766015859.3593621,81
1766015859.359375,82
1766015859.359387,79
1766015859.359406,81
1766015859.3594189,79
1766015859.359432,80
1766015859.359444,81
1766015859.359457,79
1766015859.359469,79
1766015859.359482,82
1766015859.359495,82
1766015859.3595068,79
1766015859.35952,82
1766015859.359532,82
1766015859.359545,78
1766015859.3595572,79
1766015859.35957,75
1766015859.359582,79
1766015859.359595,75
1766015859.359607,77
1766015859.35962,77
1766015859.3596318,76
1766015859.359645,77
1766015859.359658,79
1766015859.35967,77
1766015859.359682,76
1766015859.3596952,75
1766015859.3597078,76
1766015859.35972,75
1766015859.359732,74
1766015859.359749,78
1766015859.359762,78
1766015859.359775,78
1766015859.359787,79
1766015859.3598,79
1766015859.3598132,81
1766015859.3598258,79
1766015859.359839,78
1766015859.3598511,79
1766015859.359864,80
1766015859.3598762,84
1766015859.3598888,83
1766015859.359902,87
1766015859.359914,86
1766015859.359927,88
1766015859.35994,92
1766015859.359952,87
1766015859.3599648,93
1766015859.359977,91
1766015859.3599901,90
1766015859.360003,91
1766015859.3600152,90
1766015859.3600278,89
1766015859.36004,92
1766015859.360053,94
1766015859.360066,91
1766015859.360078,93
1766015859.360091,92
1766015859.3601038,92
1766015859.360117,92
1766015859.360129,89
1766015859.360142,89
1766015859.3601542,89
1766015859.36017,88
1766015859.360183,87
1766015859.3601952,90
1766015859.3602078,89
1766015859.36022,89
1766015859.360233,90
1766015859.360246,89
1766015859.360258,85
1766015859.3602712,89
1766015859.3602839,88
1766015859.360296,87
1766015859.360309,86
1766015859.360321,90
1766015859.3603342,90
1766015859.360346,90
1766015859.360359,89
1766015859.3603709,87
1766015859.360384,87
1766015859.3603961,90
1766015859.360409,89
1766015859.3604212,86
1766015859.3604338,89
1766015859.360447,87
1766015859.360459,87
1766015859.360472,86
1766015859.3604841,86
1766015859.360497,87
1766015859.3605099,82
1766015859.360523,86
1766015859.360536,84
1766015859.360548,84
1766015859.360561,84
1766015859.360577,85
1766015859.360592,83
1766015859.3606038,80
1766015859.360617,82
1766015859.360629,85
1766015859.360642,81
1766015859.360655,80
1766015859.360668,82
1766015859.3606799,81
1766015859.360692,81
1766015859.3607051,81
1766015859.360717,81
1766015859.3607302,84
1766015859.3607419,81
1766015859.360755,80
1766015859.360768,81
1766015859.3607821,81
1766015859.3607948,77
1766015859.360808,81
1766015859.36082,76
1766015859.360833,79
1766015859.360845,79
1766015859.3608582,75
1766015859.36087,76
1766015859.360883,75
1766015859.360895,76
1766015859.360908,76
1766015859.3609211,76
1766015859.360933,77
1766015859.360946,78
1766015859.3609579,77
1766015859.360971,83
1766015859.3609831,80
1766015859.3609989,82
1766015859.361015,83
1766015859.3610282,82
1766015859.3610399,80
1766015859.361053,77
1766015859.361065,78
1766015859.361078,79
1766015859.36109,81
1766015859.361103,81
1766015859.361115,79
1766015859.3611279,79
1766015859.36114,77
1766015859.3611531,78
1766015859.361165,76
1766015859.3611782,79
1766015859.3611898,79
1766015859.361203,75
1766015859.361216,78
1766015859.361228,78
1766015859.361241,75
1766015859.361254,77
1766015859.361266,72
1766015859.361279,74
1766015859.3612921,75
1766015859.361304,75
1766015859.3613172,76
1766015859.3613288,72
1766015859.361342,72
1766015859.3613539,71
1766015859.361367,70
1766015859.3613791,74
1766015859.361392,74
1766015859.361405,74
1766015859.361424,74
1766015859.361439,70
1766015859.36147,71
1766015859.361481,69
1766015859.361491,67
1766015859.361502,67
1766015859.361512,69
1766015859.3615239,67
1766015859.3615339,67
1766015859.3615448,68
1766015859.3615549,68
1766015859.361566,69
1766015859.3615758,67
1766015859.361587,68
1766015859.361598,67
1766015859.361608,65
1766015859.361619,65
1766015859.3616471,64
1766015859.3616588,63
1766015859.3616698,64
1766015859.3616798,63
1766015859.361691,64
1766015859.361702,66
1766015859.3617122,62
1766015859.361723,62
1766015859.3617332,66
1766015859.361744,64
1766015859.3617542,60
1766015859.3617651,61
1766015859.3617752,61
1766015859.3617852,63
1766015859.361828,60
1766015859.361845,59
1766015859.36186,61
1766015859.361873,59
1766015859.361883,58
1766015859.361894,57
1766015859.3619049,59
1766015859.3619149,58
1766015859.3619258,59
1766015859.3619368,58
1766015859.361962,56
1766015859.361973,58
1766015859.361984,55
1766015859.361994,54
1766015859.362005,53
1766015859.362015,58
1766015859.362026,55
1766015859.362037,56
1766015859.362047,56
1766015859.362058,54
1766015859.362068,54
1766015859.362079,53
1766015859.3620899,53
1766015859.3621,52
1766015859.362111,53
1766015859.3621209,51
1766015859.362132,52
1766015859.362143,53
1766015859.362153,51
1766015859.362164,51
1766015859.362174,49
1766015859.362185,50
1766015859.362196,51
1766015859.362206,51
1766015859.362217,50
1766015859.362232,50
1766015859.3622441,47
1766015859.3622558,46
1766015859.3622668,50
1766015859.362277,50
1766015859.3622882,50
1766015859.362298,46
1766015859.3623092,50
1766015859.36232,46
1766015859.3623302,46
1766015859.3623412,46
1766015859.3623512,50
1766015859.3623621,48
1766015859.3623722,46
1766015859.3623831,47
1766015859.3623931,46
1766015859.362404,48
1766015859.3624141,42
1766015859.362425,46
1766015859.362436,43
1766015859.362446,46
1766015859.362457,43
1766015859.362468,47
1766015859.362478,48
1766015859.362489,47
1766015859.362499,42
1766015859.362509,46
1766015859.36252,47
1766015859.3625312,43
1766015859.3625422,43
1766015859.3625522,46
1766015859.3625631,44
1766015859.3625731,45
1766015859.362584,42
1766015859.362598,45
1766015859.3626099,45
1766015859.3626208,44
1766015859.362632,44
1766015859.3626418,45
1766015859.362653,42
1766015859.362663,44
1766015859.362674,43
1766015859.362684,41
1766015859.362695,42
1766015859.362705,42
1766015859.362716,41
1766015859.362726,41
1766015859.362737,41
1766015859.362748,43
1766015859.362758,42
1766015859.362769,39
1766015859.362779,42
1766015859.3627899,44
1766015859.3628008,43
1766015859.3628109,40
1766015859.3628218,39
1766015859.3628328,39
1766015859.3628428,38
1766015859.362854,38
1766015859.362864,42
1766015859.362875,39
1766015859.362886,41
1766015859.362896,39
1766015859.362907,39
1766015859.3629172,38
1766015859.3629282,40
1766015859.3629382,37
1766015859.362956,38
1766015859.362967,35
1766015859.362978,37
1766015859.362989,39
1766015859.362999,38
1766015859.36301,36
1766015859.36302,35
1766015859.3630311,35
1766015859.363042,35
1766015859.3630521,38
1766015859.363063,37
1766015859.363073,35
1766015859.3630831,38
1766015859.363094,37
1766015859.363104,36
1766015859.363115,35
1766015859.363125,37
1766015859.363136,38
1766015859.363147,39
1766015859.363157,38
1766015859.363167,35
1766015859.363178,35
1766015859.363188,39
1766015859.363199,33
1766015859.36321,33
1766015859.36322,36
1766015859.363231,33
1766015859.363241,33
1766015859.363252,35
1766015859.363262,34
1766015859.363273,35
1766015859.363283,34
1766015859.363294,32
1766015859.363308,36
1766015859.3633192,33
1766015859.3633301,36
1766015859.363341,36
1766015859.363351,33
1766015859.363362,36
1766015859.363373,36
1766015859.363383,32
1766015859.363394,32
1766015859.363405,32
1766015859.363416,35
1766015859.363426,35
1766015859.363437,33
1766015859.3634481,32
1766015859.3634582,31
1766015859.3634691,33
1766015859.363481,32
1766015859.363492,33
1766015859.3635032,37
1766015859.363513,33
1766015859.3635242,34
1766015859.363534,34
1766015859.363544,35
1766015859.363555,32
1766015859.363567,30
1766015859.3635771,33
1766015859.363588,31
1766015859.363599,29
1766015859.36361,34
1766015859.36362,29
1766015859.363631,31
1766015859.363641,32
1766015859.363652,29
1766015859.363671,36
1766015859.363683,34
1766015859.3636951,31
1766015859.3637052,35
1766015859.3637161,33
1766015859.363727,29
1766015859.363737,29
1766015859.363748,31
1766015859.363758,28
1766015859.363769,32
1766015859.363779,30
1766015859.36379,31
1766015859.363801,29
1766015859.363811,32
1766015859.363822,28
1766015859.3638332,27
1766015859.363843,31
1766015859.363853,30
1766015859.363864,31
1766015859.3638752,32
1766015859.363886,29
1766015859.3638961,27
1766015859.363907,31
1766015859.363917,28
1766015859.363928,28
1766015859.363939,28
1766015859.363949,29
1766015859.36396,31
1766015859.36397,31
1766015859.363981,33
1766015859.363991,28
1766015859.364002,30
1766015859.364013,26
1766015859.3640268,27
1766015859.36404,31
1766015859.36405,30
1766015859.3640609,29
1766015859.364071,28
1766015859.3640819,27
1766015859.3640919,27
1766015859.3641028,31
1766015859.3641138,27
1766015859.3641238,27
1766015859.364135,28
1766015859.364146,29
1766015859.364156,27
1766015859.364167,29
1766015859.364178,29
1766015859.364188,29
1766015859.364199,28
1766015859.364209,27
1766015859.36422,25
1766015859.36423,28
1766015859.364241,26
1766015859.3642519,28
1766015859.3642619,25
1766015859.3642728,25
1766015859.3642828,28
1766015859.3642938,28
1766015859.3643038,26
1766015859.3643148,25
1766015859.364325,28
1766015859.364336,26
1766015859.364346,27
1766015859.3643572,28
1766015859.364367,26
1766015859.3643808,28
1766015859.364394,30
1766015859.364404,28
1766015859.364415,28
1766015859.364425,28
1766015859.364436,26
1766015859.3644469,27
1766015859.364457,27
1766015859.3644679,27
1766015859.3644779,25
1766015859.364489,27
1766015859.3645,23
1766015859.36451,23
1766015859.364521,28
1766015859.364531,27
1766015859.364542,25
1766015859.364552,26
1766015859.364563,27
1766015859.364574,26
1766015859.364584,26
1766015859.364595,24
1766015859.364606,26
1766015859.3646321,26
1766015859.364643,26
1766015859.364654,27
1766015859.364665,25
1766015859.364676,26
1766015859.364686,24
1766015859.364697,26
1766015859.364707,26
1766015859.3647182,23
1766015859.3647292,25
1766015859.3647392,23
1766015859.364753,26
1766015859.364765,24
1766015859.364776,27
1766015859.3647869,28
1766015859.3647969,25
1766015859.3648078,25
1766015859.3648179,26
1766015859.3648288,22
1766015859.36484,25
1766015859.364851,23
1766015859.364861,22
1766015859.364872,25
1766015859.364882,26
1766015859.364893,26
1766015859.364904,25
1766015859.364914,23
1766015859.364925,25
1766015859.364935,25
1766015859.364946,24
1766015859.3649569,23
1766015859.3649669,24
1766015859.364977,28
1766015859.3649879,24
1766015859.3649988,26
1766015859.36501,26
1766015859.3650198,27
1766015859.365031,26
1766015859.3650408,29
1766015859.365052,30
1766015859.365063,29
1766015859.365073,26
1766015859.365084,29
1766015859.365094,28
1766015859.365105,26
1766015859.365119,30
1766015859.365132,27
1766015859.365143,27
1766015859.365154,26
1766015859.365165,27
1766015859.365176,29
1766015859.365186,28
1766015859.365197,28
1766015859.3652081,25
1766015859.365219,27
1766015859.3652291,27
1766015859.36524,25
1766015859.365251,27
1766015859.365261,27
1766015859.365273,29
1766015859.3652842,27
1766015859.365294,26
1766015859.3653052,28
1766015859.3653162,33
1766015859.3653271,30
1766015859.365338,32
1766015859.365349,35
1766015859.36536,34
1766015859.365371,36
1766015859.365382,34
1766015859.3653939,35
1766015859.3654048,35
1766015859.365416,35
1766015859.3654249,33
1766015859.365435,34
1766015859.3654442,35
1766015859.3654542,33
1766015859.365463,33
1766015859.3654752,34
1766015859.365487,34
1766015859.365497,36
1766015859.365506,34
1766015859.365515,35
1766015859.365525,32
1766015859.365534,36
1766015859.3655438,41
1766015859.3655539,40
1766015859.3655639,43
1766015859.3655732,43
1766015859.3655832,41
1766015859.365592,44
1766015859.365602,45
1766015859.365611,45
1766015859.36562,47
1766015859.36563,42
1766015859.365639,45
1766015859.365649,47
1766015859.365658,41
1766015859.365668,44
1766015859.365679,47
1766015859.365689,45
1766015859.365698,43
1766015859.365708,44
1766015859.365717,44
1766015859.365727,41
1766015859.365737,41
1766015859.365747,45
1766015859.3657558,44
1766015859.365765,43
1766015859.3657742,44
1766015859.3657842,45
1766015859.365797,41
1766015859.365807,44
1766015859.365819,45
1766015859.365828,44
1766015859.365838,40
1766015859.365847,45
1766015859.3658571,40
1766015859.365867,43
1766015859.365876,41
1766015859.365886,44
1766015859.3658948,42
1766015859.3659039,43
1766015859.3659132,39
1766015859.3659232,39
1766015859.365933,41
1766015859.365943,43
1766015859.365953,39
1766015859.365962,39
1766015859.365972,40
1766015859.365982,42
1766015859.3659909,40
1766015859.366001,41
1766015859.366011,43
1766015859.3660212,41
1766015859.36603,38
1766015859.366039,39
1766015859.366048,40
1766015859.366057,38
1766015859.366068,40
1766015859.366078,41
1766015859.366087,37
1766015859.366097,39
1766015859.366106,38
1766015859.366116,40
1766015859.3661282,37
1766015859.3661408,42
1766015859.3661509,40
1766015859.3661609,39
1766015859.3661702,39
1766015859.366179,37
1766015859.366188,37
1766015859.366198,38
1766015859.366207,39
1766015859.366217,36
1766015859.366226,38
1766015859.3662348,40
1766015859.366245,40
1766015859.366255,39
1766015859.366265,36
1766015859.366275,39
1766015859.3662841,38
1766015859.366293,38
1766015859.366302,38
1766015859.366312,39
1766015859.3663208,37
1766015859.3663301,39
1766015859.366339,39
1766015859.366349,38
1766015859.366358,38
1766015859.366368,38
1766015859.3663769,36
1766015859.366386,39
1766015859.366395,38
1766015859.366405,37
1766015859.366414,36
1766015859.3664231,39
1766015859.366432,35
1766015859.3664472,38
1766015859.3664582,38
1766015859.3664682,38
1766015859.366477,35
1766015859.366486,38
1766015859.366496,36
1766015859.366506,37
1766015859.366515,36
1766015859.366524,36
1766015859.366533,38
1766015859.366542,38
1766015859.366551,39
1766015859.366561,37
1766015859.36657,38
1766015859.366579,35
1766015859.3665888,35
1766015859.366598,36
1766015859.3666072,35
1766015859.366616,35
1766015859.366626,34
1766015859.366636,38
1766015859.366645,37
1766015859.366654,38
1766015859.366663,37
1766015859.366673,39
1766015859.366682,35
1766015859.366692,36
1766015859.3667011,36
1766015859.36671,37
1766015859.36672,38
1766015859.366729,35
1766015859.3667378,39
1766015859.3667479,35
1766015859.366762,38
1766015859.366776,35
1766015859.366785,37
1766015859.366795,38
1766015859.366804,36
1766015859.366813,36
1766015859.366823,37
1766015859.366832,38
1766015859.366841,36
1766015859.3668501,37
1766015859.36686,36
1766015859.366869,36
1766015859.366879,36
1766015859.366889,37
1766015859.3668978,38
1766015859.366907,34
1766015859.3669162,37
1766015859.3669262,37
1766015859.366935,36
1766015859.366944,36
1766015859.366954,38
1766015859.3669639,35
1766015859.366973,37
1766015859.366983,37
1766015859.366993,35
1766015859.367002,35
1766015859.367011,37
1766015859.367021,37
1766015859.36703,35
1766015859.367039,34
1766015859.367049,34
1766015859.367058,32
1766015859.3670669,34
1766015859.36708,37
1766015859.367092,34
1766015859.367102,36
1766015859.367112,33
1766015859.367121,33
1766015859.36713,35
1766015859.367139,36
1766015859.367149,36
1766015859.367158,34
1766015859.367167,35
1766015859.367177,36
1766015859.3671858,37
1766015859.367195,36
1766015859.3672051,36
1766015859.367214,33
1766015859.367224,32
1766015859.367233,33
1766015859.367242,33
1766015859.3672519,33
1766015859.367261,33
1766015859.36727,30
1766015859.3672802,33
1766015859.367289,34
1766015859.367299,33
1766015859.3673081,35
1766015859.367317,34
1766015859.367327,35
1766015859.367337,35
1766015859.3673458,37
1766015859.3673549,31
1766015859.3673651,34
1766015859.3673742,32
1766015859.367384,34
1766015859.367401,33
1766015859.367414,34
1766015859.367423,34
1766015859.3674319,33
1766015859.367442,31
1766015859.367452,34
1766015859.3674612,34
1766015859.36747,34
1766015859.367479,31
1766015859.367489,35
1766015859.367498,34
1766015859.367507,32
1766015859.3675158,32
1766015859.367525,34
1766015859.367535,34
1766015859.3675442,33
1766015859.367553,34
1766015859.367562,31
1766015859.3675709,33
1766015859.367581,34
1766015859.36759,32
1766015859.367599,36
1766015859.367609,34
1766015859.367619,31
1766015859.367628,32
1766015859.367638,35
1766015859.367647,34
1766015859.367657,32
1766015859.367667,32
1766015859.367676,32
1766015859.367689,34
1766015859.367698,35
1766015859.367708,34
1766015859.36772,32
1766015859.3677309,35
1766015859.3677409,33
1766015859.367751,32
1766015859.36776,33
1766015859.3677702,32
1766015859.3677802,34
1766015859.367789,32
1766015859.367798,31
1766015859.367808,33
1766015859.3678179,31
1766015859.367827,34
1766015859.367836,36
1766015859.3678458,30
1766015859.367856,33
1766015859.367865,32
1766015859.367876,32
1766015859.367886,34
1766015859.3678951,35
1766015859.3679051,33
1766015859.367914,34
1766015859.367924,35
1766015859.367933,33
1766015859.3679428,33
1766015859.3679519,31
1766015859.3679621,34
1766015859.3679721,31
1766015859.367981,31
1766015859.36799,33
1766015859.368,29
1766015859.36801,33
1766015859.3680189,33
1766015859.368028,33
1766015859.368038,32
1766015859.368052,35
1766015859.368063,34
1766015859.368073,33
1766015859.368083,33
1766015859.368093,30
1766015859.3681018,32
1766015859.368112,34
1766015859.3681211,31
1766015859.368132,32
1766015859.3681412,34
1766015859.368151,36
1766015859.368161,34
1766015859.36817,35
1766015859.36818,34
1766015859.36819,33
1766015859.3681989,35
1766015859.368208,33
1766015859.3682182,33
1766015859.368227,32
1766015859.368236,33
1766015859.368246,33
1766015859.368255,34
1766015859.368265,33
1766015859.368274,33
1766015859.3682828,33
1766015859.368293,31
1766015859.368303,30
1766015859.368313,30
1766015859.3683221,31
1766015859.3683321,32
1766015859.368341,31
1766015859.368351,33
1766015859.36836,30
1766015859.368372,32
1766015859.368382,29
1766015859.3683908,34
1766015859.3683999,31
1766015859.36841,30
1766015859.3684921,27
1766015859.368502,30
1766015859.368511,30
1766015859.368521,31
1766015859.36853,31
1766015859.3685398,31
1766015859.368549,33
1766015859.3685591,28
1766015859.3685682,33
1766015859.368578,30
1766015859.368587,31
1766015859.368597,30
1766015859.3686059,33
1766015859.3686159,30
1766015859.368625,29
1766015859.368635,28
1766015859.368644,31
1766015859.368654,27
1766015859.368663,30
1766015859.368672,27
1766015859.368682,30
1766015859.368691,28
1766015859.368701,30
1766015859.3687098,28
1766015859.368719,28
1766015859.368729,32
1766015859.368738,28
1766015859.3687522,27
1766015859.368762,29
1766015859.368772,31
1766015859.368781,26
1766015859.368791,28
1766015859.3688,26
1766015859.36881,28
1766015859.368819,28
1766015859.368829,26
1766015859.368839,31
1766015859.3688488,26
1766015859.3688588,26
1766015859.368868,29
1766015859.3688781,26
1766015859.368887,28
1766015859.368897,27
1766015859.368907,28
1766015859.368917,27
1766015859.368927,25
1766015859.3689358,28
1766015859.368945,25
1766015859.368955,25
1766015859.3689651,26
1766015859.3689752,29
1766015859.368984,26
1766015859.368994,29
1766015859.369004,27
1766015859.369013,26
1766015859.369023,25
1766015859.3690329,24
1766015859.3690429,28
1766015859.369052,26
1766015859.369062,29
1766015859.369073,28
1766015859.369084,23
1766015859.3690932,26
1766015859.3691032,28
1766015859.369112,28
1766015859.369122,28
1766015859.369132,24
1766015859.369141,27
1766015859.3691509,24
1766015859.36916,27
1766015859.36917,25
1766015859.3691788,28
1766015859.369189,26
1766015859.369199,23
1766015859.369208,26
1766015859.369218,27
1766015859.369227,24
1766015859.369237,24
1766015859.369246,27
1766015859.369256,23
1766015859.3692648,27
1766015859.3692749,26
1766015859.369285,29
1766015859.3692951,27
1766015859.3693042,24
1766015859.369314,22
1766015859.369323,28
1766015859.369333,26
1766015859.3693419,26
1766015859.3693519,24
1766015859.3693619,26
1766015859.369371,25
1766015859.3693812,25
1766015859.3693929,24
1766015859.3694038,27
1766015859.3694139,24
1766015859.3694239,24
1766015859.369434,25
1766015859.3694432,26
1766015859.369453,25
1766015859.369462,25
1766015859.369471,26
1766015859.3694808,22
1766015859.3694909,23
1766015859.3695009,25
1766015859.36951,26
1766015859.369519,25
1766015859.369529,27
1766015859.369539,27
1766015859.369549,26
1766015859.369558,21
1766015859.369567,23
1766015859.369577,25
1766015859.369586,22
1766015859.369596,23
1766015859.369605,27
1766015859.369615,25
1766015859.3696241,24
1766015859.3696342,27
1766015859.369643,23
1766015859.369652,25
1766015859.369662,26
1766015859.3696718,25
1766015859.369681,25
1766015859.369691,23
1766015859.3697002,24
1766015859.36971,22
1766015859.3697228,22
1766015859.369733,23
1766015859.3697422,26
1766015859.3697522,21
1766015859.369761,20
1766015859.369771,23
1766015859.36978,23
1766015859.3697898,23
1766015859.369799,27
1766015859.369809,23
1766015859.3698182,23
1766015859.369827,27
1766015859.369837,27
1766015859.369846,24
1766015859.369856,21
1766015859.369865,25
1766015859.369875,23
1766015859.369885,25
1766015859.3698938,24
1766015859.369904,20
1766015859.369913,26
1766015859.369923,24
1766015859.3699331,23
1766015859.369942,25
1766015859.369952,25
1766015859.369961,22
1766015859.369971,23
1766015859.3699799,22
1766015859.3699892,25
1766015859.3699992,22
1766015859.370008,25
1766015859.370018,25
1766015859.370027,25
1766015859.370039,23
1766015859.3700511,24
1766015859.37006,24
1766015859.37007,23
1766015859.370079,26
1766015859.370089,23
1766015859.3700979,22
1766015859.370107,25
1766015859.3701172,26
1766015859.370126,27
1766015859.370136,25
1766015859.370145,23
1766015859.370155,23
1766015859.370164,23
1766015859.370173,23
1766015859.370183,27
1766015859.3701918,23
1766015859.370202,25
1766015859.370213,27
1766015859.370222,25
1766015859.370232,27
1766015859.370241,26
1766015859.37025,26
1766015859.37026,24
1766015859.3702688,24
1766015859.370278,25
1766015859.3702881,25
1766015859.3702981,24
1766015859.370307,26
1766015859.370316,24
1766015859.370326,26
1766015859.3703349,28
1766015859.370344,29
1766015859.370357,27
1766015859.370367,27
1766015859.3703759,29
1766015859.370386,29
1766015859.370395,26
1766015859.3704052,28
1766015859.370414,31
1766015859.370423,30
1766015859.370433,28
1766015859.370442,30
1766015859.370452,28
1766015859.370461,28
1766015859.370471,28
1766015859.37048,29
1766015859.3704891,31
1766015859.3704991,29
1766015859.370508,29
1766015859.370518,29
1766015859.370527,28
1766015859.3705359,29
1766015859.370545,31
1766015859.3705542,30
1766015859.370564,34
1766015859.370573,33
1766015859.370582,32
1766015859.370592,31
1766015859.370601,32
1766015859.37061,28
1766015859.37062,31
1766015859.370629,34
1766015859.370639,36
1766015859.3706481,37
1766015859.370657,36
1766015859.370666,39
1766015859.370689,41
1766015859.370699,40
1766015859.370709,40
1766015859.370718,40
1766015859.3707268,42
1766015859.3707361,41
1766015859.3707452,43
1766015859.370755,38
1766015859.370764,41
1766015859.370774,40
1766015859.370783,41
1766015859.370792,41
1766015859.370802,42
1766015859.370811,36
1766015859.37082,40
1766015859.37083,43
1766015859.370839,41
1766015859.370848,38
1766015859.370858,40
1766015859.370867,41
1766015859.370877,41
1766015859.3708858,41
1766015859.3708951,41
1766015859.370904,40
1766015859.370914,39
1766015859.370923,40
1766015859.370933,43
1766015859.3709419,42
1766015859.370951,41
1766015859.3709598,41
1766015859.37097,42
1766015859.370979,40
1766015859.3709881,43
1766015859.371001,38
1766015859.3710139,42
1766015859.3710232,41
1766015859.3710332,42
1766015859.371042,43
1766015859.371051,42
1766015859.371061,43
1766015859.37107,43
1766015859.37108,40
1766015859.371089,44
1766015859.371098,44
1766015859.371108,46
1766015859.371117,44
1766015859.371126,46
1766015859.371136,48
1766015859.371145,45
1766015859.371155,49
1766015859.3711638,45
1766015859.3711731,49
1766015859.3711832,46
1766015859.371192,46
1766015859.371202,50
1766015859.371211,52
1766015859.3712199,53
1766015859.37123,57
1766015859.371239,56
1766015859.371249,55
1766015859.371258,55
1766015859.371267,58
1766015859.371277,60
1766015859.371286,58
1766015859.371296,63
1766015859.371305,58
1766015859.3713212,59
1766015859.3713331,61
1766015859.3713422,61
1766015859.371352,63
1766015859.371362,58
1766015859.371371,59
1766015859.371381,59
1766015859.371389,61
1766015859.371398,61
1766015859.371406,57
1766015859.3714151,57
1766015859.371424,60
1766015859.3714402,56
1766015859.371448,60
1766015859.371457,61
1766015859.371465,61
1766015859.3714728,58
1766015859.3714812,59
1766015859.37149,58
1766015859.3714979,60
1766015859.371506,57
1766015859.3715148,56
1766015859.371524,56
1766015859.371532,57
1766015859.37154,57
1766015859.371548,57
1766015859.371556,57
1766015859.371565,57
1766015859.371573,57
1766015859.3715808,56
1766015859.37159,58
1766015859.371598,59
1766015859.371606,58
1766015859.371617,62
1766015859.371627,60
1766015859.371635,61
1766015859.3716428,59
1766015859.3716521,57
1766015859.37166,59
1766015859.3716679,62
1766015859.371677,58
1766015859.371685,57
1766015859.3716931,59
1766015859.371701,58
1766015859.3717089,62
1766015859.371718,61
1766015859.371726,62
1766015859.371734,64
1766015859.371742,61
1766015859.3717499,61
1766015859.371758,60
1766015859.371767,61
1766015859.371775,60
1766015859.371783,62
1766015859.3717911,63
1766015859.3718,57
1766015859.371808,60
1766015859.371816,59
1766015859.371824,54
1766015859.371833,60
1766015859.371841,65
1766015859.371849,64
1766015859.371858,61
1766015859.3718662,65
1766015859.371874,65
1766015859.371882,68
1766015859.371893,70
1766015859.371903,69
1766015859.371912,70
1766015859.3719199,69
1766015859.371928,69
1766015859.371936,67
1766015859.371944,67
1766015859.371953,64
1766015859.371961,66
1766015859.371969,65
1766015859.3719769,64
1766015859.371985,64
1766015859.371994,63
1766015859.3720021,63
1766015859.372011,65
1766015859.372019,64
1766015859.372027,66
1766015859.372035,61
1766015859.372044,58
1766015859.372052,64
1766015859.372061,59
1766015859.3720691,65
1766015859.372077,64
1766015859.372085,60
1766015859.372094,58
1766015859.3721018,62
1766015859.3721101,63
1766015859.372119,61
1766015859.372127,60
1766015859.372135,61
1766015859.372143,61
1766015859.372152,62
1766015859.37216,61
1766015859.3721752,60
1766015859.372184,59
1766015859.372192,62
1766015859.3722,59
1766015859.372208,61
1766015859.372216,62
1766015859.372225,61
1766015859.372233,61
1766015859.3722408,60
1766015859.3722491,60
1766015859.372257,58
1766015859.372266,57
1766015859.372274,55
1766015859.372282,55
1766015859.372291,59
1766015859.372299,61
1766015859.372307,59
1766015859.372316,57
1766015859.372324,60
1766015859.372332,58
1766015859.37234,58
1766015859.372349,54
1766015859.3723571,58
1766015859.372365,60
1766015859.372374,58
1766015859.372382,57
1766015859.3723898,59
1766015859.372399,58
1766015859.372407,55
1766015859.372415,57
1766015859.372423,57
1766015859.3724318,53
1766015859.37244,55
1766015859.372452,57
1766015859.372461,54
1766015859.372469,59
1766015859.3724768,54
1766015859.3724859,57
1766015859.372494,54
1766015859.372502,57
1766015859.372511,57
1766015859.372519,55
1766015859.3725271,53
1766015859.3725362,54
1766015859.372544,57
1766015859.372552,55
1766015859.372561,54
1766015859.372569,53
1766015859.372577,56
1766015859.372586,54
1766015859.3725939,55
1766015859.3726022,54
1766015859.37261,58
1766015859.372618,55
1766015859.372627,55
1766015859.372635,54
1766015859.372643,57
1766015859.372652,54
1766015859.37266,57
1766015859.3726678,54
1766015859.372677,57
1766015859.372685,54
1766015859.372693,52
1766015859.372701,54
1766015859.37271,57
1766015859.372721,59
1766015859.372731,56
1766015859.372739,57
1766015859.372747,55
1766015859.372756,56
1766015859.3727639,54
1766015859.372772,54
1766015859.372781,54
1766015859.372789,52
1766015859.372797,56
1766015859.3728058,56
1766015859.3728142,56
1766015859.372822,52
1766015859.3728309,54
1766015859.372839,53
1766015859.372847,53
1766015859.3728561,51
1766015859.372864,55
1766015859.372873,54
1766015859.372881,51
1766015859.372889,51
1766015859.372897,51
1766015859.372905,54
1766015859.3729138,52
1766015859.3729222,53
1766015859.37293,50
1766015859.372939,48
1766015859.372947,51
1766015859.3729558,51
1766015859.3729641,51
1766015859.372972,51
1766015859.372981,51
1766015859.372989,52
1766015859.3730009,52
1766015859.3730109,50
1766015859.373019,48
1766015859.373027,49
1766015859.3730361,50
1766015859.373044,48
1766015859.373052,49
1766015859.37306,50
1766015859.373069,47
1766015859.373077,50
1766015859.373085,46
1766015859.3730938,49
1766015859.3731022,48
1766015859.37311,48
1766015859.3731189,48
1766015859.373127,49
1766015859.373135,52
1766015859.373143,51
1766015859.373151,48
1766015859.37316,48
1766015859.3731682,50
1766015859.373176,51
1766015859.373186,50
1766015859.373194,52
1766015859.373203,49
1766015859.373211,50
1766015859.3732202,50
1766015859.373228,49
1766015859.373237,48
1766015859.373245,51
1766015859.3732538,50
1766015859.3732622,48
1766015859.373271,52
1766015859.373285,47
1766015859.373294,51
1766015859.373302,50
1766015859.373311,52
1766015859.373319,52
1766015859.373327,51
1766015859.3733351,49
1766015859.373344,51
1766015859.373352,51
1766015859.3733602,50
1766015859.373369,50
1766015859.373377,49
1766015859.373385,49
1766015859.3733928,53
1766015859.3734012,48
1766015859.37341,48
1766015859.373418,46
1766015859.373426,48
1766015859.373434,53
1766015859.3734431,51
1766015859.373451,50
1766015859.3734589,50
1766015859.373468,49
1766015859.373476,49
1766015859.3734841,48
1766015859.373493,46
1766015859.3735008,46
1766015859.3735092,48
1766015859.373518,47
1766015859.373526,49
1766015859.373535,49
1766015859.373544,46
1766015859.373552,46
1766015859.373566,46
1766015859.3735738,48
1766015859.373583,48
1766015859.373591,48
1766015859.3736,48
1766015859.3736079,45
1766015859.3736162,46
1766015859.373625,48
1766015859.373634,48
1766015859.373642,47
1766015859.3736498,46
1766015859.373659,48
1766015859.373667,45
1766015859.373675,46
1766015859.373684,45
1766015859.3736918,44
1766015859.373701,46
1766015859.373709,46
1766015859.373717,45
1766015859.373726,45
1766015859.373734,47
1766015859.373743,46
1766015859.373752,47
1766015859.37376,47
1766015859.373769,45
1766015859.373777,44
1766015859.3737862,45
1766015859.373794,45
1766015859.373803,43
1766015859.373812,44
1766015859.3738198,45
1766015859.3738291,45
1766015859.3738399,44
1766015859.37385,45
1766015859.373858,44
1766015859.373867,44
1766015859.3738759,42
1766015859.373884,45
1766015859.373893,44
1766015859.373902,44
1766015859.37391,42
1766015859.373919,44
1766015859.3739278,45
1766015859.3739362,46
1766015859.373945,45
1766015859.373954,41
1766015859.373962,44
1766015859.373971,42
1766015859.3739798,43
1766015859.3739882,42
1766015859.373997,40
1766015859.374006,46
1766015859.374015,43
1766015859.374023,42
1766015859.3740318,44
1766015859.3740401,42
1766015859.374049,40
1766015859.374057,42
1766015859.3740659,38
1766015859.3740742,40
1766015859.374083,41
1766015859.374092,44
1766015859.3741,39
1766015859.374109,40
1766015859.3741171,41
1766015859.3741288,41
1766015859.3741388,39
1766015859.3741481,38
1766015859.374156,39
1766015859.374165,39
1766015859.3741739,42
1766015859.374182,37
1766015859.374191,38
1766015859.3742,40
1766015859.374208,40
1766015859.3742158,39
1766015859.374225,39
1766015859.3742342,38
1766015859.374242,37
1766015859.374251,38
1766015859.374259,37
1766015859.3742669,37
1766015859.3742762,37
1766015859.374284,36
1766015859.374292,38
1766015859.374301,36
1766015859.374309,38
1766015859.3743181,34
1766015859.374327,35
1766015859.374335,35
1766015859.3743439,36
1766015859.374352,35
1766015859.374361,33
1766015859.374369,37
1766015859.374377,35
1766015859.3743858,36
1766015859.3743942,33
1766015859.374402,35
1766015859.374414,34
1766015859.374424,33
1766015859.374432,31
1766015859.374441,33
1766015859.37445,33
1766015859.374458,33
1766015859.3744671,37
1766015859.374475,36
1766015859.374484,33
1766015859.374493,30
1766015859.3745012,33
1766015859.37451,33
1766015859.374519,36
1766015859.374527,33
1766015859.374536,33
1766015859.374544,29
1766015859.3745532,32
1766015859.374561,33
1766015859.37457,32
1766015859.374579,28
1766015859.374588,30
1766015859.374596,35
1766015859.374605,28
1766015859.374614,31
1766015859.3746219,30
1766015859.374631,28
1766015859.3746402,32
1766015859.374648,30
1766015859.374657,29
1766015859.374666,27
1766015859.374675,32
1766015859.374683,32
1766015859.3746922,32
1766015859.3747041,30
1766015859.3747141,30
1766015859.374722,31
1766015859.3747299,29
1766015859.374739,31
1766015859.3747468,29
1766015859.374756,29
1766015859.374764,28
1766015859.374773,32
1766015859.374781,29
1766015859.3747892,30
1766015859.374798,27
1766015859.374806,29
1766015859.374815,29
1766015859.3748229,28
1766015859.3748322,28
1766015859.374841,29
1766015859.374849,27
1766015859.374858,28
1766015859.374866,27
1766015859.3748748,30
1766015859.3748832,29
1766015859.374892,26
1766015859.374901,28
1766015859.374909,27
1766015859.374918,27
1766015859.374926,28
1766015859.3749352,23
1766015859.374944,28
1766015859.3749518,26
1766015859.374961,27
1766015859.3749702,26
1766015859.374978,29
1766015859.374992,29
1766015859.375,24
1766015859.375009,26
1766015859.375017,28
1766015859.375026,29
1766015859.3750348,26
1766015859.3750432,23
1766015859.375051,29
1766015859.37506,26
1766015859.375068,25
1766015859.375077,27
1766015859.375085,23
1766015859.375094,25
1766015859.375102,27
1766015859.3751109,27
1766015859.37512,31
1766015859.375128,24
1766015859.375137,27
1766015859.375146,24
1766015859.375155,25
1766015859.3751628,26
1766015859.3751721,25
1766015859.375181,27
1766015859.375189,26
1766015859.375198,26
1766015859.375207,24
1766015859.3752162,23
1766015859.375224,26
1766015859.375233,27
1766015859.375242,27
1766015859.3752499,25
1766015859.375259,26
1766015859.37527,25
1766015859.3752801,27
1766015859.3752892,24
1766015859.375298,25
1766015859.375306,25
1766015859.375315,28
1766015859.3753228,23
1766015859.375332,27
1766015859.37534,25
1766015859.375349,25
1766015859.375357,23
1766015859.375366,27
1766015859.375374,25
1766015859.375382,25
1766015859.375391,23
1766015859.3753989,24
1766015859.3754082,24
1766015859.375416,24
1766015859.375424,25
1766015859.375433,25
1766015859.3754408,24
1766015859.3754501,25
1766015859.375458,26
1766015859.375467,25
1766015859.375475,26
1766015859.375484,24
1766015859.375492,28
1766015859.3755,27
1766015859.375509,24
1766015859.375517,25
1766015859.375526,24
1766015859.375534,26
1766015859.375542,25
1766015859.375551,23
1766015859.375562,27
1766015859.375571,26
1766015859.3755798,27
1766015859.3755882,26
1766015859.375597,23
1766015859.375605,24
1766015859.375614,22
1766015859.375623,21
1766015859.375631,23
1766015859.3756402,25
1766015859.375648,24
1766015859.3756568,23
1766015859.375665,23
1766015859.375673,25
1766015859.375682,23
1766015859.375691,23
1766015859.375699,24
1766015859.375707,27
1766015859.375715,23
1766015859.375724,24
1766015859.375733,24
1766015859.375741,24
1766015859.3757498,23
1766015859.3757582,20
1766015859.375766,26
1766015859.3757749,26
1766015859.375784,26
1766015859.375792,25
1766015859.3758001,20
1766015859.375808,24
1766015859.375817,23
1766015859.375825,22
1766015859.375833,24
1766015859.3758452,24
1766015859.375854,26
1766015859.375863,23
1766015859.375871,26
1766015859.3758788,25
1766015859.3758872,23
1766015859.375895,24
1766015859.375904,26
1766015859.375912,25
1766015859.375921,26
1766015859.375929,24
1766015859.375937,25
1766015859.3759449,25
1766015859.375954,22
1766015859.375962,23
1766015859.375971,22
1766015859.375979,26
1766015859.375987,25
1766015859.3759959,24
1766015859.3760052,25
1766015859.376013,23
1766015859.376022,22
1766015859.37603,25
1766015859.376039,25
1766015859.3760471,24
1766015859.376056,24
1766015859.376064,26
1766015859.376072,21
1766015859.376081,23
1766015859.37609,26
1766015859.3760982,24
1766015859.376107,24
1766015859.3761148,26
1766015859.3761249,23
1766015859.3761349,25
1766015859.376144,23
1766015859.376153,26
1766015859.376161,24
1766015859.37617,23
1766015859.376179,25
1766015859.3761868,24
1766015859.376195,26
1766015859.376204,24
1766015859.376212,25
1766015859.37622,24
1766015859.376229,23
1766015859.3762372,26
1766015859.376246,26
1766015859.3762538,23
1766015859.376263,25
1766015859.376271,22
1766015859.376279,26
1766015859.376288,25
1766015859.376296,21
1766015859.3763041,25
1766015859.376313,25
1766015859.376321,26
1766015859.376329,19
1766015859.376338,22
1766015859.376346,26
1766015859.3763552,25
1766015859.376364,25
1766015859.3763719,22
1766015859.37638,25
1766015859.376389,28
1766015859.376398,25
1766015859.3764071,24
1766015859.376417,22
1766015859.3764281,25
1766015859.376437,22
1766015859.3764448,28
1766015859.3764539,23
1766015859.376462,24
1766015859.37647,25
1766015859.376479,25
1766015859.376488,25
1766015859.3764968,24
1766015859.3765051,22
1766015859.376514,24
1766015859.376523,22
1766015859.376531,25
1766015859.37654,22
1766015859.376548,23
1766015859.376557,24
1766015859.376565,25
1766015859.3765728,25
1766015859.376582,27
1766015859.3765912,25
1766015859.376599,25
1766015859.376608,24
1766015859.376616,25
1766015859.3766248,24
1766015859.3766332,23
1766015859.376642,23
1766015859.37665,25
1766015859.376659,23
1766015859.3766668,21
1766015859.376676,22
1766015859.376684,24
1766015859.376693,26
1766015859.376705,25
1766015859.376715,22
1766015859.376724,24
1766015859.3767319,24
1766015859.37674,25
1766015859.376748,25
1766015859.376757,23
1766015859.376765,22
1766015859.3767738,23
1766015859.3767822,26
1766015859.376791,24
1766015859.3767989,24
1766015859.376807,26
1766015859.376816,25
1766015859.3768241,24
1766015859.376832,25
1766015859.3768399,26
1766015859.376849,25
1766015859.376857,22
1766015859.376865,25
1766015859.376874,23
1766015859.376883,27
1766015859.376891,25
1766015859.3769002,23
1766015859.376908,24
1766015859.376916,26
1766015859.376925,23
1766015859.376933,22
1766015859.376941,26
1766015859.37695,26
1766015859.376958,26
1766015859.376967,23
1766015859.376975,25
1766015859.376986,24
1766015859.3769972,26
1766015859.377005,25
1766015859.377013,27
1766015859.377022,26
1766015859.37703,25
1766015859.377038,28
1766015859.377046,25
1766015859.377055,28
1766015859.3770628,27
1766015859.377072,24
1766015859.37708,25
1766015859.377089,28
1766015859.377097,26
1766015859.377105,27
1766015859.377114,26
1766015859.3771222,27
1766015859.377131,26
1766015859.3771389,28
1766015859.377148,27
1766015859.377156,26
1766015859.377165,25
1766015859.377173,26
1766015859.377182,24
1766015859.3771899,25
1766015859.3771992,27
1766015859.377207,28
1766015859.377216,25
1766015859.377224,26
1766015859.3772318,26
1766015859.3772411,26
1766015859.377249,23
1766015859.3772569,29
1766015859.377269,26
1766015859.377279,30
1766015859.377287,29
1766015859.377296,28
1766015859.377304,25
1766015859.3773131,24
1766015859.377321,26
1766015859.3773298,26
1766015859.3773382,27
1766015859.377346,25
1766015859.377355,28
1766015859.377363,28
1766015859.3773718,27
1766015859.3773801,29
1766015859.377389,27
1766015859.377397,24
1766015859.377406,26
1766015859.377415,26
1766015859.377423,26
1766015859.3774312,26
1766015859.377439,25
1766015859.3774478,28
1766015859.377457,26
1766015859.377465,24
1766015859.377474,27
1766015859.377483,25
1766015859.377491,25
1766015859.3774998,25
1766015859.3775082,24
1766015859.377517,26
1766015859.377525,27
1766015859.377534,25
1766015859.377543,26
1766015859.377554,27
1766015859.377564,29
1766015859.377572,27
1766015859.3775811,27
1766015859.377589,25
1766015859.377598,27
1766015859.377606,27
1766015859.377614,27
1766015859.377623,29
1766015859.377631,27
1766015859.37764,25
1766015859.377648,27
1766015859.377656,30
1766015859.377665,28
1766015859.377673,24
1766015859.3776808,26
1766015859.377692,23
1766015859.3777,28
1766015859.3777092,28
1766015859.377718,25
1766015859.3777258,24
1766015859.377735,26
1766015859.377743,27
1766015859.377752,25
1766015859.37776,22
1766015859.377768,27
1766015859.3777761,23
1766015859.3777852,25
1766015859.377793,27
1766015859.377801,25
1766015859.37781,25
1766015859.377818,24
1766015859.3778272,23
1766015859.37784,27
1766015859.37785,26
1766015859.377859,25
1766015859.377867,25
1766015859.3778749,26
1766015859.377884,25
1766015859.377892,27
1766015859.3779001,23
1766015859.377909,27
1766015859.377918,23
1766015859.3779259,23
1766015859.3779352,26
1766015859.377943,25
1766015859.377952,24
1766015859.37796,23
1766015859.3779688,25
1766015859.3779771,26
1766015859.377986,25
1766015859.377995,25
1766015859.378003,25
1766015859.378012,28
1766015859.378021,24
1766015859.378029,25
1766015859.378038,26
1766015859.378046,27
1766015859.3780549,26
1766015859.3780632,22
1766015859.378072,24
1766015859.378081,25
1766015859.37809,25
1766015859.378098,24
1766015859.3781068,25
1766015859.3781161,20
1766015859.378127,27
1766015859.378137,26
1766015859.378146,23
1766015859.378155,26
1766015859.3781629,24
1766015859.378172,22
1766015859.3781812,23
1766015859.378189,27
1766015859.378198,26
1766015859.378207,24
1766015859.378216,23
1766015859.3782241,26
1766015859.3782332,25
1766015859.378241,25
1766015859.37825,23
1766015859.378258,24
1766015859.378268,26
1766015859.378276,25
1766015859.3782852,25
1766015859.378293,27
1766015859.3783019,27
1766015859.378311,23
1766015859.378319,25
1766015859.378328,21
1766015859.378336,25
1766015859.378345,23
1766015859.3783529,23
1766015859.3783622,23
1766015859.37837,23
1766015859.378378,24
1766015859.378387,26
1766015859.3783958,24
1766015859.378405,26
1766015859.378413,24
1766015859.378422,21
1766015859.37843,25
1766015859.378439,22
1766015859.3784478,23
1766015859.378456,23
1766015859.378465,23
1766015859.378473,25
1766015859.3784819,23
1766015859.3784902,22
1766015859.378499,22
1766015859.378508,21
1766015859.378516,23
1766015859.3785238,24
1766015859.3785331,22
1766015859.378541,27
1766015859.37855,21
1766015859.378558,26
1766015859.3785658,22
1766015859.378575,23
1766015859.378583,24
1766015859.378591,25
1766015859.3786,23
1766015859.378609,24
1766015859.378617,25
1766015859.378625,22
1766015859.378635,21
1766015859.378644,23
1766015859.3786528,22
1766015859.3786619,23
1766015859.3786712,21
1766015859.37868,22
1766015859.378688,22
1766015859.378697,23
1766015859.378706,24
1766015859.378714,21
1766015859.3787231,21
1766015859.378731,22
1766015859.37874,24
1766015859.378748,22
1766015859.3787572,26
1766015859.378766,23
1766015859.3787751,23
1766015859.378783,23
1766015859.378792,19
1766015859.3788009,22
1766015859.378809,21
1766015859.378818,24
1766015859.378826,23
1766015859.378835,26
1766015859.378844,22
1766015859.3788521,24
1766015859.378861,23
1766015859.37887,27
1766015859.3788779,24
1766015859.378886,23
1766015859.378895,24
1766015859.3789032,24
1766015859.378911,22
1766015859.378921,23
1766015859.3789382,24
1766015859.378946,24
1766015859.378956,22
1766015859.378967,24
1766015859.378977,25
1766015859.378988,24
1766015859.378998,24
1766015859.379005,26
1766015859.379013,22
1766015859.3790212,26
1766015859.379028,24
1766015859.379035,21
1766015859.379041,24
1766015859.379045,25
1766015859.37905,23
1766015859.379055,24
1766015859.3790588,27
1766015859.379064,25
1766015859.3790689,25
1766015859.3790731,26
1766015859.379078,26
1766015859.379082,26
1766015859.379086,25
1766015859.379091,24
1766015859.379095,24
1766015859.3790998,25
1766015859.379105,24
1766015859.3791099,24
1766015859.379114,25
1766015859.3791192,25
1766015859.379123,25
1766015859.379127,23
1766015859.3791318,25
1766015859.379137,24
1766015859.379141,27
1766015859.379146,23
1766015859.3791502,23
1766015859.379155,25
1766015859.379159,23
1766015859.379164,24
1766015859.379168,24
1766015859.379173,25
1766015859.3791769,24
1766015859.379182,24
1766015859.3791869,23
1766015859.379191,27
1766015859.379196,27
1766015859.3792,25
1766015859.3792052,25
1766015859.37921,27
1766015859.379215,25
1766015859.379219,26
1766015859.379224,25
1766015859.3792288,26
1766015859.3792331,26
1766015859.379238,25
1766015859.379242,27
1766015859.3792472,27
1766015859.379252,27
1766015859.379256,25
1766015859.379261,25
1766015859.379265,25
1766015859.3792698,29
1766015859.379274,26
1766015859.3792791,27
1766015859.379283,27
1766015859.379287,28
1766015859.379292,26
1766015859.379296,29
1766015859.379301,29
1766015859.379305,28
1766015859.3793101,26
1766015859.379314,27
1766015859.379319,25
1766015859.379324,25
1766015859.379328,25
1766015859.379333,28
1766015859.379337,31
1766015859.3793411,29
1766015859.379346,30
1766015859.37935,30
1766015859.379355,28
1766015859.379359,27
1766015859.379364,31
1766015859.3793678,25
1766015859.379373,26
1766015859.379377,29
1766015859.3793821,28
1766015859.379387,27
1766015859.379391,29
1766015859.3793962,32
1766015859.379401,27
1766015859.379405,29
1766015859.37941,30
1766015859.379414,27
1766015859.3794188,28
1766015859.379424,29
1766015859.3794281,31
1766015859.379433,28
1766015859.379437,26
1766015859.3794408,28
1766015859.379446,29
1766015859.3794508,28
1766015859.379455,31
1766015859.37946,31
1766015859.379464,29
1766015859.3794692,29
1766015859.379473,29
1766015859.379478,26
1766015859.379482,25
1766015859.379487,30
1766015859.379491,26
1766015859.3794959,27
1766015859.3795002,25
1766015859.379505,27
1766015859.379509,29
1766015859.3795142,29
1766015859.379518,24
1766015859.379523,26
1766015859.379528,26
1766015859.379532,27
1766015859.3795369,28
1766015859.379541,24
1766015859.3795462,27
1766015859.37955,29
1766015859.379555,29
1766015859.3795588,24
1766015859.379564,27
1766015859.3795688,25
1766015859.379573,23
1766015859.379578,26
1766015859.379582,25
1766015859.3795872,25
1766015859.379591,29
1766015859.379596,28
1766015859.3795998,27
1766015859.379605,26
1766015859.37961,26
1766015859.3796139,26
1766015859.3796191,26
1766015859.379623,24
1766015859.379628,23
1766015859.379633,23
1766015859.379637,28
1766015859.379642,27
1766015859.379646,26
1766015859.379651,28
1766015859.379655,27
1766015859.3796601,27
1766015859.379664,24
1766015859.379669,28
1766015859.379673,25
1766015859.379678,29
1766015859.379683,27
1766015859.379689,21
1766015859.3796952,30
1766015859.379699,27
1766015859.379704,26
1766015859.3797078,25
1766015859.379713,27
1766015859.379717,26
1766015859.3797219,28
1766015859.3797262,28
1766015859.3807402,26
1766015859.381728,26
1766015859.3827431,30
1766015859.383741,25
1766015859.384765,25
1766015859.385747,26
1766015859.386751,28
1766015859.3877828,25
1766015859.388769,25
1766015859.3897521,25
1766015859.390795,25
1766015859.391813,24
1766015859.392844,25
1766015859.393821,28
1766015859.394832,26
1766015859.3958101,25
1766015859.39682,26
1766015859.397805,28
1766015859.398804,27
1766015859.39982,25
1766015859.4008179,24
1766015859.401802,26
1766015859.402836,24
1766015859.403829,27
1766015859.4048278,26
1766015859.405805,26
1766015859.4068449,26
1766015859.407846,25
1766015859.4088519,23
1766015859.4098701,26
1766015859.4108422,27
1766015859.41183,27
1766015859.412859,26
1766015859.41387,24
1766015859.414855,22
1766015859.4158678,27
1766015859.4168692,22
1766015859.417881,21
1766015859.4188879,25
1766015859.419877,26
1766015859.420892,21
1766015859.421897,26
1766015859.4228969,25
1766015859.4239051,24
1766015859.424909,23
1766015859.425892,23
1766015859.426888,23
1766015859.427912,23
1766015859.428902,23
1766015859.4299269,23
1766015859.430895,23
1766015859.4319181,21
1766015859.4329119,22
1766015859.4339359,21
1766015859.434913,23
1766015859.4359171,27
1766015859.4369311,23
1766015859.437942,23
1766015859.43893,23
1766015859.439929,25
1766015859.440955,23
1766015859.441943,23
1766015859.442925,21
1766015859.443969,24
1766015859.4449449,22
1766015859.445947,20
1766015859.4469671,21
1766015859.4479492,23
1766015859.44897,22
1766015859.449968,24
1766015859.450974,20
1766015859.45196,23
1766015859.4529731,25
1766015859.4539719,21
1766015859.4549801,24
1766015859.455989,22
1766015859.456995,23
1766015859.4580019,22
1766015859.459006,23
1766015859.460022,22
1766015859.4610088,24
1766015859.462067,23
1766015859.4630349,22
1766015859.464001,23
1766015859.465,21
1766015859.466014,23
1766015859.467008,24
1766015859.468009,25
1766015859.469038,23
1766015859.469978,21
1766015859.471012,22
1766015859.4720159,22
1766015859.473073,25
1766015859.4741042,21
1766015859.475141,24
1766015859.47614,23
1766015859.477151,22
1766015859.478078,21
1766015859.479129,21
1766015859.480135,23
1766015859.481122,25
1766015859.4821172,21
1766015859.4831092,25
1766015859.4841092,25
1766015859.4851131,25
1766015859.486103,22
1766015859.4870741,20
1766015859.48811,22
1766015859.4891222,22
1766015859.490077,22
1766015859.491107,24
1766015859.492105,25
1766015859.493105,21
1766015859.4940832,25
1766015859.4950778,22
1766015859.496107,20
1766015859.4971251,20
1766015859.498077,20
1766015859.4991481,24
1766015859.500127,21
1766015859.5010839,21
1766015859.502126,22
1766015859.503119,22
1766015859.504086,23
1766015859.505099,21
1766015859.506101,22
1766015859.507159,25
1766015859.508141,23
1766015859.509155,23
1766015859.5101418,24
1766015859.511161,23
1766015859.512152,22
1766015859.513149,22
1766015859.5141609,18
1766015859.51516,21
1766015859.516165,23
1766015859.5171719,22
1766015859.518183,21
1766015859.51918,25
1766015859.5201678,20
1766015859.52119,20
1766015859.5221791,21
1766015859.523176,20
1766015859.524189,24
1766015859.525194,19
1766015859.526191,21
1766015859.527188,21
1766015859.528191,23
1766015859.5292149,23
1766015859.530199,21
1766015859.531209,23
1766015859.532205,23
1766015859.533216,22
1766015859.534208,22
1766015859.53523,21
1766015859.536227,25
1766015859.537228,21
1766015859.5382369,23
1766015859.539235,26
1766015859.540252,19
1766015859.541274,20
1766015859.542254,22
1766015859.543259,22
1766015859.5442638,20
1766015859.545294,23
1766015859.5462668,21
1766015859.547282,26
1766015859.5482821,21
1766015859.549282,21
1766015859.5502899,20
1766015859.551276,23
1766015859.552295,23
1766015859.5533051,24
1766015859.554294,22
1766015859.5552871,23
1766015859.5563252,23
1766015859.557322,21
1766015859.55836,22
1766015859.559358,22
1766015859.560408,23
1766015859.561316,21
1766015859.5623229,21
1766015859.56338,22
1766015859.564338,21
1766015859.5653389,21
1766015859.566339,21
1766015859.5673332,22
1766015859.568332,22
1766015859.569328,21
1766015859.570334,18
1766015859.571331,20
1766015859.572352,21
1766015859.573337,23
1766015859.574344,21
1766015859.575344,24
1766015859.576315,19
1766015859.577333,23
1766015859.578331,22
1766015859.5793211,21
1766015859.58032,23
1766015859.581343,21
1766015859.582349,21
1766015859.583322,23
1766015859.584339,22
1766015859.585349,22
1766015859.58636,22
1766015859.587378,21
1766015859.5883572,22
1766015859.5893602,23
1766015859.590354,21
1766015859.5913548,19
1766015859.592351,24
1766015859.5933561,21
1766015859.5943758,23
1766015859.595366,21
1766015859.5963788,21
1766015859.597406,20
1766015859.598457,25
1766015859.5994182,19
1766015859.600411,22
1766015859.601444,22
1766015859.602428,21
1766015859.6034229,20
1766015859.604427,21
1766015859.605453,23
1766015859.606432,21
1766015859.607411,22
1766015859.608435,22
1766015859.6094248,22
1766015859.610427,23
1766015859.611448,23
1766015859.612467,21
1766015859.61346,22
1766015859.614466,23
1766015859.615477,22
1766015859.6164749,23
1766015859.617476,21
1766015859.618475,23
1766015859.619491,23
1766015859.62048,25
1766015859.621577,24
1766015859.622514,21
1766015859.6234949,22
1766015859.6245031,20
1766015859.62553,20
1766015859.6265101,21
1766015859.627499,22
1766015859.628534,21
1766015859.629534,24
1766015859.630539,23
1766015859.63153,22
1766015859.632533,23
1766015859.6335301,22
1766015859.634548,25
1766015859.635526,22
1766015859.636523,22
1766015859.637537,25
1766015859.638541,20
1766015859.639522,24
1766015859.6405509,24
1766015859.641556,24
1766015859.642535,27
1766015859.643553,24
1766015859.644557,20
1766015859.6455429,26
1766015859.646569,21
1766015859.647548,25
1766015859.64857,23
1766015859.6495721,25
1766015859.650591,25
1766015859.6515598,25
1766015859.652565,23
1766015859.653579,20
1766015859.6545768,23
1766015859.6555781,24
1766015859.6565828,28
1766015859.657582,25
1766015859.658589,27
1766015859.6595929,27
1766015859.660619,29
1766015859.6615958,28
1766015859.6626098,31
1766015859.663597,26
1766015859.664612,29
1766015859.665617,25
1766015859.6666281,29
1766015859.667628,25
1766015859.668612,28
1766015859.6696231,29
1766015859.670624,29
1766015859.671627,28
1766015859.6726332,28
1766015859.673633,26
1766015859.67464,25
1766015859.6756601,30
1766015859.676663,30
1766015859.677643,27
1766015859.678665,28
1766015859.679662,28
1766015859.680678,30
1766015859.6816561,29
1766015859.682663,30
1766015859.683645,27
1766015859.684649,32
1766015859.6856399,28
1766015859.68666,26
1766015859.687648,34
1766015859.688677,27
1766015859.689675,33
1766015859.690676,33
1766015859.691678,30
1766015859.692689,31
1766015859.6936882,35
1766015859.694699,34
1766015859.695703,33
1766015859.696697,30
1766015859.697716,31
1766015859.698723,34
1766015859.69972,33
1766015859.70072,33
1766015859.701718,32
1766015859.7027268,31
1766015859.70374,33
1766015859.704723,34
1766015859.705732,36
1766015859.706728,31
1766015859.707742,34
1766015859.708724,35
1766015859.709752,35
1766015859.710743,33
1766015859.711757,32
1766015859.7127512,32
1766015859.713758,35
1766015859.714766,36
1766015859.7157602,36
1766015859.716769,40
1766015859.7177799,38
1766015859.718782,38
1766015859.719789,36
1766015859.720789,38
1766015859.72176,42
1766015859.72281,45
1766015859.723781,47
1766015859.7247949,49
1766015859.7258,46
1766015859.726808,49
1766015859.7278101,45
1766015859.728811,44
1766015859.7298272,47
1766015859.7308302,46
1766015859.7318232,44
1766015859.732822,47
1766015859.733824,48
1766015859.734823,45
1766015859.7358432,47
1766015859.736855,45
1766015859.737845,44
1766015859.738859,45
1766015859.739845,47
1766015859.740853,48
1766015859.741857,47
1766015859.742849,49
1766015859.743855,48
1766015859.744853,45
1766015859.7458692,43
1766015859.746864,45
1766015859.747869,45
1766015859.748868,47
1766015859.749866,45
1766015859.75087,44
1766015859.751881,43
1766015859.752885,45
1766015859.753897,45
1766015859.75488,46
1766015859.755907,46
1766015859.75689,49
1766015859.757909,46
1766015859.758898,46
1766015859.759903,49
1766015859.76091,44
1766015859.7619112,50
1766015859.7629151,48
1766015859.7639081,52
1766015859.7649128,51
1766015859.765929,52
1766015859.766931,52
1766015859.767929,50
1766015859.768935,48
1766015859.769941,50
1766015859.770932,48
1766015859.771931,49
1766015859.7729468,49
1766015859.7739468,47
1766015859.774956,45
1766015859.775957,47
1766015859.776957,47
1766015859.777962,46
1766015859.778958,49
1766015859.779955,52
1766015859.7809632,49
1766015859.78197,48
1766015859.782969,48
1766015859.783972,49
1766015859.7849689,49
1766015859.7859688,48
1766015859.786976,47
1766015859.7879722,51
1766015859.788974,48
1766015859.7899861,47
1766015859.790986,49
1766015859.791992,48
1766015859.793003,48
1766015859.7940018,46
1766015859.7949839,49
1766015859.796006,44
1766015859.797015,49
1766015859.798021,49
1766015859.799005,49
1766015859.8000069,48
1766015859.8009999,46
1766015859.802027,49
1766015859.803116,45
1766015859.804111,51
1766015859.8051121,49
1766015859.806124,46
1766015859.807137,47
1766015859.80813,47
1766015859.809142,49
1766015859.810102,48
1766015859.811123,49
1766015859.8121119,49
1766015859.81314,47
1766015859.814131,49
1766015859.815142,48
1766015859.816118,49
1766015859.817107,50
1766015859.8181179,49
1766015859.819125,53
1766015859.820108,52
1766015859.821095,54
1766015859.822138,55
1766015859.823115,52
1766015859.8241122,54
1766015859.825116,56
1766015859.82611,55
1766015859.827103,56
1766015859.828107,55
1766015859.829122,58
1766015859.830119,53
1766015859.8311198,56
1766015859.832117,56
1766015859.833118,59
1766015859.834105,55
1766015859.8351092,55
1766015859.836092,54
1766015859.83709,55
1766015859.8380978,55
1766015859.839106,53
1766015859.840108,55
1766015859.841116,56
1766015859.842119,53
1766015859.8431191,55
1766015859.844116,57
1766015859.845091,55
1766015859.846129,57
1766015859.847121,59
1766015859.8481128,57
1766015859.8491058,59
1766015859.850132,54
1766015859.8511412,54
1766015859.852135,56
1766015859.853133,55
1766015859.854142,52
1766015859.855156,55
1766015859.85616,56
1766015859.857134,56
1766015859.8581471,56
1766015859.859166,52
1766015859.8602,51
1766015859.8611572,52
1766015859.862166,51
1766015859.86319,53
1766015859.864171,54
1766015859.865164,51
1766015859.8661718,52
1766015859.86718,55
1766015859.868185,57
1766015859.869189,55
1766015859.870188,59
1766015859.8711839,58
1766015859.8721972,55
1766015859.873203,57
1766015859.8742049,57
1766015859.8752031,56
1766015859.876223,55
1766015859.877229,56
1766015859.878238,58
1766015859.879263,55
1766015859.880277,57
1766015859.881305,54
1766015859.882284,54
1766015859.883286,57
1766015859.8842602,55
1766015859.885264,55
1766015859.8862379,51
1766015859.887264,52
1766015859.8882601,55
1766015859.8892758,54
1766015859.890288,53
1766015859.8912451,58
1766015859.892271,57
1766015859.89326,56
1766015859.8942652,51
1766015859.895267,55
1766015859.896276,51
1766015859.897278,53
1766015859.898277,52
1766015859.8992739,53
1766015859.90032,54
1766015859.901286,53
1766015859.902295,50
1766015859.9032938,54
1766015859.904321,53
1766015859.90532,51
1766015859.906323,50
1766015859.907285,53
1766015859.908315,53
1766015859.909323,50
1766015859.910301,52
1766015859.911319,50
1766015859.912313,49
1766015859.913313,52
1766015859.914303,52
1766015859.915335,55
1766015859.9163032,56
1766015859.917314,57
1766015859.9183722,57
1766015859.9193642,56
1766015859.920379,55
1766015859.9213948,58
1766015859.922404,54
1766015859.923342,55
1766015859.9243772,55
1766015859.925372,54
1766015859.92638,56
1766015859.9273758,55
1766015859.928384,55
1766015859.929374,53
1766015859.930378,59
1766015859.9313762,57
1766015859.932392,56
1766015859.933362,54
1766015859.9343932,56
1766015859.935404,54
1766015859.9364,50
1766015859.937381,53
1766015859.938397,49
1766015859.939405,51
1766015859.9404118,53
1766015859.9414148,50
1766015859.942401,51
1766015859.943408,51
1766015859.944399,51
1766015859.94544,52
1766015859.9464178,51
1766015859.947403,51
1766015859.948405,51
1766015859.949424,50
1766015859.950424,52
1766015859.951435,49
1766015859.952472,51
1766015859.953474,52
1766015859.954484,48
1766015859.955483,51
1766015859.956473,49
1766015859.9574862,48
1766015859.958496,47
1766015859.9594922,48
1766015859.960501,53
1766015859.96151,52
1766015859.962485,51
1766015859.963509,51
1766015859.964496,50
1766015859.965507,52
1766015859.966544,51
1766015859.967533,49
1766015859.9685278,49
1766015859.969522,50
1766015859.970528,48
1766015859.97152,49
1766015859.972529,51
1766015859.973541,51
1766015859.974535,51
1766015859.9755259,51
1766015859.976547,48
1766015859.977555,46
1766015859.978576,50
1766015859.979527,50
1766015859.980534,47
1766015859.981536,45
1766015859.9825358,47
1766015859.983546,49
1766015859.9845262,48
1766015859.985595,48
1766015859.986571,48
1766015859.987558,48
1766015859.988561,46
1766015859.9895658,48
1766015859.9905632,44
1766015859.99156,47
1766015859.9925802,49
1766015859.993595,47
1766015859.994585,47
1766015859.995571,47
1766015859.996613,47
1766015859.997626,50
1766015859.99861,46
1766015859.9996212,49
1766015860.0006,49
1766015860.001639,47
1766015860.002611,46
1766015860.0036302,45
1766015860.004643,46
1766015860.005645,47
1766015860.006623,48
1766015860.007631,45
1766015860.008636,48
1766015860.009629,45
1766015860.010627,49
1766015860.0116549,50
1766015860.012646,48
1766015860.013653,51
1766015860.0146408,50
1766015860.015638,51
1766015860.016667,51
1766015860.017674,49
1766015860.018666,51
1766015860.01968,50
1766015860.020677,49
1766015860.021661,49
1766015860.022683,48
1766015860.023663,49
1766015860.024687,49
1766015860.025675,47
1766015860.026706,48
1766015860.0276968,48
1766015860.028692,47
1766015860.029672,47
1766015860.0306969,45
1766015860.031701,47
1766015860.032702,48
1766015860.033699,48
1766015860.034702,49
1766015860.035701,47
1766015860.036719,47
1766015860.037717,46
1766015860.038718,47
1766015860.039704,49
1766015860.04072,45
1766015860.041893,47
1766015860.0427241,48
1766015860.043741,48
1766015860.0447328,48
1766015860.045731,50
1766015860.046727,44
1766015860.047764,47
1766015860.048738,47
1766015860.0497541,47
1766015860.0507462,48
1766015860.051768,46
1766015860.0527492,48
1766015860.053757,45
1766015860.054755,51
1766015860.0557709,46
1766015860.0567732,46
1766015860.057787,46
1766015860.0587678,45
1766015860.059773,45
1766015860.0607848,48
1766015860.061832,44
1766015860.062826,45
1766015860.0637991,42
1766015860.064806,45
1766015860.065823,45
1766015860.066807,44
1766015860.0678248,43
1766015860.068813,42
1766015860.069814,42
1766015860.070824,41
1766015860.0718248,41
1766015860.0728168,43
1766015860.0738409,41
1766015860.074831,43
1766015860.075846,42
1766015860.0768461,41
1766015860.077837,41
1766015860.0788422,43
1766015860.079846,45
1766015860.080846,45
1766015860.08185,45
1766015860.0828428,43
1766015860.083841,47
1766015860.0848389,46
1766015860.08585,48
1766015860.086842,48
1766015860.0878458,46
1766015860.088866,48
1766015860.089856,45
1766015860.090861,47
1766015860.091864,44
1766015860.092861,46
1766015860.0938601,41
1766015860.0948842,46
1766015860.0958788,42
1766015860.096874,47
1766015860.097892,44
1766015860.098885,45
1766015860.09989,46
1766015860.100898,45
1766015860.1018848,45
1766015860.1028962,42
1766015860.1039062,46
1766015860.104908,45
1766015860.1059148,43
1766015860.106925,42
1766015860.1079218,45
1766015860.108906,45
1766015860.109916,45
1766015860.110929,42
1766015860.1119292,45
1766015860.1129339,43
1766015860.113944,44
1766015860.114936,42
1766015860.115937,44
1766015860.116948,42
1766015860.1179469,44
1766015860.1189618,41
1766015860.119957,44
1766015860.120942,45
1766015860.1219509,42
1766015860.122946,43
1766015860.123967,42
1766015860.1249542,41
1766015860.125957,40
1766015860.126972,44
1766015860.12797,41
1766015860.128972,41
1766015860.129977,44
1766015860.1309838,41
1766015860.131995,43
1766015860.132976,41
1766015860.133994,44
1766015860.1349819,43
1766015860.135991,43
1766015860.1369998,43
1766015860.137995,42
1766015860.139023,43
1766015860.140016,38
1766015860.141012,44
1766015860.142018,43
1766015860.1431072,42
1766015860.144022,41
1766015860.145111,42
1766015860.146102,40
1766015860.14703,40
1766015860.148107,37
1766015860.149107,39
1766015860.150104,40
1766015860.1511092,40
1766015860.152104,37
1766015860.153108,42
1766015860.154103,42
1766015860.155106,39
1766015860.1561,42
1766015860.157102,40
1766015860.158114,43
1766015860.159105,41
1766015860.160102,44
1766015860.161104,42
1766015860.1621041,40
1766015860.163101,39
1766015860.1641011,41
1766015860.1651042,42
1766015860.166102,43
1766015860.167103,39
1766015860.1681,38
1766015860.1691031,41
1766015860.170099,39
1766015860.171121,40
1766015860.172105,39
1766015860.173103,37
1766015860.174102,35
1766015860.175122,41
1766015860.1761081,41
1766015860.177118,41
1766015860.178138,41
1766015860.179138,40
1766015860.1801548,40
1766015860.1811619,43
1766015860.182152,40
1766015860.183163,37
1766015860.18416,40
1766015860.1851509,40
1766015860.1861398,39
1766015860.1871629,41
1766015860.188163,39
1766015860.189158,36
1766015860.1901708,39
1766015860.191173,38
1766015860.192153,39
1766015860.193147,39
1766015860.1941519,38
1766015860.195147,38
1766015860.196141,39
1766015860.197143,38
1766015860.1981509,38
1766015860.199156,38
1766015860.200164,39
1766015860.20116,39
1766015860.202167,39
1766015860.203187,35
1766015860.204173,36
1766015860.205179,40
1766015860.206205,40
1766015860.2072,39
1766015860.208216,40
1766015860.2091992,37
1766015860.2102048,36
1766015860.2112188,36
1766015860.212212,38
1766015860.2131999,39
1766015860.2142138,37
1766015860.215213,39
1766015860.216217,38
1766015860.217206,38
1766015860.218264,37
1766015860.219281,35
1766015860.220274,39
1766015860.2212741,36
1766015860.2222478,37
1766015860.223228,38
1766015860.224254,38
1766015860.225259,36
1766015860.2262578,36
1766015860.227268,38
1766015860.228263,39
1766015860.2292721,39
1766015860.23026,36
1766015860.231267,39
1766015860.232258,39
1766015860.233263,36
1766015860.234283,39
1766015860.235283,39
1766015860.2362828,39
1766015860.237282,37
1766015860.238288,39
1766015860.2393138,39
1766015860.240295,38
1766015860.241301,39
1766015860.242302,40
1766015860.243304,39
1766015860.244311,39
1766015860.24531,39
1766015860.246316,37
1766015860.2473228,39
1766015860.248332,37
1766015860.249344,37
1766015860.250349,38
1766015860.251331,43
1766015860.25234,41
1766015860.2533498,42
1766015860.254347,40
1766015860.255341,40
1766015860.256356,41
1766015860.257366,39
1766015860.2583292,40
1766015860.25936,40
1766015860.260362,43
1766015860.261337,43
1766015860.262353,38
1766015860.263357,41
1766015860.264354,42
1766015860.2653708,40
1766015860.266382,40
1766015860.2673652,41
1766015860.2683752,40
1766015860.269384,40
1766015860.27038,38
1766015860.2713852,37
1766015860.272379,42
1766015860.2734022,39
1766015860.27442,37
1766015860.275429,40
1766015860.276403,38
1766015860.27741,41
1766015860.278382,39
1766015860.279389,37
1766015860.280395,38
1766015860.281385,40
1766015860.282398,40
1766015860.283406,40
1766015860.284402,38
1766015860.285394,38
1766015860.286386,37
1766015860.28741,36
1766015860.2883961,41
1766015860.2893922,39
1766015860.2903922,37
1766015860.291446,39
1766015860.292431,36
1766015860.2934332,36
1766015860.294438,36
1766015860.295455,34
1766015860.296449,37
1766015860.297447,36
1766015860.298452,36
1766015860.2994502,35
1766015860.3004532,37
1766015860.301457,34
1766015860.3024561,38
1766015860.303456,37
1766015860.3044538,34
1766015860.305481,39
1766015860.306468,36
1766015860.307455,39
1766015860.3084931,38
1766015860.309485,36
1766015860.310466,39
1766015860.3114738,39
1766015860.3124769,41
1766015860.3134851,38
1766015860.314479,40
1766015860.3155031,38
1766015860.316481,35
1766015860.3174982,38
1766015860.318503,37
1766015860.319508,36
1766015860.3205051,35
1766015860.321486,38
1766015860.3225112,36
1766015860.323509,41
1766015860.324507,39
1766015860.32554,37
1766015860.326519,39
1766015860.327521,37
1766015860.3285189,40
1766015860.329528,42
1766015860.330552,39
1766015860.331531,39
1766015860.332555,43
1766015860.3335428,41
1766015860.334555,42
1766015860.335544,42
1766015860.336572,44
1766015860.33757,41
1766015860.338557,43
1766015860.33956,38
1766015860.340554,40
1766015860.341562,44
1766015860.3425689,41
1766015860.343581,43
