timestamp,emg_value
1766015893.964512,33
1766015893.96452,29
1766015893.964525,29
1766015893.96453,35
1766015893.964535,35
1766015893.96454,34
1766015893.964545,34
1766015893.9645498,33
1766015893.964556,35
1766015893.964561,36
1766015893.9646049,37
1766015893.964612,37
1766015893.964617,34
1766015893.964622,38
1766015893.964628,36
1766015893.964632,40
1766015893.964637,36
1766015893.964643,36
1766015893.964648,33
1766015893.964652,33
1766015893.9646568,36
1766015893.964662,36
1766015893.9646668,33
1766015893.964672,35
1766015893.964677,36
1766015893.964682,34
1766015893.964687,36
1766015893.9646919,34
1766015893.9646971,35
1766015893.964702,32
1766015893.9647071,36
1766015893.964711,34
1766015893.96472,34
1766015893.964725,38
1766015893.96473,35
1766015893.964735,35
1766015893.96474,33
1766015893.964745,33
1766015893.96475,36
1766015893.964755,33
1766015893.96476,35
1766015893.9647648,33
1766015893.96477,33
1766015893.9647748,35
1766015893.964779,32
1766015893.9647841,35
1766015893.964789,35
1766015893.9647942,35
1766015893.964799,34
1766015893.9648042,33
1766015893.964809,34
1766015893.9648142,33
1766015893.964818,34
1766015893.964824,31
1766015893.964828,31
1766015893.964833,34
1766015893.9648378,31
1766015893.964843,31
1766015893.964848,32
1766015893.964853,31
1766015893.964858,33
1766015893.964863,32
1766015893.964868,31
1766015893.964872,30
1766015893.9648771,30
1766015893.9648871,32
1766015893.964892,32
1766015893.964897,32
1766015893.9649012,33
1766015893.964906,30
1766015893.9649112,34
1766015893.964916,32
1766015893.964921,32
1766015893.964926,32
1766015893.964931,30
1766015893.964936,30
1766015893.964941,33
1766015893.964947,28
1766015893.964952,30
1766015893.964957,29
1766015893.964962,29
1766015893.964967,33
1766015893.964972,35
1766015893.964976,32
1766015893.964981,34
1766015893.964986,32
1766015893.964991,35
1766015893.964996,35
1766015893.9650009,32
1766015893.965006,33
1766015893.965011,32
1766015893.9650161,32
1766015893.965021,35
1766015893.9650261,33
1766015893.965031,31
1766015893.965035,35
1766015893.9650402,34
1766015893.9650471,32
1766015893.9650528,33
1766015893.965058,34
1766015893.965062,31
1766015893.965067,32
1766015893.965072,32
1766015893.965077,29
1766015893.9650822,32
1766015893.965087,31
1766015893.9650922,31
1766015893.965097,31
1766015893.9651022,28
1766015893.965108,34
1766015893.9651132,32
1766015893.965118,29
1766015893.965122,34
1766015893.965127,32
1766015893.965132,30
1766015893.965137,31
1766015893.965142,33
1766015893.9651468,30
1766015893.965152,33
1766015893.965157,32
1766015893.965162,30
1766015893.965166,32
1766015893.9651709,32
1766015893.965176,32
1766015893.9651809,32
1766015893.965186,31
1766015893.965191,30
1766015893.9651961,33
1766015893.965201,31
1766015893.965207,31
1766015893.965214,35
1766015893.965219,33
1766015893.965224,32
1766015893.965229,30
1766015893.9652338,34
1766015893.965239,34
1766015893.9652429,34
1766015893.965248,30
1766015893.965253,31
1766015893.965258,30
1766015893.9652631,32
1766015893.965268,31
1766015893.9652731,34
1766015893.965278,32
1766015893.9652832,32
1766015893.965287,29
1766015893.965292,34
1766015893.965297,30
1766015893.965302,31
1766015893.965307,31
1766015893.965312,29
1766015893.965317,32
1766015893.965321,31
1766015893.965326,30
1766015893.9653308,32
1766015893.965336,32
1766015893.9653409,32
1766015893.965346,28
1766015893.9653509,32
1766015893.965355,31
1766015893.9653602,32
1766015893.965365,31
1766015893.9653702,31
1766015893.965378,29
1766015893.9653819,32
1766015893.965387,34
1766015893.9653919,34
1766015893.965397,32
1766015893.9654021,30
1766015893.965407,34
1766015893.9654112,32
1766015893.965416,31
1766015893.965421,31
1766015893.965427,29
1766015893.9654322,31
1766015893.965436,33
1766015893.965441,30
1766015893.965446,30
1766015893.965451,33
1766015893.9654558,31
1766015893.965461,33
1766015893.965466,31
1766015893.965471,30
1766015893.965475,30
1766015893.9654799,29
1766015893.965485,31
1766015893.9654899,31
1766015893.965495,33
1766015893.9654999,30
1766015893.965504,30
1766015893.9655092,28
1766015893.965514,28
1766015893.9655192,29
1766015893.965524,33
1766015893.9655292,30
1766015893.965535,27
1766015893.9655411,28
1766015893.965546,31
1766015893.965552,29
1766015893.965557,29
1766015893.965562,30
1766015893.9655669,31
1766015893.965572,34
1766015893.965577,33
1766015893.9655821,33
1766015893.965587,34
1766015893.9655921,30
1766015893.965597,34
1766015893.9656022,33
1766015893.965606,36
1766015893.965611,34
1766015893.9656162,32
1766015893.965621,35
1766015893.965626,31
1766015893.965631,34
1766015893.965636,31
1766015893.965641,32
1766015893.965646,33
1766015893.965651,30
1766015893.965656,31
1766015893.9656608,33
1766015893.965666,32
1766015893.9656699,30
1766015893.965675,33
1766015893.965687,31
1766015893.965738,32
1766015893.96575,32
1766015893.96578,31
1766015893.9658082,28
1766015893.965815,34
1766015893.965821,29
1766015893.965826,33
1766015893.9658308,27
1766015893.965836,30
1766015893.9658408,31
1766015893.965846,30
1766015893.9658508,32
1766015893.965856,28
1766015893.965861,29
1766015893.965866,29
1766015893.965871,31
1766015893.9658759,29
1766015893.965881,30
1766015893.9658859,29
1766015893.9658911,34
1766015893.965896,34
1766015893.9659011,35
1766015893.965906,34
1766015893.965923,33
1766015893.965929,36
1766015893.965935,37
1766015893.96594,36
1766015893.965945,37
1766015893.96595,38
1766015893.965955,38
1766015893.9659588,36
1766015893.965964,39
1766015893.9659688,39
1766015893.965974,39
1766015893.9659789,38
1766015893.965984,35
1766015893.965991,39
1766015893.965996,38
1766015893.9660008,39
1766015893.966006,36
1766015893.9660108,37
1766015893.966016,37
1766015893.966021,37
1766015893.966026,38
1766015893.966031,36
1766015893.966036,35
1766015893.9660401,38
1766015893.966045,38
1766015893.9660501,36
1766015893.966055,36
1766015893.96606,35
1766015893.966065,35
1766015893.96607,34
1766015893.966075,34
1766015893.966079,31
1766015893.966084,34
1766015893.966089,32
1766015893.966094,32
1766015893.966099,30
1766015893.966104,32
1766015893.9661078,31
1766015893.966113,33
1766015893.9661179,30
1766015893.966123,33
1766015893.966128,31
1766015893.9661329,30
1766015893.9661381,32
1766015893.966142,32
1766015893.966151,33
1766015893.966163,32
1766015893.9661682,33
1766015893.966173,29
1766015893.966177,30
1766015893.966182,33
1766015893.966187,33
1766015893.9661922,30
1766015893.966197,31
1766015893.966202,30
1766015893.966207,31
1766015893.9662132,32
1766015893.966218,30
1766015893.966222,35
1766015893.966227,32
1766015893.966232,33
1766015893.9662368,30
1766015893.966242,27
1766015893.9662468,29
1766015893.966252,29
1766015893.9662569,28
1766015893.966261,31
1766015893.9662662,29
1766015893.966271,28
1766015893.9662762,31
1766015893.966281,31
1766015893.9662862,29
1766015893.966291,30
1766015893.966296,28
1766015893.9663,26
1766015893.966305,31
1766015893.9663098,28
1766015893.966315,27
1766015893.966323,29
1766015893.9663281,30
1766015893.966333,29
1766015893.9663382,33
1766015893.966342,26
1766015893.966347,29
1766015893.966352,27
1766015893.966357,28
1766015893.966362,27
1766015893.966367,28
1766015893.966372,28
1766015893.966377,28
1766015893.966382,29
1766015893.9663858,27
1766015893.966391,28
1766015893.9663959,27
1766015893.966401,27
1766015893.9664059,26
1766015893.966411,29
1766015893.966416,26
1766015893.966421,28
1766015893.9664261,24
1766015893.966431,26
1766015893.966435,27
1766015893.96644,24
1766015893.966445,24
1766015893.96645,27
1766015893.966455,28
1766015893.96646,28
1766015893.966465,26
1766015893.966469,26
1766015893.966474,26
1766015893.966479,27
1766015893.966486,29
1766015893.966491,28
1766015893.966496,27
1766015893.9665012,25
1766015893.966505,24
1766015893.96651,24
1766015893.9665148,26
1766015893.96652,25
1766015893.9665248,25
1766015893.96653,27
1766015893.9665349,25
1766015893.96654,25
1766015893.9665449,25
1766015893.966549,28
1766015893.9665542,24
1766015893.966559,27
1766015893.9665642,28
1766015893.966569,29
1766015893.9665742,29
1766015893.966578,27
1766015893.966583,27
1766015893.966588,27
1766015893.966593,28
1766015893.9665978,26
1766015893.966603,25
1766015893.966607,25
1766015893.9666119,26
1766015893.966617,29
1766015893.9666219,29
1766015893.9666271,26
1766015893.966632,25
1766015893.9666371,24
1766015893.9666429,28
1766015893.966649,28
1766015893.966654,27
1766015893.966659,25
1766015893.9666638,27
1766015893.966669,27
1766015893.966673,29
1766015893.966678,24
1766015893.966683,27
1766015893.966688,27
1766015893.966706,27
1766015893.96671,27
1766015893.9667149,26
1766015893.96672,27
1766015893.966725,28
1766015893.9667299,26
1766015893.9667351,28
1766015893.96674,27
1766015893.966744,28
1766015893.966749,29
1766015893.966754,25
1766015893.966759,27
1766015893.966764,24
1766015893.966769,29
1766015893.966773,27
1766015893.966778,26
1766015893.966783,29
1766015893.966788,26
1766015893.966793,28
1766015893.966798,29
1766015893.966802,27
1766015893.9668071,27
1766015893.966812,29
1766015893.966819,25
1766015893.966824,27
1766015893.966829,27
1766015893.9668338,28
1766015893.966839,28
1766015893.966843,29
1766015893.966848,28
1766015893.9668531,31
1766015893.966858,29
1766015893.9668632,27
1766015893.966868,30
1766015893.966872,28
1766015893.966877,30
1766015893.966882,27
1766015893.966887,29
1766015893.966892,31
1766015893.966897,28
1766015893.966901,28
1766015893.966906,30
1766015893.966911,30
1766015893.966916,28
1766015893.9669209,29
1766015893.9669251,28
1766015893.96693,31
1766015893.9669352,29
1766015893.96694,28
1766015893.966945,29
1766015893.96695,27
1766015893.966954,26
1766015893.966959,32
1766015893.966964,30
1766015893.966969,29
1766015893.966974,29
1766015893.9669812,30
1766015893.966986,29
1766015893.9669912,28
1766015893.966996,31
1766015893.967,30
1766015893.967005,29
1766015893.96701,28
1766015893.967015,31
1766015893.96702,32
1766015893.9670248,26
1766015893.967029,31
1766015893.967034,30
1766015893.9670389,26
1766015893.967044,30
1766015893.967049,27
1766015893.9670532,30
1766015893.967058,28
1766015893.967063,29
1766015893.967068,31
1766015893.967073,27
1766015893.967077,29
1766015893.967082,28
1766015893.967087,29
1766015893.967092,27
1766015893.967097,28
1766015893.9671009,28
1766015893.967106,27
1766015893.9671109,28
1766015893.967116,28
1766015893.967121,31
1766015893.967125,27
1766015893.9671302,30
1766015893.967137,29
1766015893.9671419,27
1766015893.967147,26
1766015893.967152,31
1766015893.967156,29
1766015893.9671612,28
1766015893.967166,24
1766015893.9671721,31
1766015893.967176,29
1766015893.967181,25
1766015893.967186,25
1766015893.967191,30
1766015893.967196,27
1766015893.967201,27
1766015893.967205,28
1766015893.96721,27
1766015893.967215,24
1766015893.96722,28
1766015893.967225,27
1766015893.967229,26
1766015893.9672341,28
1766015893.967239,25
1766015893.9672441,27
1766015893.967249,25
1766015893.967253,26
1766015893.9672582,27
1766015893.967263,27
1766015893.967268,26
1766015893.967273,27
1766015893.967278,26
1766015893.9672818,24
1766015893.967287,23
1766015893.9672918,25
1766015893.967299,26
1766015893.967304,26
1766015893.967309,24
1766015893.967314,25
1766015893.967319,26
1766015893.967324,23
1766015893.967329,26
1766015893.9673338,27
1766015893.967338,25
1766015893.967343,26
1766015893.9673479,24
1766015893.967353,24
1766015893.9673579,24
1766015893.9673622,24
1766015893.967367,24
1766015893.967372,27
1766015893.967377,24
1766015893.967382,27
1766015893.967387,23
1766015893.967391,29
1766015893.967396,25
1766015893.967401,24
1766015893.967406,23
1766015893.967411,23
1766015893.9674392,25
1766015893.967445,25
1766015893.9674501,23
1766015893.967455,26
1766015893.9674602,24
1766015893.967465,25
1766015893.9674702,23
1766015893.967475,27
1766015893.9674811,26
1766015893.9674869,26
1766015893.967492,26
1766015893.9674969,25
1766015893.967502,24
1766015893.967507,24
1766015893.9675121,25
1766015893.967517,25
1766015893.967521,23
1766015893.967527,23
1766015893.967568,21
1766015893.967598,24
1766015893.967615,22
1766015893.967634,26
1766015893.967645,26
1766015893.9676511,24
1766015893.967656,25
1766015893.9676611,23
1766015893.967666,23
1766015893.9676712,23
1766015893.967676,24
1766015893.967681,22
1766015893.967686,23
1766015893.96769,23
1766015893.967695,22
1766015893.9677,25
1766015893.967705,25
1766015893.96771,25
1766015893.967715,23
1766015893.96772,25
1766015893.967724,23
1766015893.9677289,24
1766015893.967734,20
1766015893.967742,20
1766015893.967746,23
1766015893.967751,24
1766015893.967756,22
1766015893.9677608,22
1766015893.967766,22
1766015893.9677708,24
1766015893.9677749,22
1766015893.96778,24
1766015893.967785,21
1766015893.9677901,21
1766015893.967795,24
1766015893.967799,24
1766015893.967804,26
1766015893.967809,24
1766015893.967814,22
1766015893.967818,24
1766015893.967823,23
1766015893.967828,23
1766015893.967833,21
1766015893.967838,24
1766015893.967843,22
1766015893.9678478,27
1766015893.967853,25
1766015893.967857,22
1766015893.9678621,26
1766015893.967867,22
1766015893.967872,23
1766015893.9678771,20
1766015893.967881,23
1766015893.967886,22
1766015893.967891,20
1766015893.9678972,25
1766015893.967903,23
1766015893.9679081,25
1766015893.967913,24
1766015893.967917,21
1766015893.967922,23
1766015893.967927,23
1766015893.967932,22
1766015893.967936,25
1766015893.967941,24
1766015893.967946,21
1766015893.967951,25
1766015893.967956,21
1766015893.9679601,26
1766015893.967965,25
1766015893.9679701,20
1766015893.967974,26
1766015893.967979,21
1766015893.9679842,25
1766015893.967989,26
1766015893.9679942,21
1766015893.967999,21
1766015893.968003,22
1766015893.968008,25
1766015893.968013,21
1766015893.9680178,24
1766015893.968022,22
1766015893.9680269,23
1766015893.968032,21
1766015893.9680371,23
1766015893.968042,23
1766015893.9680462,20
1766015893.968051,26
1766015893.9680588,23
1766015893.9680629,21
1766015893.9680681,24
1766015893.968073,23
1766015893.9680781,22
1766015893.968083,24
1766015893.968087,24
1766015893.968092,21
1766015893.968097,23
1766015893.968102,21
1766015893.968107,21
1766015893.968111,23
1766015893.968116,22
1766015893.968121,22
1766015893.968126,24
1766015893.96813,25
1766015893.9681349,24
1766015893.9681401,23
1766015893.968145,26
1766015893.96815,23
1766015893.968155,21
1766015893.96816,24
1766015893.9681652,23
1766015893.968169,20
1766015893.968174,21
1766015893.968179,26
1766015893.968184,23
1766015893.968189,22
1766015893.968193,23
1766015893.9681978,24
1766015893.968203,22
1766015893.9682078,23
1766015893.968214,21
1766015893.96822,23
1766015893.968224,24
1766015893.968229,23
1766015893.968234,26
1766015893.968239,23
1766015893.968244,23
1766015893.968249,23
1766015893.968253,20
1766015893.9682581,24
1766015893.968263,24
1766015893.968268,23
1766015893.968272,19
1766015893.968277,22
1766015893.9682822,22
1766015893.968287,24
1766015893.968292,25
1766015893.968296,24
1766015893.968301,21
1766015893.9683058,21
1766015893.968311,21
1766015893.9683158,22
1766015893.968321,24
1766015893.9683251,23
1766015893.96833,23
1766015893.9683352,21
1766015893.96834,27
1766015893.9683452,21
1766015893.968349,22
1766015893.968354,21
1766015893.968359,22
1766015893.968364,25
1766015893.968369,27
1766015893.968375,25
1766015893.968381,24
1766015893.968385,24
1766015893.96839,26
1766015893.968395,24
1766015893.9683998,22
1766015893.968405,25
1766015893.968409,27
1766015893.968414,24
1766015893.968419,23
1766015893.9684238,22
1766015893.968429,27
1766015893.968433,24
1766015893.968438,21
1766015893.968443,21
1766015893.968448,25
1766015893.9684532,27
1766015893.968458,25
1766015893.968462,25
1766015893.968467,26
1766015893.968472,29
1766015893.968477,26
1766015893.968481,24
1766015893.9684858,25
1766015893.968491,24
1766015893.968496,25
1766015893.9685,24
1766015893.9685051,23
1766015893.96851,26
1766015893.9685152,24
1766015893.96852,24
1766015893.968524,25
1766015893.968529,25
1766015893.968537,23
1766015893.968541,26
1766015893.9685462,24
1766015893.968551,23
1766015893.968556,24
1766015893.9685602,24
1766015893.968565,25
1766015893.96857,22
1766015893.968575,25
1766015893.96858,26
1766015893.9685838,25
1766015893.96859,24
1766015893.9685938,25
1766015893.968599,26
1766015893.9686038,25
1766015893.968609,24
1766015893.9686131,23
1766015893.968618,24
1766015893.9686232,26
1766015893.968628,24
1766015893.9686332,29
1766015893.968637,23
1766015893.968642,25
1766015893.968647,25
1766015893.968652,26
1766015893.9686568,25
1766015893.968661,23
1766015893.968666,27
1766015893.968671,25
1766015893.968676,26
1766015893.96868,25
1766015893.9686852,25
1766015893.968692,27
1766015893.968697,24
1766015893.9687018,23
1766015893.968707,23
1766015893.9687119,23
1766015893.9687161,25
1766015893.968721,23
1766015893.968726,25
1766015893.968731,23
1766015893.968735,23
1766015893.96874,24
1766015893.968745,26
1766015893.96875,26
1766015893.968755,24
1766015893.968759,25
1766015893.9687638,24
1766015893.968769,27
1766015893.9687738,27
1766015893.968779,28
1766015893.9687839,27
1766015893.968788,24
1766015893.9687932,31
1766015893.968798,25
1766015893.9688032,25
1766015893.968807,28
1766015893.968812,24
1766015893.968817,24
1766015893.968822,25
1766015893.9688268,24
1766015893.968832,26
1766015893.968836,23
1766015893.968841,29
1766015893.968846,27
1766015893.968852,26
1766015893.968858,23
1766015893.968862,27
1766015893.968867,28
1766015893.9688718,24
1766015893.968877,25
1766015893.9688818,23
1766015893.968887,25
1766015893.968891,28
1766015893.968896,26
1766015893.9689012,24
1766015893.968906,25
1766015893.9689112,28
1766015893.968915,27
1766015893.96892,26
1766015893.968925,25
1766015893.96893,27
1766015893.9689338,29
1766015893.968939,25
1766015893.968944,27
1766015893.968949,28
1766015893.968954,26
1766015893.968958,27
1766015893.9689631,23
1766015893.968968,29
1766015893.9689732,28
1766015893.968978,26
1766015893.968982,28
1766015893.968987,26
1766015893.968992,26
1766015893.968997,25
1766015893.969001,29
1766015893.969006,26
1766015893.969014,27
1766015893.969019,26
1766015893.969023,25
1766015893.969028,27
1766015893.969033,27
1766015893.969038,26
1766015893.969043,28
1766015893.969048,24
1766015893.969053,27
1766015893.969057,28
1766015893.9690619,27
1766015893.969067,28
1766015893.969072,26
1766015893.969077,31
1766015893.969082,28
1766015893.969087,25
1766015893.9690921,27
1766015893.969096,29
1766015893.969101,26
1766015893.969106,27
1766015893.969111,29
1766015893.969116,26
1766015893.96912,25
1766015893.969125,24
1766015893.96913,28
1766015893.969135,26
1766015893.9691389,26
1766015893.969144,26
1766015893.9691489,24
1766015893.9691541,26
1766015893.969159,24
1766015893.969163,24
1766015893.9691699,23
1766015893.969175,28
1766015893.9691799,27
1766015893.969185,24
1766015893.96919,25
1766015893.969194,24
1766015893.9691992,27
1766015893.969204,26
1766015893.9692092,24
1766015893.969214,27
1766015893.969218,25
1766015893.969223,28
1766015893.969228,27
1766015893.9692328,25
1766015893.969237,24
1766015893.969242,27
1766015893.9692469,26
1766015893.969252,23
1766015893.9692569,25
1766015893.9692612,24
1766015893.969266,28
1766015893.969271,27
1766015893.969276,29
1766015893.969281,26
1766015893.969286,25
1766015893.969291,25
1766015893.969295,24
1766015893.9693,28
1766015893.969305,27
1766015893.96931,24
1766015893.969315,26
1766015893.9693189,26
1766015893.969324,27
1766015893.969331,26
1766015893.969336,28
1766015893.969341,27
1766015893.969346,26
1766015893.9693508,27
1766015893.969355,29
1766015893.9693599,28
1766015893.969365,25
1766015893.9693701,27
1766015893.969375,25
1766015893.9693801,24
1766015893.969384,27
1766015893.969389,27
1766015893.969394,24
1766015893.969399,26
1766015893.969404,27
1766015893.969409,24
1766015893.969414,28
1766015893.969419,26
1766015893.969423,27
1766015893.969428,26
1766015893.969433,29
1766015893.9694378,26
1766015893.969443,26
1766015893.969447,27
1766015893.9694521,24
1766015893.969457,25
1766015893.969462,27
1766015893.969467,27
1766015893.969471,25
1766015893.969476,26
1766015893.969481,24
1766015893.969486,25
1766015893.969491,27
1766015893.969495,25
1766015893.9694998,28
1766015893.969505,25
1766015893.9695098,27
1766015893.969515,24
1766015893.9695191,27
1766015893.969524,26
1766015893.9695292,27
1766015893.969534,22
1766015893.969538,24
1766015893.969543,27
1766015893.969548,27
1766015893.969553,25
1766015893.969558,28
1766015893.969562,24
1766015893.969567,26
1766015893.969572,24
1766015893.969577,27
1766015893.969582,23
1766015893.969586,23
1766015893.9695911,25
1766015893.969596,26
1766015893.969601,26
1766015893.969606,25
1766015893.969611,25
1766015893.969616,24
1766015893.969621,26
1766015893.9696262,26
1766015893.96963,22
1766015893.969635,25
1766015893.96964,23
1766015893.969645,25
1766015893.96965,25
1766015893.969655,25
1766015893.9696589,27
1766015893.969664,26
1766015893.969669,25
1766015893.9696739,26
1766015893.9696782,24
1766015893.969683,23
1766015893.9696882,26
1766015893.969693,22
1766015893.969698,26
1766015893.969702,27
1766015893.969707,24
1766015893.969712,27
1766015893.969717,23
1766015893.969722,27
1766015893.9697258,24
1766015893.969731,27
1766015893.9697359,23
1766015893.969741,24
1766015893.969745,24
1766015893.96975,28
1766015893.969755,24
1766015893.96976,23
1766015893.9697652,24
1766015893.96977,25
1766015893.969774,26
1766015893.969779,25
1766015893.969784,28
1766015893.969789,24
1766015893.969793,25
1766015893.9697978,27
1766015893.969803,23
1766015893.9698079,24
1766015893.969813,26
1766015893.9698172,25
1766015893.969822,24
1766015893.9698272,26
1766015893.969832,26
1766015893.969837,25
1766015893.969841,24
1766015893.969846,25
1766015893.9698508,24
1766015893.969856,23
1766015893.96986,23
1766015893.9698648,26
1766015893.96987,23
1766015893.9698749,23
1766015893.9698792,24
1766015893.969884,23
1766015893.969889,25
1766015893.969894,25
1766015893.969899,24
1766015893.969903,23
1766015893.969908,23
1766015893.969913,23
1766015893.969918,22
1766015893.969923,23
1766015893.9699268,24
1766015893.969932,25
1766015893.9699368,22
1766015893.969942,23
1766015893.9699469,20
1766015893.969952,25
1766015893.9699562,20
1766015893.969961,25
1766015893.9699662,23
1766015893.969971,24
1766015893.969975,27
1766015893.96998,20
1766015893.969985,22
1766015893.969989,20
1766015893.969994,21
1766015893.969999,22
1766015893.970004,22
1766015893.9700081,22
1766015893.970013,23
1766015893.9700181,26
1766015893.970022,23
1766015893.970027,24
1766015893.9700322,24
1766015893.970037,21
1766015893.970041,26
1766015893.970046,24
1766015893.970051,21
1766015893.9700558,23
1766015893.97006,25
1766015893.9700649,21
1766015893.9700701,22
1766015893.970075,20
1766015893.970079,22
1766015893.9700842,22
1766015893.970089,25
1766015893.970094,27
1766015893.970098,21
1766015893.970103,24
1766015893.9701078,21
1766015893.970113,24
1766015893.970117,19
1766015893.970122,22
1766015893.970127,20
1766015893.9701319,21
1766015893.9701362,21
1766015893.970141,21
1766015893.970146,25
1766015893.97015,23
1766015893.970155,26
1766015893.9701602,22
1766015893.970165,21
1766015893.97017,23
1766015893.970175,21
1766015893.97018,24
1766015893.970185,21
1766015893.97019,24
1766015893.970195,22
1766015893.9702,22
1766015893.9702039,24
1766015893.9702091,25
1766015893.970214,22
1766015893.970219,24
1766015893.9702232,20
1766015893.970228,22
1766015893.970315,24
1766015893.97032,22
1766015893.970325,21
1766015893.970329,25
1766015893.970334,19
1766015893.970339,25
1766015893.9703438,22
1766015893.970349,22
1766015893.9703538,21
1766015893.9703581,24
1766015893.970363,21
1766015893.970368,20
1766015893.9703732,24
1766015893.970378,23
1766015893.970382,25
1766015893.970387,23
1766015893.970392,21
1766015893.970397,21
1766015893.970402,21
1766015893.9704058,25
1766015893.970411,23
1766015893.970416,23
1766015893.970421,21
1766015893.970426,25
1766015893.97043,23
1766015893.9704351,20
1766015893.97044,22
1766015893.9704452,26
1766015893.970449,21
1766015893.970454,24
1766015893.970459,22
1766015893.970464,23
1766015893.9704692,24
1766015893.970474,25
1766015893.970478,19
1766015893.9704828,19
1766015893.970488,22
1766015893.9704928,21
1766015893.970498,22
1766015893.9705029,26
1766015893.970507,22
1766015893.970512,24
1766015893.970517,21
1766015893.9705222,21
1766015893.970527,24
1766015893.9705322,20
1766015893.970536,21
1766015893.970541,21
1766015893.9712262,23
1766015893.972208,22
1766015893.973231,22
1766015893.974227,24
1766015893.975214,25
1766015893.976319,22
1766015893.977319,23
1766015893.978223,22
1766015893.979218,21
1766015893.9802449,20
1766015893.98125,26
1766015893.982283,20
1766015893.983256,22
1766015893.9842482,21
1766015893.9852722,24
1766015893.986262,23
1766015893.9872608,20
1766015893.988249,22
1766015893.9892821,22
1766015893.9902642,23
1766015893.991283,21
1766015893.9923148,22
1766015893.99339,22
1766015893.9943051,22
1766015893.995326,22
1766015893.996342,24
1766015893.997333,24
1766015893.998306,21
1766015893.999278,24
1766015894.000289,25
1766015894.001299,20
1766015894.002313,21
1766015894.003291,22
1766015894.0042949,23
1766015894.005375,23
1766015894.00634,22
1766015894.007313,22
1766015894.008332,22
1766015894.009331,22
1766015894.0103629,24
1766015894.011332,23
1766015894.0123389,24
1766015894.01338,21
1766015894.014338,23
1766015894.0153291,25
1766015894.016313,23
1766015894.017327,26
1766015894.018333,22
1766015894.01935,25
1766015894.020405,26
1766015894.021458,24
1766015894.022491,23
1766015894.023436,24
1766015894.02438,24
1766015894.025393,22
1766015894.026361,26
1766015894.0273979,26
1766015894.028394,25
1766015894.029506,23
1766015894.030397,23
1766015894.031486,25
1766015894.0324092,25
1766015894.033401,27
1766015894.0344052,23
1766015894.035399,22
1766015894.036392,25
1766015894.0374131,23
1766015894.0384462,21
1766015894.039385,25
1766015894.04045,24
1766015894.0414112,25
1766015894.042451,24
1766015894.0434718,25
1766015894.04446,20
1766015894.045451,22
1766015894.0464718,24
1766015894.047431,23
1766015894.048424,24
1766015894.049459,24
1766015894.050454,25
1766015894.051429,21
1766015894.052463,25
1766015894.0535092,24
1766015894.054507,25
1766015894.0554812,21
1766015894.05648,25
1766015894.057487,25
1766015894.058485,24
1766015894.059479,24
1766015894.060516,24
1766015894.061538,24
1766015894.062491,25
1766015894.0634859,22
1766015894.064471,21
1766015894.0655239,22
1766015894.066544,24
1766015894.067501,22
1766015894.068494,22
1766015894.069495,22
1766015894.0705159,26
1766015894.0714948,22
1766015894.072507,22
1766015894.0734878,25
1766015894.0745459,23
1766015894.0755231,23
1766015894.076608,22
1766015894.077587,22
1766015894.078571,24
1766015894.07955,23
1766015894.080564,23
1766015894.081546,22
1766015894.082531,22
1766015894.083539,23
1766015894.084532,22
1766015894.0859048,21
1766015894.08655,26
1766015894.087549,23
1766015894.088589,22
1766015894.089626,25
1766015894.090594,25
1766015894.091558,22
1766015894.0925639,21
1766015894.093547,24
1766015894.094563,20
1766015894.095602,24
1766015894.096606,25
1766015894.0975978,23
1766015894.098569,24
1766015894.0996082,23
1766015894.1005938,19
1766015894.101591,24
1766015894.1025898,23
1766015894.1035898,24
1766015894.104596,23
1766015894.105587,21
1766015894.106581,21
1766015894.107604,24
1766015894.1086159,21
1766015894.109626,26
1766015894.110612,24
1766015894.111619,21
1766015894.112603,24
1766015894.113607,26
1766015894.114608,23
1766015894.115637,21
1766015894.11664,25
1766015894.117642,24
1766015894.118644,19
1766015894.119652,22
1766015894.1206532,23
1766015894.1216269,22
1766015894.1226492,20
1766015894.1236749,23
1766015894.124701,24
1766015894.125692,23
1766015894.1266592,23
1766015894.127678,25
1766015894.128669,22
1766015894.129678,23
1766015894.130665,21
1766015894.1316621,24
1766015894.132668,24
1766015894.133675,21
1766015894.134676,23
1766015894.1356711,24
1766015894.136689,27
1766015894.137692,24
1766015894.138687,24
1766015894.139678,23
1766015894.1406798,22
1766015894.141671,23
1766015894.142689,20
1766015894.1437051,25
1766015894.144705,23
1766015894.1456928,21
1766015894.146699,23
1766015894.147708,20
1766015894.148712,22
1766015894.149703,22
1766015894.150722,22
1766015894.1517272,23
1766015894.152721,23
1766015894.153725,21
1766015894.154764,24
1766015894.15573,23
1766015894.156738,26
1766015894.1577332,21
1766015894.158732,25
1766015894.159759,23
1766015894.160747,21
1766015894.161759,24
1766015894.162761,26
1766015894.1637602,20
1766015894.164771,23
1766015894.165764,20
1766015894.166786,22
1766015894.167835,21
1766015894.168803,21
1766015894.169784,24
1766015894.170789,25
1766015894.171796,23
1766015894.1727848,26
1766015894.173791,23
1766015894.174767,23
1766015894.175788,24
1766015894.1768,26
1766015894.177804,25
1766015894.178814,24
1766015894.179809,23
1766015894.1808078,24
1766015894.181812,25
1766015894.182807,23
1766015894.183819,26
1766015894.1848152,23
1766015894.185819,24
1766015894.1868181,23
1766015894.1878211,24
1766015894.188829,23
1766015894.1898282,26
1766015894.1908622,23
1766015894.191838,23
1766015894.192839,24
1766015894.193853,28
1766015894.1948931,28
1766015894.1958442,25
1766015894.1968782,27
1766015894.1978612,26
1766015894.1988559,26
1766015894.199944,25
1766015894.20088,25
1766015894.201893,24
1766015894.2028859,24
1766015894.203889,25
1766015894.204896,26
1766015894.205906,24
1766015894.206969,27
1766015894.2079098,23
1766015894.2088902,23
1766015894.209923,24
1766015894.210919,26
1766015894.211923,27
1766015894.212972,29
1766015894.213993,24
1766015894.214962,27
1766015894.215917,29
1766015894.2169101,30
1766015894.217921,29
1766015894.2189388,29
1766015894.219924,29
1766015894.2209349,31
1766015894.2219572,30
1766015894.223028,29
1766015894.224017,28
1766015894.2250261,28
1766015894.225916,29
1766015894.22696,32
1766015894.22805,30
1766015894.228999,30
1766015894.230028,29
1766015894.23102,33
1766015894.2320151,32
1766015894.2330298,32
1766015894.2340229,30
1766015894.23502,33
1766015894.236032,34
1766015894.237024,32
1766015894.238037,29
1766015894.2390442,31
1766015894.240016,29
1766015894.241013,33
1766015894.2420459,33
1766015894.243038,34
1766015894.2440479,32
1766015894.2450418,32
1766015894.246038,31
1766015894.247034,32
1766015894.2480068,29
1766015894.249061,30
1766015894.250025,30
1766015894.251033,33
1766015894.2520168,33
1766015894.253005,31
1766015894.2540128,30
1766015894.255009,32
1766015894.25602,31
1766015894.2570071,29
1766015894.258039,32
1766015894.259014,30
1766015894.26002,33
1766015894.26101,31
1766015894.262034,31
1766015894.263045,32
1766015894.2640362,30
1766015894.2650251,32
1766015894.266026,34
1766015894.267074,31
1766015894.268057,28
1766015894.269035,32
1766015894.270043,30
1766015894.271046,32
1766015894.2720268,27
1766015894.27306,35
1766015894.2740731,29
1766015894.2750652,30
1766015894.2760751,33
1766015894.277081,33
1766015894.278086,37
1766015894.279079,32
1766015894.280098,33
1766015894.2810729,36
1766015894.282112,35
1766015894.283096,33
1766015894.28409,35
1766015894.2851148,31
1766015894.28612,33
1766015894.287102,35
1766015894.288076,34
1766015894.289119,35
1766015894.290101,37
1766015894.291104,33
1766015894.292105,35
1766015894.2931142,31
1766015894.294194,33
1766015894.29514,35
1766015894.296129,33
1766015894.2971468,36
1766015894.298162,34
1766015894.299165,36
1766015894.3001611,34
1766015894.3011699,37
1766015894.3021739,34
1766015894.303178,36
1766015894.3041549,39
1766015894.305176,43
1766015894.306174,41
1766015894.307178,43
1766015894.308147,46
1766015894.309168,43
1766015894.310157,45
1766015894.311146,44
1766015894.31215,47
1766015894.313163,44
1766015894.314167,45
1766015894.3151622,44
1766015894.31617,44
1766015894.3171918,43
1766015894.31818,44
1766015894.3191628,48
1766015894.3201668,45
1766015894.3211882,47
1766015894.322166,46
1766015894.323189,48
1766015894.324191,47
1766015894.325213,48
1766015894.326219,43
1766015894.327206,47
1766015894.3282151,46
1766015894.3292139,44
1766015894.330216,45
1766015894.3312871,45
1766015894.3322759,47
1766015894.33329,43
1766015894.33429,48
1766015894.335216,46
1766015894.336221,45
1766015894.3372211,44
1766015894.338219,45
1766015894.3392918,43
1766015894.3402472,46
1766015894.341227,46
1766015894.342252,49
1766015894.3432472,49
1766015894.344233,47
1766015894.345228,47
1766015894.346236,48
1766015894.3472471,47
1766015894.3482509,46
1766015894.349262,46
1766015894.3502889,46
1766015894.351268,46
1766015894.3522618,48
1766015894.353258,44
1766015894.354291,45
1766015894.355287,46
1766015894.35627,45
1766015894.3572962,45
1766015894.358293,48
1766015894.359298,47
1766015894.36028,47
1766015894.361307,51
1766015894.362297,49
1766015894.3633,52
1766015894.364303,48
1766015894.3653061,51
1766015894.3663192,50
1766015894.36738,54
1766015894.368313,53
1766015894.36931,52
1766015894.370307,53
1766015894.371318,53
1766015894.372295,53
1766015894.373302,55
1766015894.374333,56
1766015894.375337,59
1766015894.376329,58
1766015894.3773282,58
1766015894.378356,60
1766015894.3793652,59
1766015894.3803651,55
1766015894.381373,58
1766015894.3823712,59
1766015894.38338,55
1766015894.384361,56
1766015894.3853629,55
1766015894.3863528,57
1766015894.3873558,57
1766015894.388375,56
1766015894.389378,57
1766015894.3903701,55
1766015894.391375,53
1766015894.392415,56
1766015894.393443,54
1766015894.394429,53
1766015894.3953888,54
1766015894.396408,51
1766015894.3974242,55
1766015894.398401,52
1766015894.399411,52
1766015894.40039,50
1766015894.401403,53
1766015894.402393,52
1766015894.40339,53
1766015894.4044092,51
1766015894.4054332,47
1766015894.406423,47
1766015894.407422,52
1766015894.408422,47
1766015894.4094248,49
1766015894.410419,48
1766015894.411432,48
1766015894.412435,45
1766015894.413437,46
1766015894.414423,49
1766015894.41545,48
1766015894.4164538,46
1766015894.417454,48
1766015894.418447,49
1766015894.4194329,48
1766015894.420455,49
1766015894.4214551,48
1766015894.422459,49
1766015894.423467,48
1766015894.424476,50
1766015894.4254599,50
1766015894.426501,50
1766015894.427499,50
1766015894.428496,52
1766015894.4295669,54
1766015894.430507,51
1766015894.431531,53
1766015894.432498,53
1766015894.4335208,51
1766015894.434494,54
1766015894.435495,52
1766015894.436529,50
1766015894.437531,48
1766015894.438525,51
1766015894.4395132,48
1766015894.440542,50
1766015894.441547,54
1766015894.442554,56
1766015894.443538,54
1766015894.444535,55
1766015894.445528,58
1766015894.446522,59
1766015894.447527,56
1766015894.44852,59
1766015894.4495401,60
1766015894.450542,60
1766015894.451591,58
1766015894.452576,59
1766015894.4536152,58
1766015894.45462,60
1766015894.45557,62
1766015894.456547,57
1766015894.457561,59
1766015894.458582,58
1766015894.459549,59
1766015894.4605482,58
1766015894.461559,57
1766015894.462602,60
1766015894.463566,56
1766015894.464603,56
1766015894.465569,59
1766015894.466584,58
1766015894.4675882,59
1766015894.4685922,57
1766015894.469585,57
1766015894.4705842,56
1766015894.471613,57
1766015894.4726038,57
1766015894.4736562,57
1766015894.4746199,59
1766015894.4756448,57
1766015894.4766688,57
1766015894.47763,57
1766015894.478695,55
1766015894.479664,53
1766015894.4807098,55
1766015894.481675,56
1766015894.4827251,52
1766015894.483665,51
1766015894.484673,53
1766015894.4856791,52
1766015894.486623,53
1766015894.487715,54
1766015894.4887,53
1766015894.4897192,49
1766015894.490701,54
1766015894.4916952,53
1766015894.492743,52
1766015894.49376,50
1766015894.4946969,50
1766015894.4956858,52
1766015894.496753,46
1766015894.497689,51
1766015894.498729,47
1766015894.499778,49
1766015894.500702,51
1766015894.501728,49
1766015894.502707,48
1766015894.503745,50
1766015894.504693,47
1766015894.505731,44
1766015894.506737,49
1766015894.507732,46
1766015894.508704,49
1766015894.509826,46
1766015894.510736,48
1766015894.5116959,48
1766015894.512723,48
1766015894.513751,47
1766015894.514818,47
1766015894.5158012,44
1766015894.516782,46
1766015894.517789,48
1766015894.5187762,50
1766015894.519754,52
1766015894.5207858,51
1766015894.521817,50
1766015894.522794,52
1766015894.5237792,48
1766015894.524789,51
1766015894.5258088,51
1766015894.526765,53
1766015894.527842,49
1766015894.528799,50
1766015894.529813,49
1766015894.530818,47
1766015894.531811,48
1766015894.532799,47
1766015894.5338502,47
1766015894.5348349,49
1766015894.53584,47
1766015894.536797,47
1766015894.537837,46
1766015894.5388281,45
1766015894.539809,45
1766015894.540818,47
1766015894.5418491,46
1766015894.542838,47
1766015894.543832,43
1766015894.544827,48
1766015894.5458581,46
1766015894.546846,43
1766015894.54787,45
1766015894.548861,50
1766015894.549879,46
1766015894.550855,45
1766015894.551847,47
1766015894.552862,47
1766015894.553865,45
1766015894.5548701,48
1766015894.555897,46
1766015894.556879,46
1766015894.557902,47
1766015894.558857,47
1766015894.559875,48
1766015894.560883,46
1766015894.561853,50
1766015894.562882,45
1766015894.5639071,50
1766015894.564894,48
1766015894.565936,47
1766015894.5669,45
1766015894.56791,46
1766015894.568908,44
1766015894.5698838,45
1766015894.570883,44
1766015894.5719092,46
1766015894.572934,44
1766015894.5739431,44
1766015894.574904,43
1766015894.575938,41
1766015894.576931,40
1766015894.5779378,41
1766015894.578947,44
1766015894.57995,45
1766015894.580968,45
1766015894.5819361,42
1766015894.583046,44
1766015894.584034,43
1766015894.584933,43
1766015894.586024,47
1766015894.5870411,48
1766015894.588052,44
1766015894.589062,44
1766015894.5900302,44
1766015894.59106,44
1766015894.592053,43
1766015894.593056,45
1766015894.5940511,43
1766015894.595008,44
1766015894.596073,43
1766015894.597055,46
1766015894.598061,43
1766015894.599054,43
1766015894.6000488,44
1766015894.601048,44
1766015894.6020439,43
1766015894.603032,40
1766015894.60406,44
1766015894.605044,44
1766015894.6060538,43
1766015894.6070468,44
1766015894.6080582,44
1766015894.609059,41
1766015894.6100538,43
1766015894.611053,45
1766015894.612004,46
1766015894.613052,45
1766015894.614045,42
1766015894.615053,40
1766015894.6160488,46
1766015894.617059,43
1766015894.618073,44
1766015894.6190772,45
1766015894.620018,46
1766015894.621068,44
1766015894.622048,44
1766015894.6230772,45
1766015894.624066,43
1766015894.625092,43
1766015894.626088,44
1766015894.6270962,41
1766015894.628103,44
1766015894.629063,42
1766015894.630102,41
1766015894.631099,44
1766015894.632086,44
1766015894.633121,46
1766015894.634086,43
1766015894.635173,43
1766015894.6361458,42
1766015894.6371148,43
1766015894.638125,43
1766015894.639114,41
1766015894.640086,40
1766015894.641089,42
1766015894.642117,40
1766015894.6431282,45
1766015894.64411,42
1766015894.645094,43
1766015894.64609,39
1766015894.647094,42
1766015894.648119,44
1766015894.649135,38
1766015894.650136,42
1766015894.6511621,40
1766015894.652164,41
1766015894.6531358,42
1766015894.654188,39
1766015894.655124,41
1766015894.656131,39
1766015894.657165,43
1766015894.6582022,40
1766015894.659174,41
1766015894.660179,38
1766015894.661182,39
1766015894.662184,40
1766015894.6631732,39
1766015894.6641989,39
1766015894.665181,38
1766015894.666197,41
1766015894.667207,44
1766015894.668225,47
1766015894.6692128,44
1766015894.670177,43
1766015894.671175,42
1766015894.67223,45
1766015894.6731882,42
1766015894.674209,42
1766015894.6751869,43
1766015894.6762161,44
1766015894.677232,42
1766015894.6782029,46
1766015894.679224,43
1766015894.6802602,44
1766015894.681234,43
1766015894.682243,44
1766015894.68324,43
1766015894.684264,41
1766015894.685228,43
1766015894.68624,42
1766015894.687231,41
1766015894.688239,38
1766015894.68925,41
1766015894.6902559,39
1766015894.691266,43
1766015894.692265,41
1766015894.693276,36
1766015894.6942568,43
1766015894.6953118,38
1766015894.69628,38
1766015894.6972759,42
1766015894.698275,42
1766015894.699293,42
1766015894.700279,37
1766015894.701301,38
1766015894.702293,40
1766015894.7032561,41
1766015894.704278,41
1766015894.705281,43
1766015894.706346,38
1766015894.707266,38
1766015894.708283,42
1766015894.709322,40
1766015894.710325,36
1766015894.7112892,38
1766015894.712306,35
1766015894.713311,38
1766015894.714313,36
1766015894.7153049,37
1766015894.7163148,37
1766015894.7173052,38
1766015894.7183301,41
1766015894.7193222,39
1766015894.7203012,42
1766015894.721341,38
1766015894.72234,40
1766015894.7233028,39
1766015894.724308,37
1766015894.725318,39
1766015894.726336,38
1766015894.72733,38
1766015894.728319,35
1766015894.7293189,40
1766015894.730365,38
1766015894.731353,40
1766015894.732363,43
1766015894.733369,41
1766015894.734402,40
1766015894.735394,37
1766015894.7363892,39
1766015894.737355,40
1766015894.738369,38
1766015894.739369,36
1766015894.7403672,39
1766015894.7413912,36
1766015894.742385,39
1766015894.743392,40
1766015894.744394,38
1766015894.745366,35
1766015894.746416,35
1766015894.747398,36
1766015894.7483919,38
1766015894.749425,35
1766015894.750419,39
1766015894.751425,35
1766015894.7524211,35
1766015894.7534149,39
1766015894.754431,33
1766015894.755527,40
1766015894.7564611,35
1766015894.7573981,36
1766015894.7584178,37
1766015894.759426,35
1766015894.760418,35
1766015894.7614248,38
1766015894.7624981,38
1766015894.763463,40
1766015894.76447,41
1766015894.765447,39
1766015894.766473,37
1766015894.76745,41
1766015894.768472,42
1766015894.769432,41
1766015894.770467,42
1766015894.771462,37
1766015894.772479,41
1766015894.773451,40
1766015894.7745001,40
1766015894.775442,43
1766015894.776478,42
1766015894.77748,40
1766015894.7784488,38
1766015894.779497,38
1766015894.780499,41
1766015894.781457,40
1766015894.782492,39
1766015894.783496,42
1766015894.784513,40
1766015894.7854998,41
1766015894.7865,41
1766015894.787509,42
1766015894.788525,42
1766015894.789493,36
1766015894.790546,43
1766015894.7915368,35
1766015894.7925298,40
1766015894.7935271,39
1766015894.794539,40
1766015894.795567,38
1766015894.796575,39
1766015894.797525,41
1766015894.79856,43
1766015894.799574,40
1766015894.8005261,39
1766015894.801553,42
1766015894.802538,42
1766015894.803543,42
1766015894.8045561,40
1766015894.805564,43
1766015894.806587,41
1766015894.807596,44
1766015894.8086069,42
1766015894.8095849,42
1766015894.8105888,40
1766015894.811616,41
1766015894.812603,40
1766015894.813604,41
1766015894.8146079,39
1766015894.815597,42
1766015894.816598,37
1766015894.817621,41
1766015894.8186,41
1766015894.819617,40
1766015894.820632,39
1766015894.821633,39
1766015894.822614,41
1766015894.823626,40
1766015894.8246138,40
1766015894.8256562,40
1766015894.826622,39
1766015894.8276281,41
1766015894.828631,41
1766015894.829633,40
1766015894.8306391,38
1766015894.831647,38
1766015894.832644,38
1766015894.833653,40
1766015894.834662,38
1766015894.8356638,38
1766015894.836668,40
1766015894.8376682,37
1766015894.8386729,37
1766015894.839694,38
1766015894.840684,38
1766015894.841682,40
1766015894.8426821,39
1766015894.8437161,38
1766015894.844712,41
1766015894.845706,42
1766015894.846699,40
1766015894.847706,43
1766015894.848686,38
1766015894.849697,38
1766015894.850712,41
1766015894.8517172,38
1766015894.852709,37
1766015894.853714,39
1766015894.854711,38
1766015894.85572,38
1766015894.856724,39
1766015894.8577201,37
1766015894.8587189,38
1766015894.8597171,37
1766015894.860728,39
1766015894.861732,37
1766015894.862732,36
1766015894.863738,38
1766015894.8647501,36
1766015894.8657432,41
1766015894.8667588,39
1766015894.867745,36
1766015894.868742,35
1766015894.869741,37
1766015894.870768,34
1766015894.8717551,37
1766015894.872755,37
1766015894.873763,37
1766015894.8747609,37
1766015894.8757708,37
1766015894.876778,37
1766015894.87776,35
1766015894.878792,34
1766015894.8797739,36
1766015894.8807821,35
1766015894.881778,38
1766015894.882787,36
1766015894.88379,36
1766015894.884794,33
1766015894.885791,36
1766015894.886792,34
1766015894.887798,34
1766015894.8888052,35
1766015894.889806,32
1766015894.89083,36
1766015894.891829,37
1766015894.892854,37
1766015894.8938339,36
1766015894.89485,34
1766015894.8958552,38
1766015894.897107,37
1766015894.897843,35
1766015894.898849,33
1766015894.899851,37
1766015894.9008472,37
1766015894.9018319,38
1766015894.902837,33
1766015894.90385,36
1766015894.904854,37
1766015894.905849,34
1766015894.9068532,36
1766015894.907855,36
1766015894.9088662,36
1766015894.909869,36
1766015894.910878,40
1766015894.911885,35
1766015894.9128802,38
1766015894.913889,38
1766015894.914892,34
1766015894.915872,35
1766015894.916908,37
1766015894.917904,33
1766015894.918904,32
1766015894.919899,34
1766015894.920913,34
1766015894.921897,31
1766015894.922903,34
1766015894.923897,34
1766015894.9249122,34
1766015894.92592,31
1766015894.92693,33
1766015894.927958,33
1766015894.9289448,33
1766015894.929975,37
1766015894.930953,35
1766015894.931946,35
1766015894.932965,36
1766015894.9339578,35
1766015894.9349608,37
1766015894.9359841,35
1766015894.936969,36
1766015894.938057,36
1766015894.939038,34
1766015894.940053,32
1766015894.940958,33
1766015894.9420722,36
1766015894.943064,34
1766015894.9440498,31
1766015894.9450428,36
1766015894.946023,32
1766015894.947047,33
1766015894.948062,33
1766015894.949055,35
1766015894.950054,32
1766015894.951042,34
1766015894.95206,36
1766015894.9530509,35
1766015894.9540422,33
1766015894.955053,32
1766015894.9560409,34
1766015894.957037,35
1766015894.958036,35
1766015894.959052,32
1766015894.9600372,35
1766015894.961043,33
1766015894.9620302,32
1766015894.9630349,33
1766015894.964032,33
1766015894.965031,32
