timestamp,emg_value
1766015866.4498649,38
1766015866.4498858,35
1766015866.449903,38
1766015866.449919,35
1766015866.4499352,38
1766015866.449951,37
1766015866.4499662,37
1766015866.449982,36
1766015866.449997,38
1766015866.450018,37
1766015866.450034,38
1766015866.450048,36
1766015866.450061,39
1766015866.4500742,37
1766015866.45009,34
1766015866.450104,36
1766015866.4501178,34
1766015866.450133,35
1766015866.450146,33
1766015866.450159,37
1766015866.450172,37
1766015866.450185,35
1766015866.450198,34
1766015866.450211,36
1766015866.4502242,38
1766015866.450239,34
1766015866.450252,35
1766015866.4502652,35
1766015866.4502778,32
1766015866.450291,36
1766015866.450305,37
1766015866.450326,31
1766015866.450356,35
1766015866.45037,35
1766015866.4503849,37
1766015866.450398,35
1766015866.45041,35
1766015866.450423,35
1766015866.450439,33
1766015866.450454,37
1766015866.450468,35
1766015866.4504828,36
1766015866.450496,33
1766015866.450509,35
1766015866.4505222,35
1766015866.4505348,33
1766015866.450549,35
1766015866.450562,35
1766015866.4505742,34
1766015866.4505868,32
1766015866.450602,33
1766015866.450614,35
1766015866.450627,35
1766015866.450644,36
1766015866.450659,34
1766015866.4506721,34
1766015866.450685,34
1766015866.450698,35
1766015866.450712,31
1766015866.450725,37
1766015866.450738,33
1766015866.4507499,36
1766015866.4507651,33
1766015866.450778,37
1766015866.450794,39
1766015866.4508119,34
1766015866.450824,37
1766015866.450837,36
1766015866.45085,35
1766015866.4508631,36
1766015866.450876,34
1766015866.4508889,32
1766015866.450902,33
1766015866.450917,33
1766015866.4509308,33
1766015866.4509451,37
1766015866.4509592,34
1766015866.450976,35
1766015866.45099,35
1766015866.4510028,35
1766015866.451016,35
1766015866.451029,35
1766015866.451042,37
1766015866.451055,33
1766015866.451068,39
1766015866.4510798,36
1766015866.451093,37
1766015866.451106,34
1766015866.4511192,35
1766015866.4511318,38
1766015866.451145,36
1766015866.451158,37
1766015866.4511712,34
1766015866.451185,35
1766015866.451199,39
1766015866.451212,36
1766015866.451225,34
1766015866.4512398,38
1766015866.451253,37
1766015866.451267,36
1766015866.4512799,36
1766015866.4512992,35
1766015866.4513128,35
1766015866.451326,36
1766015866.45134,37
1766015866.451353,33
1766015866.4513679,35
1766015866.451381,33
1766015866.4513972,30
1766015866.451415,32
1766015866.4514282,35
1766015866.4514408,31
1766015866.451453,34
1766015866.451466,34
1766015866.451479,32
1766015866.451493,30
1766015866.451506,33
1766015866.451519,33
1766015866.4515321,35
1766015866.451545,35
1766015866.4515579,32
1766015866.451571,31
1766015866.451583,32
1766015866.451596,33
1766015866.4516091,34
1766015866.4516218,33
1766015866.451635,31
1766015866.451648,34
1766015866.451662,36
1766015866.451678,33
1766015866.451692,35
1766015866.451705,32
1766015866.4517179,34
1766015866.451731,33
1766015866.451744,33
1766015866.451757,31
1766015866.45177,33
1766015866.451783,36
1766015866.4517949,31
1766015866.451808,34
1766015866.451821,31
1766015866.4518342,32
1766015866.4518468,32
1766015866.45186,31
1766015866.451873,34
1766015866.4518862,31
1766015866.4518988,33
1766015866.451912,31
1766015866.451925,34
1766015866.4519382,35
1766015866.451951,33
1766015866.451964,33
1766015866.451977,35
1766015866.4519901,32
1766015866.452003,30
1766015866.4520168,34
1766015866.45203,34
1766015866.452043,31
1766015866.4520562,31
1766015866.452069,33
1766015866.4520829,33
1766015866.452096,32
1766015866.45211,32
1766015866.45213,35
1766015866.4521432,36
1766015866.4521558,31
1766015866.4521759,34
1766015866.45219,33
1766015866.452203,33
1766015866.4522161,33
1766015866.45223,36
1766015866.4522429,35
1766015866.452256,34
1766015866.452269,34
1766015866.4522822,33
1766015866.4522948,33
1766015866.4523132,34
1766015866.452327,35
1766015866.452341,34
1766015866.452357,32
1766015866.452371,31
1766015866.452384,30
1766015866.452397,33
1766015866.4524128,38
1766015866.452427,33
1766015866.452439,35
1766015866.4524531,35
1766015866.452466,33
1766015866.452478,31
1766015866.452491,30
1766015866.4525042,33
1766015866.452517,30
1766015866.45253,34
1766015866.452543,39
1766015866.452558,31
1766015866.452571,35
1766015866.452584,37
1766015866.452598,37
1766015866.452611,35
1766015866.4526238,37
1766015866.452637,37
1766015866.45265,37
1766015866.452663,39
1766015866.452676,36
1766015866.452689,36
1766015866.452702,37
1766015866.452716,38
1766015866.4527302,36
1766015866.4527428,38
1766015866.452757,40
1766015866.45277,39
1766015866.452783,35
1766015866.452796,34
1766015866.4528089,37
1766015866.452822,33
1766015866.452835,34
1766015866.452847,37
1766015866.4528608,34
1766015866.452875,36
1766015866.4528892,35
1766015866.4529018,37
1766015866.452915,32
1766015866.452928,31
1766015866.452941,36
1766015866.452954,35
1766015866.452967,34
1766015866.45298,30
1766015866.453005,32
1766015866.4530182,33
1766015866.4530308,34
1766015866.453044,33
1766015866.453057,33
1766015866.4530702,34
1766015866.453084,37
1766015866.4530969,34
1766015866.45311,34
1766015866.453123,35
1766015866.453135,35
1766015866.453148,37
1766015866.453162,36
1766015866.453175,34
1766015866.4531882,32
1766015866.4532008,36
1766015866.453214,35
1766015866.453227,33
1766015866.4532402,35
1766015866.453253,36
1766015866.453265,35
1766015866.453279,35
1766015866.453291,39
1766015866.4533088,32
1766015866.4533231,35
1766015866.4533389,36
1766015866.453353,32
1766015866.453366,32
1766015866.4533792,35
1766015866.4533918,36
1766015866.453404,31
1766015866.453417,35
1766015866.4534342,30
1766015866.453449,35
1766015866.4534621,35
1766015866.453475,34
1766015866.453488,32
1766015866.4534998,35
1766015866.453514,34
1766015866.453527,35
1766015866.45354,32
1766015866.453553,34
1766015866.4535658,37
1766015866.453579,37
1766015866.453592,38
1766015866.4536052,35
1766015866.4536169,34
1766015866.45363,33
1766015866.453643,33
1766015866.453656,36
1766015866.453669,33
1766015866.453682,34
1766015866.453695,34
1766015866.4537091,33
1766015866.453721,33
1766015866.453734,32
1766015866.453747,35
1766015866.45376,32
1766015866.453773,32
1766015866.4537861,33
1766015866.453799,36
1766015866.453812,33
1766015866.453825,30
1766015866.453838,31
1766015866.453852,35
1766015866.4538682,31
1766015866.4538822,37
1766015866.4538949,35
1766015866.453908,36
1766015866.453921,36
1766015866.4539342,33
1766015866.4539468,35
1766015866.45396,35
1766015866.453973,31
1766015866.453986,34
1766015866.453999,33
1766015866.454012,36
1766015866.454025,32
1766015866.454038,35
1766015866.454051,35
1766015866.4540641,33
1766015866.454077,32
1766015866.454091,34
1766015866.454103,33
1766015866.454116,34
1766015866.454129,33
1766015866.4541419,36
1766015866.454155,34
1766015866.454168,33
1766015866.4541812,35
1766015866.4541938,32
1766015866.454207,35
1766015866.454222,32
1766015866.4542348,35
1766015866.454248,30
1766015866.454261,33
1766015866.454274,32
1766015866.45429,32
1766015866.454311,33
1766015866.454325,33
1766015866.45434,32
1766015866.4543538,30
1766015866.454367,31
1766015866.45438,30
1766015866.4543931,33
1766015866.454407,32
1766015866.454421,31
1766015866.454435,32
1766015866.45445,33
1766015866.454465,30
1766015866.454478,29
1766015866.454491,32
1766015866.454504,29
1766015866.454517,30
1766015866.45453,30
1766015866.454543,33
1766015866.454556,29
1766015866.4545689,31
1766015866.4545841,30
1766015866.454599,31
1766015866.454614,29
1766015866.454628,28
1766015866.454643,30
1766015866.454658,30
1766015866.4546728,29
1766015866.454686,30
1766015866.454704,29
1766015866.454717,31
1766015866.45473,29
1766015866.454745,32
1766015866.454761,30
1766015866.454774,30
1766015866.454787,29
1766015866.4548,30
1766015866.454813,27
1766015866.4548259,28
1766015866.454839,27
1766015866.454852,29
1766015866.454865,30
1766015866.4548779,26
1766015866.454891,29
1766015866.454905,28
1766015866.454918,31
1766015866.454931,26
1766015866.454943,27
1766015866.454956,27
1766015866.4549692,28
1766015866.4549818,29
1766015866.454995,29
1766015866.455008,28
1766015866.4550211,28
1766015866.455036,30
1766015866.455049,29
1766015866.455062,27
1766015866.4550772,28
1766015866.455092,31
1766015866.455106,30
1766015866.4551191,28
1766015866.455132,30
1766015866.455145,27
1766015866.455158,30
1766015866.455171,30
1766015866.455188,29
1766015866.455203,30
1766015866.455227,30
1766015866.4552472,31
1766015866.455263,31
1766015866.455276,31
1766015866.4552891,28
1766015866.455302,31
1766015866.4553149,31
1766015866.455328,30
1766015866.4553442,31
1766015866.455358,30
1766015866.455372,31
1766015866.455385,35
1766015866.4553978,33
1766015866.455411,35
1766015866.455424,33
1766015866.455437,34
1766015866.45545,37
1766015866.455463,37
1766015866.455476,44
1766015866.455489,53
1766015866.455502,57
1766015866.455515,60
1766015866.455528,62
1766015866.455541,61
1766015866.455554,68
1766015866.4555671,64
1766015866.45558,66
1766015866.4555929,67
1766015866.455606,66
1766015866.455619,62
1766015866.455632,63
1766015866.4556491,63
1766015866.4556642,63
1766015866.4556758,65
1766015866.45569,62
1766015866.455703,61
1766015866.4557161,60
1766015866.455729,61
1766015866.455742,60
1766015866.455755,59
1766015866.455768,61
1766015866.4557812,57
1766015866.4557939,59
1766015866.455807,58
1766015866.45582,58
1766015866.4558332,57
1766015866.4558458,56
1766015866.455859,55
1766015866.4558709,53
1766015866.4558852,52
1766015866.455898,53
1766015866.455911,55
1766015866.455924,54
1766015866.455937,53
1766015866.45595,50
1766015866.455963,51
1766015866.455976,52
1766015866.455989,48
1766015866.456002,52
1766015866.456015,51
1766015866.456028,50
1766015866.4560409,52
1766015866.456054,49
1766015866.45607,48
1766015866.456086,48
1766015866.4561,50
1766015866.4561129,51
1766015866.456126,48
1766015866.456139,48
1766015866.456152,45
1766015866.456165,47
1766015866.456178,46
1766015866.456191,47
1766015866.456204,45
1766015866.456217,44
1766015866.4562292,45
1766015866.456243,49
1766015866.456256,45
1766015866.456269,42
1766015866.4562821,43
1766015866.4562938,41
1766015866.456308,43
1766015866.456321,45
1766015866.4563358,45
1766015866.456352,41
1766015866.456365,42
1766015866.456379,42
1766015866.456393,42
1766015866.456466,40
1766015866.456484,42
1766015866.456497,42
1766015866.456535,42
1766015866.4565609,40
1766015866.456575,39
1766015866.456589,38
1766015866.456602,39
1766015866.456619,35
1766015866.4566321,40
1766015866.456645,41
1766015866.456658,36
1766015866.456672,36
1766015866.456684,37
1766015866.4566982,36
1766015866.4567108,37
1766015866.456724,36
1766015866.456748,36
1766015866.456823,35
1766015866.4568388,37
1766015866.456853,37
1766015866.456866,34
1766015866.4568791,35
1766015866.456892,36
1766015866.456906,37
1766015866.456919,36
1766015866.456932,37
1766015866.456945,34
1766015866.456958,34
1766015866.456971,36
1766015866.456984,33
1766015866.4569972,34
1766015866.457011,34
1766015866.457024,34
1766015866.457037,35
1766015866.45705,33
1766015866.457063,34
1766015866.457076,35
1766015866.4570901,34
1766015866.457103,29
1766015866.457119,32
1766015866.457133,30
1766015866.45715,33
1766015866.457162,30
1766015866.457176,33
1766015866.457189,30
1766015866.457202,32
1766015866.457215,31
1766015866.457228,32
1766015866.457241,31
1766015866.457254,31
1766015866.457267,30
1766015866.45728,31
1766015866.457293,30
1766015866.457309,31
1766015866.457322,29
1766015866.457336,29
1766015866.457349,32
1766015866.457362,29
1766015866.457375,31
1766015866.457388,28
1766015866.457401,32
1766015866.457414,32
1766015866.457427,28
1766015866.45744,29
1766015866.457453,28
1766015866.4574668,31
1766015866.45748,28
1766015866.457493,28
1766015866.457505,28
1766015866.457518,28
1766015866.457531,27
1766015866.4575438,30
1766015866.45756,31
1766015866.457574,26
1766015866.457587,30
1766015866.4576,29
1766015866.457613,31
1766015866.4576252,29
1766015866.4576378,31
1766015866.457651,28
1766015866.457664,25
1766015866.457678,28
1766015866.457691,28
1766015866.4577038,28
1766015866.457716,30
1766015866.457729,27
1766015866.4577432,27
1766015866.4577549,27
1766015866.457768,29
1766015866.457781,28
1766015866.457794,24
1766015866.457807,27
1766015866.45782,28
1766015866.457833,26
1766015866.457846,25
1766015866.457859,31
1766015866.457872,30
1766015866.457885,26
1766015866.457898,26
1766015866.457912,27
1766015866.457925,26
1766015866.457938,30
1766015866.457951,28
1766015866.457962,27
1766015866.457974,28
1766015866.457988,26
1766015866.457999,29
1766015866.458011,26
1766015866.4580219,27
1766015866.458034,28
1766015866.458045,25
1766015866.458057,25
1766015866.458068,27
1766015866.458081,30
1766015866.4580932,25
1766015866.4581041,30
1766015866.458115,27
1766015866.458127,23
1766015866.4581382,31
1766015866.4581492,29
1766015866.4581609,26
1766015866.4581718,25
1766015866.4581828,28
1766015866.458195,26
1766015866.458206,27
1766015866.458217,29
1766015866.458229,29
1766015866.45824,25
1766015866.458252,27
1766015866.4582632,32
1766015866.4582741,24
1766015866.458286,27
1766015866.458297,31
1766015866.4583092,30
1766015866.45832,28
1766015866.4583309,29
1766015866.458343,31
1766015866.458356,28
1766015866.458368,27
1766015866.45838,26
1766015866.4583921,29
1766015866.458403,29
1766015866.458415,28
1766015866.458427,29
1766015866.458438,29
1766015866.458449,29
1766015866.458461,27
1766015866.458472,28
1766015866.458483,27
1766015866.458495,24
1766015866.4585059,26
1766015866.458518,29
1766015866.458529,26
1766015866.45854,28
1766015866.458551,29
1766015866.4585621,30
1766015866.458574,31
1766015866.458585,30
1766015866.458596,30
1766015866.4586082,28
1766015866.4586189,29
1766015866.4586308,28
1766015866.458642,27
1766015866.458653,30
1766015866.458665,29
1766015866.4586759,28
1766015866.458687,31
1766015866.458699,29
1766015866.45871,26
1766015866.458721,29
1766015866.458735,25
1766015866.4587479,30
1766015866.45876,30
1766015866.458772,26
1766015866.458783,29
1766015866.4587939,31
1766015866.458805,28
1766015866.458817,26
1766015866.458828,26
1766015866.458839,26
1766015866.4588501,30
1766015866.458862,27
1766015866.458873,28
1766015866.458884,28
1766015866.4588952,25
1766015866.458907,28
1766015866.4589179,29
1766015866.45893,27
1766015866.458941,28
1766015866.458952,27
1766015866.458965,25
1766015866.458977,24
1766015866.4589891,27
1766015866.459001,29
1766015866.4590132,27
1766015866.459024,28
1766015866.4590359,26
1766015866.4590468,28
1766015866.4590578,27
1766015866.45907,25
1766015866.459081,26
1766015866.459092,23
1766015866.459104,29
1766015866.4591172,27
1766015866.459129,27
1766015866.45914,27
1766015866.459152,26
1766015866.459163,27
1766015866.459174,28
1766015866.4591858,23
1766015866.459197,26
1766015866.459208,24
1766015866.459219,25
1766015866.459231,25
1766015866.4592419,24
1766015866.459253,27
1766015866.459264,26
1766015866.459276,26
1766015866.459287,26
1766015866.4592981,28
1766015866.459309,27
1766015866.4593222,25
1766015866.459334,25
1766015866.4593449,27
1766015866.459357,23
1766015866.459368,23
1766015866.459379,24
1766015866.4593909,22
1766015866.459402,25
1766015866.459413,26
1766015866.459425,24
1766015866.459436,22
1766015866.4594471,28
1766015866.459458,26
1766015866.45947,22
1766015866.4594822,28
1766015866.459497,25
1766015866.459509,24
1766015866.45952,25
1766015866.459532,22
1766015866.459543,25
1766015866.459554,26
1766015866.459566,24
1766015866.459577,23
1766015866.459588,23
1766015866.459599,23
1766015866.459611,26
1766015866.459622,25
1766015866.4596329,25
1766015866.459645,23
1766015866.459656,25
1766015866.459667,29
1766015866.459678,29
1766015866.459689,24
1766015866.459701,24
1766015866.459712,28
1766015866.459724,25
1766015866.459739,24
1766015866.459751,23
1766015866.4597619,26
1766015866.4597728,26
1766015866.459784,24
1766015866.459797,26
1766015866.45981,24
1766015866.459821,22
1766015866.459832,24
1766015866.459844,24
1766015866.459855,24
1766015866.459868,26
1766015866.4598799,24
1766015866.4598908,22
1766015866.459902,25
1766015866.459914,24
1766015866.459925,23
1766015866.459936,25
1766015866.459948,23
1766015866.459959,25
1766015866.4599712,24
1766015866.4599822,23
1766015866.4599931,22
1766015866.460004,25
1766015866.460017,22
1766015866.460028,24
1766015866.460039,25
1766015866.4600499,23
1766015866.460062,22
1766015866.460073,24
1766015866.460085,25
1766015866.460096,25
1766015866.460107,26
1766015866.460119,23
1766015866.46013,22
1766015866.460141,24
1766015866.4601521,24
1766015866.460164,23
1766015866.460175,22
1766015866.460186,24
1766015866.4601972,23
1766015866.460209,22
1766015866.4602199,25
1766015866.460232,23
1766015866.460246,25
1766015866.460259,25
1766015866.4602702,25
1766015866.460282,22
1766015866.460293,23
1766015866.4603038,21
1766015866.460316,21
1766015866.460329,20
1766015866.460341,25
1766015866.460352,22
1766015866.460363,25
1766015866.460374,21
1766015866.460385,22
1766015866.460397,22
1766015866.460408,25
1766015866.4604201,21
1766015866.460431,21
1766015866.4604428,24
1766015866.460454,23
1766015866.460465,25
1766015866.460476,23
1766015866.4604878,20
1766015866.460501,26
1766015866.460512,25
1766015866.460523,23
1766015866.460535,23
1766015866.460546,24
1766015866.4605582,21
1766015866.4605691,25
1766015866.460581,27
1766015866.460592,24
1766015866.460603,22
1766015866.460617,24
1766015866.4606311,23
1766015866.460644,22
1766015866.460657,25
1766015866.46067,25
1766015866.460682,24
1766015866.460693,24
1766015866.460704,21
1766015866.460716,21
1766015866.460727,24
1766015866.460738,23
1766015866.46075,20
1766015866.460761,22
1766015866.460772,22
1766015866.4607842,21
1766015866.460795,22
1766015866.460806,22
1766015866.4608169,22
1766015866.460829,24
1766015866.46084,21
1766015866.460851,23
1766015866.4608629,25
1766015866.460874,24
1766015866.460885,24
1766015866.460897,24
1766015866.460908,23
1766015866.4609191,24
1766015866.46093,24
1766015866.460942,22
1766015866.460953,25
1766015866.4609642,21
1766015866.4609752,23
1766015866.4609869,23
1766015866.4610019,23
1766015866.461015,22
1766015866.461026,19
1766015866.461038,25
1766015866.461049,21
1766015866.46106,20
1766015866.461071,25
1766015866.4610822,24
1766015866.461094,24
1766015866.4611049,22
1766015866.4611158,23
1766015866.4611268,23
1766015866.461139,23
1766015866.46115,20
1766015866.461161,19
1766015866.461173,23
1766015866.461185,20
1766015866.461196,23
1766015866.4612072,21
1766015866.461219,23
1766015866.46123,24
1766015866.461241,23
1766015866.4612532,21
1766015866.461264,24
1766015866.461277,26
1766015866.461289,24
1766015866.4613,23
1766015866.4613109,23
1766015866.461324,25
1766015866.4613361,20
1766015866.461347,22
1766015866.461358,23
1766015866.461372,22
1766015866.461385,22
1766015866.461397,22
1766015866.461409,24
1766015866.46142,18
1766015866.461431,23
1766015866.4614432,20
1766015866.4614542,20
1766015866.4614651,23
1766015866.461476,20
1766015866.4614882,24
1766015866.461499,20
1766015866.46151,21
1766015866.4615219,22
1766015866.4615328,23
1766015866.461544,21
1766015866.461555,25
1766015866.461568,20
1766015866.46158,20
1766015866.461591,21
1766015866.461602,24
1766015866.461613,21
1766015866.461625,24
1766015866.461636,22
1766015866.461648,20
1766015866.461659,23
1766015866.4616709,24
1766015866.4616818,21
1766015866.4616928,21
1766015866.461704,21
1766015866.461716,24
1766015866.461727,24
1766015866.4617379,22
1766015866.4617522,26
1766015866.4617631,22
1766015866.461774,24
1766015866.461786,25
1766015866.4617972,25
1766015866.461809,24
1766015866.46182,22
1766015866.4618309,23
1766015866.461843,21
1766015866.461854,20
1766015866.461865,22
1766015866.461876,22
1766015866.461887,22
1766015866.461897,21
1766015866.461907,23
1766015866.461917,24
1766015866.461927,20
1766015866.461938,23
1766015866.461948,21
1766015866.461958,20
1766015866.461967,25
1766015866.461977,23
1766015866.461987,23
1766015866.461997,24
1766015866.462007,23
1766015866.462017,20
1766015866.462028,23
1766015866.462038,21
1766015866.462048,23
1766015866.462058,23
1766015866.462068,20
1766015866.4620779,22
1766015866.462089,26
1766015866.462102,23
1766015866.4621131,23
1766015866.462123,23
1766015866.462133,20
1766015866.462143,23
1766015866.462153,23
1766015866.462163,21
1766015866.462173,23
1766015866.462183,22
1766015866.462193,23
1766015866.4622028,20
1766015866.462213,21
1766015866.462223,24
1766015866.462233,22
1766015866.462243,21
1766015866.462253,21
1766015866.462263,21
1766015866.4622731,22
1766015866.462283,21
1766015866.462293,21
1766015866.462303,19
1766015866.462313,22
1766015866.462323,24
1766015866.462333,21
1766015866.462344,21
1766015866.462355,24
1766015866.4623659,22
1766015866.462377,21
1766015866.4623868,22
1766015866.462398,22
1766015866.4624078,23
1766015866.4624178,25
1766015866.462431,25
1766015866.462443,22
1766015866.462454,22
1766015866.462463,23
1766015866.462473,21
1766015866.462484,21
1766015866.462493,22
1766015866.462503,21
1766015866.462513,23
1766015866.462524,23
1766015866.4625332,19
1766015866.462543,22
1766015866.462553,23
1766015866.462563,26
1766015866.462573,24
1766015866.462583,25
1766015866.462593,23
1766015866.462603,25
1766015866.462613,20
1766015866.462623,20
1766015866.462633,19
1766015866.4626439,22
1766015866.462653,23
1766015866.462663,20
1766015866.462673,21
1766015866.462683,21
1766015866.4626932,22
1766015866.462703,21
1766015866.4627142,22
1766015866.462723,22
1766015866.462734,27
1766015866.462743,23
1766015866.462754,23
1766015866.4627671,23
1766015866.4627788,22
1766015866.462788,21
1766015866.462798,22
1766015866.4628081,20
1766015866.4628181,23
1766015866.462828,21
1766015866.462838,20
1766015866.462848,22
1766015866.462858,19
1766015866.462868,23
1766015866.462878,25
1766015866.462888,25
1766015866.462898,22
1766015866.4629078,20
1766015866.4629178,21
1766015866.4629278,23
1766015866.462938,22
1766015866.462948,25
1766015866.462958,25
1766015866.462968,24
1766015866.4629781,26
1766015866.4629881,21
1766015866.462998,23
1766015866.463008,24
1766015866.463018,25
1766015866.463028,22
1766015866.463038,24
1766015866.463048,23
1766015866.463058,24
1766015866.463068,22
1766015866.463079,24
1766015866.463091,28
1766015866.463104,24
1766015866.463114,23
1766015866.463124,20
1766015866.463134,22
1766015866.4631438,22
1766015866.4631538,24
1766015866.4631639,25
1766015866.4631739,23
1766015866.4631839,23
1766015866.4631941,21
1766015866.4632041,23
1766015866.4632142,26
1766015866.4632242,22
1766015866.463234,25
1766015866.463244,23
1766015866.463254,24
1766015866.463264,22
1766015866.463274,23
1766015866.463284,24
1766015866.463294,26
1766015866.463305,22
1766015866.4633138,23
1766015866.463325,24
1766015866.4633348,25
1766015866.463346,26
1766015866.463357,23
1766015866.463367,26
1766015866.463377,25
1766015866.4633868,22
1766015866.463397,23
1766015866.463407,25
1766015866.463418,23
1766015866.463431,23
1766015866.4634418,26
1766015866.4634528,23
1766015866.4634628,23
1766015866.4634728,20
1766015866.4634829,25
1766015866.463493,25
1766015866.4635031,22
1766015866.4635131,22
1766015866.4635231,22
1766015866.4635332,25
1766015866.463543,26
1766015866.463553,22
1766015866.463563,24
1766015866.463573,20
1766015866.463583,24
1766015866.463593,24
1766015866.463604,24
1766015866.463614,23
1766015866.463624,23
1766015866.463634,19
1766015866.4636438,26
1766015866.4636538,22
1766015866.463664,23
1766015866.463674,25
1766015866.463684,25
1766015866.463694,22
1766015866.463705,23
1766015866.463715,25
1766015866.463725,25
1766015866.463735,20
1766015866.463745,24
1766015866.463758,21
1766015866.4637702,24
1766015866.4637818,21
1766015866.463792,25
1766015866.463802,22
1766015866.463813,24
1766015866.463823,23
1766015866.463902,23
1766015866.463937,23
1766015866.463951,25
1766015866.463964,24
1766015866.4639769,22
1766015866.46399,21
1766015866.464003,23
1766015866.464016,23
1766015866.4641569,24
1766015866.464171,21
1766015866.464227,25
1766015866.464282,22
1766015866.464295,23
1766015866.464305,22
1766015866.464315,22
1766015866.4643252,22
1766015866.46437,21
1766015866.464384,24
1766015866.464397,24
1766015866.46441,23
1766015866.46442,21
1766015866.46443,25
1766015866.46444,22
1766015866.4644501,24
1766015866.4644601,21
1766015866.464473,21
1766015866.464486,20
1766015866.4644978,26
1766015866.46451,19
1766015866.464522,21
1766015866.464532,23
1766015866.4645429,20
1766015866.4645529,21
1766015866.464563,19
1766015866.464573,22
1766015866.4645839,23
1766015866.464594,24
1766015866.464604,21
1766015866.464614,24
1766015866.464625,20
1766015866.464654,21
1766015866.464763,22
1766015866.464777,23
1766015866.464788,23
1766015866.464798,23
1766015866.464809,21
1766015866.464819,23
1766015866.46483,25
1766015866.46484,24
1766015866.464851,24
1766015866.464861,23
1766015866.464871,22
1766015866.464913,27
1766015866.4649239,26
1766015866.464947,25
1766015866.464968,22
1766015866.464981,21
1766015866.464994,23
1766015866.465007,21
1766015866.465019,23
1766015866.4650319,19
1766015866.465045,20
1766015866.4650571,22
1766015866.46507,24
1766015866.465083,21
1766015866.465096,23
1766015866.465109,23
1766015866.465121,22
1766015866.4651341,18
1766015866.4651468,23
1766015866.46516,23
1766015866.465173,25
1766015866.465186,22
1766015866.465198,21
1766015866.465211,24
1766015866.465224,23
1766015866.465236,25
1766015866.465249,21
1766015866.4652622,22
1766015866.4652748,22
1766015866.465287,21
1766015866.4653,26
1766015866.465313,24
1766015866.465326,21
1766015866.465348,23
1766015866.4653609,22
1766015866.465374,21
1766015866.465387,22
1766015866.465399,22
1766015866.4654121,23
1766015866.465425,25
1766015866.465494,22
1766015866.46551,22
1766015866.465524,25
1766015866.465537,25
1766015866.4655502,23
1766015866.4655628,23
1766015866.465576,25
1766015866.465589,26
1766015866.465603,22
1766015866.465616,23
1766015866.4656289,24
1766015866.465642,25
1766015866.4656541,21
1766015866.465667,24
1766015866.46568,21
1766015866.4656918,22
1766015866.465705,27
1766015866.465718,21
1766015866.4657311,24
1766015866.465743,23
1766015866.465756,23
1766015866.465769,21
1766015866.465782,26
1766015866.465794,23
1766015866.4658072,26
1766015866.4658198,26
1766015866.465832,24
1766015866.465845,27
1766015866.465858,23
1766015866.465871,22
1766015866.465884,23
1766015866.4658968,26
1766015866.46591,26
1766015866.465922,21
1766015866.465935,26
1766015866.4659479,25
1766015866.465961,23
1766015866.465974,26
1766015866.465986,26
1766015866.4659991,22
1766015866.4660108,26
1766015866.4660301,26
1766015866.466042,27
1766015866.466055,26
1766015866.466068,24
1766015866.4660811,25
1766015866.466093,27
1766015866.4661062,23
1766015866.4661188,27
1766015866.466131,27
1766015866.466144,27
1766015866.466157,25
1766015866.466169,26
1766015866.466182,26
1766015866.4661949,27
1766015866.466208,24
1766015866.4662201,24
1766015866.466233,28
1766015866.466246,24
1766015866.466321,25
1766015866.466402,27
1766015866.466419,27
1766015866.466432,25
1766015866.4664462,27
1766015866.4664588,25
1766015866.466471,28
1766015866.466507,24
1766015866.466568,26
1766015866.466582,23
1766015866.4665952,24
1766015866.466608,25
1766015866.466621,24
1766015866.466634,26
1766015866.466659,26
1766015866.466673,27
1766015866.466686,25
1766015866.466698,27
1766015866.466711,23
1766015866.4667242,26
1766015866.466736,26
1766015866.466748,23
1766015866.4667609,24
1766015866.466773,24
1766015866.4667861,25
1766015866.466799,26
1766015866.466811,24
1766015866.4668229,23
1766015866.466836,23
1766015866.466848,29
1766015866.46686,29
1766015866.4668732,25
1766015866.466885,27
1766015866.466897,27
1766015866.46691,27
1766015866.466922,26
1766015866.4669352,28
1766015866.466947,29
1766015866.46696,27
1766015866.4669719,25
1766015866.466984,26
1766015866.466997,27
1766015866.467009,27
1766015866.4670222,25
1766015866.467034,28
1766015866.467047,25
1766015866.467059,29
1766015866.467072,28
1766015866.467084,28
1766015866.467097,27
1766015866.46711,28
1766015866.4671218,29
1766015866.467135,26
1766015866.467147,27
1766015866.46716,29
1766015866.4671721,30
1766015866.4671848,29
1766015866.467197,29
1766015866.46721,28
1766015866.467223,26
1766015866.467235,29
1766015866.4672482,29
1766015866.46726,26
1766015866.467272,29
1766015866.467285,29
1766015866.467297,29
1766015866.4673102,28
1766015866.4673228,25
1766015866.467335,26
1766015866.467347,29
1766015866.46736,28
1766015866.467372,28
1766015866.467386,27
1766015866.467399,30
1766015866.467412,26
1766015866.467424,28
1766015866.467437,31
1766015866.4674492,29
1766015866.4674618,30
1766015866.467474,27
1766015866.46749,30
1766015866.467502,26
1766015866.467515,30
1766015866.4675279,29
1766015866.46754,28
1766015866.467552,26
1766015866.467565,29
1766015866.467577,27
1766015866.4675899,30
1766015866.467602,25
1766015866.467615,27
1766015866.467627,29
1766015866.467639,27
1766015866.467652,26
1766015866.4676638,28
1766015866.467676,30
1766015866.467689,26
1766015866.467701,27
1766015866.467714,24
1766015866.467726,27
1766015866.4677382,27
1766015866.467751,29
1766015866.467764,27
1766015866.467776,26
1766015866.4677892,25
1766015866.467802,22
1766015866.467814,27
1766015866.467825,26
1766015866.467836,28
1766015866.467846,27
1766015866.467857,23
1766015866.467867,26
1766015866.4678779,23
1766015866.467888,24
1766015866.4678981,26
1766015866.4679182,26
1766015866.4679291,27
1766015866.46794,25
1766015866.46795,28
1766015866.468402,30
1766015866.469432,24
1766015866.470444,27
1766015866.4714391,27
1766015866.4724338,26
1766015866.4734359,27
1766015866.4744508,25
1766015866.475438,23
1766015866.4764328,25
1766015866.477442,24
1766015866.4784582,25
1766015866.479455,24
1766015866.480455,28
1766015866.4814541,29
1766015866.4824681,24
1766015866.483468,23
1766015866.484442,25
1766015866.485434,24
1766015866.4864562,26
1766015866.487472,24
1766015866.488472,22
1766015866.489463,23
1766015866.4905138,22
1766015866.491467,25
1766015866.49246,26
1766015866.4934342,27
1766015866.494452,28
1766015866.495466,24
1766015866.496495,25
1766015866.497469,24
1766015866.4984808,27
1766015866.499507,25
1766015866.500512,24
1766015866.5015008,27
1766015866.50252,24
1766015866.503527,24
1766015866.504513,24
1766015866.505512,28
1766015866.506484,25
1766015866.5075,25
1766015866.508511,26
1766015866.5094988,24
1766015866.510543,22
1766015866.511532,26
1766015866.512529,25
1766015866.513532,24
1766015866.514554,29
1766015866.515541,25
1766015866.5165398,28
1766015866.517558,25
1766015866.5185668,22
1766015866.519569,24
1766015866.520592,26
1766015866.521585,25
1766015866.522573,26
1766015866.5235388,27
1766015866.524584,24
1766015866.525551,25
1766015866.526603,28
1766015866.527565,26
1766015866.528587,24
1766015866.52955,25
1766015866.530587,29
1766015866.531575,24
1766015866.532547,25
1766015866.533565,22
1766015866.534587,26
1766015866.535591,26
1766015866.536599,24
1766015866.5375848,23
1766015866.538569,28
1766015866.5395882,26
1766015866.5406232,25
1766015866.541613,29
1766015866.542602,26
1766015866.5436292,24
1766015866.544636,24
1766015866.545632,25
1766015866.546657,26
1766015866.54765,24
1766015866.548675,25
1766015866.5496671,22
1766015866.550653,21
1766015866.551645,23
1766015866.55266,26
1766015866.553685,24
1766015866.5546691,26
1766015866.5556512,21
1766015866.556661,24
1766015866.5576892,26
1766015866.558681,25
1766015866.559676,24
1766015866.560677,25
1766015866.561677,28
1766015866.562677,24
1766015866.563692,23
1766015866.564686,27
1766015866.565683,27
1766015866.56672,26
1766015866.567733,24
1766015866.5687108,22
1766015866.5697138,27
1766015866.570706,22
1766015866.571687,25
1766015866.5726972,26
1766015866.5737128,23
1766015866.5747058,23
1766015866.5757172,26
1766015866.576703,23
1766015866.5777311,25
1766015866.578728,28
1766015866.579742,24
1766015866.58075,25
1766015866.5817332,27
1766015866.5827048,23
1766015866.583711,26
1766015866.584733,25
1766015866.5857432,26
1766015866.5867572,23
1766015866.587761,24
1766015866.588879,26
1766015866.5897799,22
1766015866.590793,24
1766015866.591794,24
1766015866.5928519,25
1766015866.5937731,22
1766015866.594764,25
1766015866.596065,22
1766015866.596952,23
1766015866.597881,23
1766015866.599052,23
1766015866.5998049,25
1766015866.6007931,26
1766015866.6018062,23
1766015866.602796,22
1766015866.6038039,24
1766015866.604797,25
1766015866.6058629,24
1766015866.606803,21
1766015866.6078022,22
1766015866.6087968,23
1766015866.609798,26
1766015866.610794,23
1766015866.611813,23
1766015866.612801,23
1766015866.613836,23
1766015866.6148,24
1766015866.6158028,26
1766015866.616796,25
1766015866.617824,24
1766015866.618834,23
1766015866.619814,24
1766015866.62082,25
1766015866.621824,23
1766015866.622833,24
1766015866.623915,21
1766015866.6249,27
1766015866.6258729,24
1766015866.626813,23
1766015866.627827,25
1766015866.6288419,25
1766015866.629866,24
1766015866.630877,23
1766015866.6318731,24
1766015866.6328971,20
1766015866.633954,25
1766015866.634877,25
1766015866.6359072,23
1766015866.636936,23
1766015866.6378932,24
1766015866.6388822,25
1766015866.63989,24
1766015866.640893,21
1766015866.64187,25
1766015866.642886,24
1766015866.643903,24
1766015866.644902,21
1766015866.6459038,22
1766015866.6468868,23
1766015866.6479151,24
1766015866.6488872,20
1766015866.649955,22
1766015866.650997,24
1766015866.651975,25
1766015866.6529322,24
1766015866.6539462,21
1766015866.654957,24
1766015866.655948,23
1766015866.656919,22
1766015866.65791,24
1766015866.6589282,24
1766015866.659945,22
1766015866.660935,20
1766015866.661933,23
1766015866.662941,20
1766015866.663944,24
1766015866.6649652,26
1766015866.665945,22
1766015866.667061,20
1766015866.667973,24
1766015866.668996,25
1766015866.669976,22
1766015866.670998,25
1766015866.671964,21
1766015866.6729898,21
1766015866.674088,23
1766015866.674997,23
1766015866.6759691,23
1766015866.676981,23
1766015866.678059,26
1766015866.678968,22
1766015866.6800551,22
1766015866.681055,21
1766015866.6820748,24
1766015866.683071,23
1766015866.6841369,23
1766015866.68509,26
1766015866.686063,23
1766015866.6870568,23
1766015866.6880589,19
1766015866.6890671,23
1766015866.690054,23
1766015866.6910741,24
1766015866.69209,21
1766015866.693104,23
1766015866.694093,22
1766015866.695081,25
1766015866.696077,22
1766015866.697073,22
1766015866.698069,24
1766015866.6990678,23
1766015866.7000692,24
1766015866.701131,22
1766015866.7021031,23
1766015866.7030988,20
1766015866.7040849,21
1766015866.705077,23
1766015866.706089,25
1766015866.707089,22
1766015866.7081149,21
1766015866.709171,25
1766015866.710145,26
1766015866.711107,27
1766015866.71211,22
1766015866.7131178,26
1766015866.714119,23
1766015866.715143,21
1766015866.716135,21
1766015866.71713,24
1766015866.718163,24
1766015866.719123,22
1766015866.720116,23
1766015866.721128,22
1766015866.722115,23
1766015866.7231,24
1766015866.724129,22
1766015866.72517,23
1766015866.72618,20
1766015866.727135,21
1766015866.728128,26
1766015866.729134,23
1766015866.730133,23
1766015866.7311308,25
1766015866.732113,23
1766015866.7331479,21
1766015866.734164,26
1766015866.735138,23
1766015866.7361338,20
1766015866.737134,22
1766015866.738143,23
1766015866.739146,25
1766015866.740134,24
1766015866.741163,23
1766015866.742183,24
1766015866.743175,22
1766015866.744171,26
1766015866.7451851,24
1766015866.7461948,22
1766015866.747159,20
1766015866.748181,24
1766015866.749186,24
1766015866.750228,24
1766015866.751213,23
1766015866.7521868,25
1766015866.753182,23
1766015866.7541928,20
1766015866.755188,24
1766015866.756206,23
1766015866.7572072,21
1766015866.758195,22
1766015866.759232,24
1766015866.76024,26
1766015866.761205,25
1766015866.7622101,24
1766015866.7632158,24
1766015866.764224,22
1766015866.765238,23
1766015866.76623,23
1766015866.767273,26
1766015866.768248,28
1766015866.769249,22
1766015866.770252,28
1766015866.7712572,23
1766015866.772245,24
1766015866.7732558,25
1766015866.774283,27
1766015866.775312,26
1766015866.776286,25
1766015866.777287,26
1766015866.778259,28
1766015866.779281,26
1766015866.780268,29
1766015866.7813098,26
1766015866.782292,22
1766015866.7832801,25
1766015866.7842848,25
1766015866.785296,25
1766015866.786297,24
1766015866.7872782,26
1766015866.7883031,24
1766015866.789286,24
1766015866.7902982,24
1766015866.791312,22
1766015866.792344,26
1766015866.7933178,25
1766015866.794354,26
1766015866.795326,25
1766015866.7963169,24
1766015866.7973208,24
1766015866.798323,26
1766015866.799335,26
1766015866.800392,25
1766015866.801392,23
1766015866.8023522,24
1766015866.8033412,25
1766015866.8043451,27
1766015866.805357,23
1766015866.806348,27
1766015866.807366,24
1766015866.808377,26
1766015866.8094258,26
1766015866.8103738,24
1766015866.8113768,27
1766015866.8123899,25
1766015866.8134038,26
1766015866.814379,26
1766015866.815392,27
1766015866.8163881,27
1766015866.8174138,29
1766015866.8184152,28
1766015866.819403,24
1766015866.820396,29
1766015866.821413,26
1766015866.822405,28
1766015866.8233962,27
1766015866.824408,28
1766015866.8254132,30
1766015866.826401,30
1766015866.82741,29
1766015866.8284612,27
1766015866.829489,30
1766015866.8304372,34
1766015866.831437,33
1766015866.832424,32
1766015866.833465,33
1766015866.8344488,29
1766015866.835513,31
1766015866.8364658,32
1766015866.837454,32
1766015866.8384378,30
1766015866.839432,31
1766015866.840445,31
1766015866.8414762,29
1766015866.8424692,29
1766015866.843491,31
1766015866.8444538,35
1766015866.84545,32
1766015866.846446,27
1766015866.847444,30
1766015866.848477,34
1766015866.849463,32
1766015866.85045,29
1766015866.8514628,30
1766015866.852461,28
1766015866.853463,32
1766015866.8544772,29
1766015866.855456,32
1766015866.856483,30
1766015866.857506,31
1766015866.8585112,27
1766015866.859497,32
1766015866.860561,30
1766015866.861503,31
1766015866.8624918,33
1766015866.8635259,29
1766015866.864492,31
1766015866.865529,30
1766015866.868691,27
1766015866.868706,28
1766015866.868717,31
1766015866.8698492,31
1766015866.870722,32
1766015866.87165,29
1766015866.872611,30
1766015866.876663,33
1766015866.876676,27
1766015866.876686,31
1766015866.876699,33
1766015866.8798962,31
1766015866.8799129,29
1766015866.8799229,31
1766015866.8809311,34
1766015866.8836212,30
1766015866.883635,33
1766015866.883646,32
1766015866.8866198,32
1766015866.886635,29
1766015866.886646,31
1766015866.8876889,33
1766015866.889778,34
1766015866.889785,33
1766015866.892118,36
1766015866.892131,34
1766015866.892844,34
1766015866.893661,38
1766015866.900984,35
1766015866.900992,36
1766015866.901067,37
1766015866.901182,35
1766015866.901212,39
1766015866.901346,40
1766015866.901354,36
1766015866.901622,37
1766015866.902627,36
1766015866.9036238,34
1766015866.904639,35
1766015866.905631,38
1766015866.912029,33
1766015866.912044,40
1766015866.912055,34
1766015866.912066,39
1766015866.912076,35
1766015866.912087,38
1766015866.912688,37
1766015866.9136472,40
1766015866.914641,42
1766015866.915648,36
1766015866.916695,37
1766015866.917658,39
1766015866.918661,41
1766015866.919669,42
1766015866.9206421,37
1766015866.921677,38
1766015866.922675,42
1766015866.923689,38
1766015866.924701,39
1766015866.925688,39
1766015866.926689,39
1766015866.927695,38
1766015866.9287019,38
1766015866.929683,39
1766015866.9306839,40
1766015866.931682,39
1766015866.9327,39
1766015866.933704,39
1766015866.934709,39
1766015866.935709,40
1766015866.9367208,39
1766015866.93774,38
1766015866.938723,42
1766015866.939726,37
1766015866.940711,37
1766015866.941717,38
1766015866.942723,42
1766015866.943726,39
1766015866.9447548,39
1766015866.945741,40
1766015866.946752,40
1766015866.947742,39
1766015866.9487438,41
1766015866.949759,43
1766015866.9507608,37
1766015866.951761,41
1766015866.952756,45
1766015866.9537761,40
1766015866.954772,40
1766015866.95578,38
1766015866.956769,40
1766015866.957775,41
1766015866.958773,40
1766015866.959778,39
1766015866.9607859,43
1766015866.961804,42
1766015866.962804,42
1766015866.963802,40
1766015866.9647958,42
1766015866.965803,44
1766015866.966801,37
1766015866.967814,45
1766015866.968809,45
1766015866.9698071,42
1766015866.970829,39
1766015866.9718301,43
1766015866.972826,43
1766015866.9738529,43
1766015866.974823,43
1766015866.975884,43
1766015866.9768472,42
1766015866.9778292,40
1766015866.97887,41
1766015866.979852,40
1766015866.9808772,40
1766015866.9818501,38
1766015866.982869,38
1766015866.983875,38
1766015866.984865,42
1766015866.985867,45
1766015866.986882,47
1766015866.987929,46
1766015866.988873,48
1766015866.989877,47
1766015866.9908962,46
1766015866.99191,47
1766015866.992893,43
1766015866.993901,46
1766015866.9949582,47
1766015866.995898,44
1766015866.996904,46
1766015866.997916,45
1766015866.9988859,47
1766015866.9998841,44
1766015867.000923,47
1766015867.001921,47
1766015867.002928,48
1766015867.003932,46
1766015867.004918,45
1766015867.00593,50
1766015867.0069509,49
1766015867.007909,48
1766015867.008946,48
1766015867.009928,49
1766015867.010939,48
1766015867.01197,48
1766015867.012958,47
1766015867.013937,48
1766015867.0149498,45
1766015867.015954,50
1766015867.016957,46
1766015867.0179682,48
1766015867.018946,48
1766015867.019957,46
1766015867.021051,50
1766015867.022058,43
1766015867.0229719,45
1766015867.023969,48
1766015867.025068,49
1766015867.026061,49
1766015867.027064,49
1766015867.028067,48
1766015867.029067,47
1766015867.030068,48
1766015867.031073,48
1766015867.032074,49
1766015867.0330648,48
1766015867.034061,50
1766015867.035073,51
1766015867.0360541,46
1766015867.037055,48
1766015867.03806,51
1766015867.039068,53
1766015867.0400681,51
1766015867.0410728,55
1766015867.042065,51
1766015867.043076,53
1766015867.0440488,57
1766015867.045069,54
1766015867.0460649,57
1766015867.047047,55
1766015867.048065,57
1766015867.049067,57
1766015867.0500648,59
1766015867.05107,59
1766015867.052067,54
1766015867.053107,58
1766015867.054079,55
1766015867.05514,58
1766015867.0561018,55
1766015867.05713,58
1766015867.0581279,59
1766015867.0591528,53
1766015867.060098,55
1766015867.061174,56
1766015867.062082,55
1766015867.063179,55
1766015867.064172,57
1766015867.0651531,60
1766015867.066168,57
1766015867.067182,57
1766015867.068164,59
1766015867.06916,58
1766015867.070113,56
1766015867.07121,58
1766015867.072175,57
1766015867.0731678,58
1766015867.074176,53
1766015867.075186,58
1766015867.0761652,54
1766015867.077211,56
1766015867.078177,57
1766015867.079208,58
1766015867.080193,55
1766015867.081231,58
1766015867.0821939,60
1766015867.08319,58
1766015867.0842052,56
1766015867.0852401,57
1766015867.0862138,59
1766015867.08716,61
1766015867.088238,62
1766015867.08923,63
1766015867.090213,61
1766015867.091251,63
1766015867.0921931,62
1766015867.093238,61
1766015867.094249,60
1766015867.095177,59
1766015867.096201,59
1766015867.097227,61
1766015867.0982258,63
1766015867.099236,62
1766015867.100208,64
1766015867.1012359,67
1766015867.102282,63
1766015867.103193,62
1766015867.104248,62
1766015867.105332,63
1766015867.106299,62
1766015867.107263,64
1766015867.1082659,65
1766015867.109277,64
1766015867.110307,67
1766015867.111318,65
1766015867.1122298,66
1766015867.1132832,65
1766015867.114238,61
1766015867.1152608,63
1766015867.116238,61
1766015867.1172638,64
1766015867.118263,66
1766015867.1192691,60
1766015867.120245,62
1766015867.121269,60
1766015867.122276,60
1766015867.123274,60
1766015867.1242712,60
1766015867.125275,59
1766015867.1262689,60
1766015867.1272871,63
1766015867.1282802,60
1766015867.1292899,63
1766015867.130305,61
1766015867.1312902,58
1766015867.132303,59
1766015867.133347,62
1766015867.134371,62
1766015867.135344,61
1766015867.136333,60
1766015867.1373591,59
1766015867.138349,62
1766015867.139353,61
1766015867.1403599,55
1766015867.1413708,62
1766015867.142405,57
1766015867.143368,58
1766015867.144373,57
1766015867.145353,59
1766015867.146427,61
1766015867.1474009,62
1766015867.1483898,60
1766015867.149405,63
1766015867.1504378,63
1766015867.151411,63
1766015867.152407,63
1766015867.153388,58
1766015867.154453,62
1766015867.155456,60
1766015867.1564338,60
1766015867.157446,63
1766015867.158454,58
1766015867.159461,57
1766015867.1605299,60
1766015867.1614778,60
1766015867.162425,61
1766015867.1634638,60
1766015867.164421,56
1766015867.1654751,56
1766015867.166432,60
1766015867.167474,57
1766015867.168423,59
1766015867.169483,60
1766015867.1704352,58
1766015867.171427,60
1766015867.172461,57
1766015867.1734679,56
1766015867.174444,57
1766015867.175508,55
1766015867.176484,60
1766015867.177474,56
1766015867.1784399,58
1766015867.179509,59
1766015867.180495,58
1766015867.181485,57
1766015867.182497,56
1766015867.183517,54
1766015867.184492,53
1766015867.1855192,57
1766015867.1864939,55
1766015867.1875288,51
1766015867.188492,52
1766015867.189541,51
1766015867.190529,53
1766015867.191541,54
1766015867.192517,52
1766015867.1935492,52
1766015867.1945212,53
1766015867.1955671,54
1766015867.196526,52
1766015867.19756,52
1766015867.1985521,51
1766015867.199578,50
1766015867.200512,51
1766015867.201558,55
1766015867.202556,52
1766015867.203535,53
1766015867.204565,50
1766015867.205589,55
1766015867.2065642,57
1766015867.207584,52
1766015867.208566,53
1766015867.20959,58
1766015867.210586,55
1766015867.211585,56
1766015867.212571,56
1766015867.2136,57
1766015867.214599,55
1766015867.215613,57
1766015867.216596,54
1766015867.217599,54
1766015867.218623,54
1766015867.219627,51
1766015867.220613,54
1766015867.221615,54
1766015867.2226088,55
1766015867.2236302,52
1766015867.224617,55
1766015867.225632,50
1766015867.226642,53
1766015867.2276502,53
1766015867.228606,49
1766015867.229665,54
1766015867.230641,55
1766015867.2316248,53
1766015867.232642,54
1766015867.2336488,52
1766015867.2346408,51
1766015867.235657,53
1766015867.236628,53
1766015867.237659,51
1766015867.238667,58
1766015867.239677,58
1766015867.240679,54
1766015867.241664,57
1766015867.242678,57
1766015867.24367,55
1766015867.244673,55
1766015867.245685,56
1766015867.246687,59
1766015867.247684,57
1766015867.248725,58
1766015867.249703,57
1766015867.2506828,53
1766015867.2516859,56
1766015867.252678,55
1766015867.253682,55
1766015867.254716,54
1766015867.255703,58
1766015867.2567239,58
1766015867.2577002,58
1766015867.25873,58
1766015867.259723,56
1766015867.2607071,55
1766015867.261733,53
1766015867.262743,55
1766015867.263744,54
1766015867.264735,52
1766015867.2657301,53
1766015867.266737,52
1766015867.26772,56
1766015867.2687511,52
1766015867.2697558,51
1766015867.270755,53
1766015867.271758,52
1766015867.272753,52
1766015867.273767,51
1766015867.274763,53
1766015867.275778,53
1766015867.276757,50
1766015867.277771,49
1766015867.278762,48
1766015867.279792,53
1766015867.2807941,52
1766015867.2817888,51
1766015867.282767,52
1766015867.283797,51
1766015867.2847779,49
1766015867.285804,49
1766015867.2868,49
1766015867.2878149,47
1766015867.288811,47
1766015867.289807,49
1766015867.29081,49
1766015867.291831,46
1766015867.2928221,47
1766015867.293818,48
1766015867.294817,47
1766015867.2958221,56
1766015867.296829,55
1766015867.297826,53
1766015867.298832,53
1766015867.299851,53
1766015867.300847,54
1766015867.3018298,53
1766015867.3028522,56
1766015867.3038368,53
1766015867.304855,50
1766015867.305919,54
1766015867.306807,49
1766015867.307818,52
1766015867.3088021,49
1766015867.309875,49
1766015867.3108668,51
1766015867.3118122,51
1766015867.3128152,50
1766015867.313898,54
1766015867.314879,47
1766015867.315845,50
1766015867.3168461,49
1766015867.317854,51
1766015867.318851,49
1766015867.319883,50
1766015867.320853,48
1766015867.321894,46
1766015867.322864,49
1766015867.3239071,47
1766015867.324855,47
1766015867.3258612,46
1766015867.326863,45
1766015867.3278642,47
1766015867.328873,46
1766015867.32987,45
1766015867.330893,45
1766015867.331916,45
1766015867.3329148,47
1766015867.333924,42
1766015867.334916,47
1766015867.335944,47
1766015867.336938,46
1766015867.337951,48
1766015867.338989,46
1766015867.339974,44
1766015867.3409421,46
1766015867.3419468,45
1766015867.3429499,47
1766015867.34397,42
1766015867.344913,43
1766015867.3459551,47
1766015867.346974,46
1766015867.347966,45
1766015867.348982,45
1766015867.349977,45
1766015867.3509939,44
1766015867.351948,45
1766015867.352951,43
1766015867.3539982,43
1766015867.354995,42
1766015867.356008,42
1766015867.356998,41
1766015867.357989,45
1766015867.3589609,46
1766015867.3600042,48
1766015867.361006,47
1766015867.361962,46
1766015867.363005,46
1766015867.3640041,44
1766015867.3650692,45
1766015867.366091,44
1766015867.367,43
1766015867.3680909,43
1766015867.3690639,42
1766015867.370065,45
1766015867.371092,41
1766015867.372103,45
1766015867.3730612,44
1766015867.3740668,43
1766015867.375086,41
1766015867.376071,44
1766015867.377068,46
1766015867.378088,43
1766015867.379084,45
1766015867.380084,41
1766015867.381061,44
1766015867.3820632,43
1766015867.383067,42
1766015867.384063,42
1766015867.385086,41
1766015867.386078,43
1766015867.387082,41
1766015867.3880892,43
1766015867.3890922,43
1766015867.390095,39
1766015867.391089,41
1766015867.3920908,39
1766015867.3930938,39
1766015867.394093,42
1766015867.395094,41
1766015867.3961039,41
1766015867.397096,41
1766015867.3981109,40
1766015867.399114,43
1766015867.400115,39
1766015867.401113,39
1766015867.402111,41
1766015867.4031308,42
1766015867.40414,39
1766015867.4051242,41
1766015867.4061341,40
1766015867.40715,42
1766015867.408143,38
1766015867.409138,39
1766015867.4101472,40
1766015867.4111412,40
1766015867.41215,41
1766015867.413152,38
1766015867.414149,41
1766015867.415154,39
1766015867.416165,38
1766015867.4171488,37
1766015867.418172,39
1766015867.419153,38
1766015867.420175,39
1766015867.421168,37
1766015867.4221709,38
1766015867.423171,34
1766015867.424181,38
1766015867.4251819,38
1766015867.426189,41
1766015867.4271948,37
1766015867.42819,38
1766015867.4291892,36
1766015867.430214,38
1766015867.4312,37
1766015867.4322078,39
1766015867.433213,38
1766015867.434197,37
1766015867.435201,39
1766015867.436204,42
1766015867.437218,38
1766015867.4382179,41
1766015867.439214,40
1766015867.440232,37
1766015867.441223,40
1766015867.442231,41
1766015867.443258,40
1766015867.444245,40
1766015867.445237,39
1766015867.446248,40
1766015867.447247,41
1766015867.44826,38
1766015867.4492748,39
1766015867.450254,36
