timestamp,emg_value
1766015958.6502469,37
1766015958.650253,37
1766015958.6502578,37
1766015958.650263,37
1766015958.6502678,38
1766015958.650273,36
1766015958.6502788,32
1766015958.650284,37
1766015958.6502888,37
1766015958.650294,38
1766015958.6502988,35
1766015958.650304,37
1766015958.650309,36
1766015958.650314,36
1766015958.650319,36
1766015958.6503239,39
1766015958.650329,37
1766015958.650334,34
1766015958.6503391,37
1766015958.650344,35
1766015958.6503491,31
1766015958.650354,38
1766015958.6503592,37
1766015958.650364,35
1766015958.650369,36
1766015958.650374,34
1766015958.650379,34
1766015958.650384,34
1766015958.650389,32
1766015958.6503942,35
1766015958.650399,36
1766015958.6504042,35
1766015958.650412,31
1766015958.650419,36
1766015958.650424,33
1766015958.650429,37
1766015958.650434,37
1766015958.650439,35
1766015958.650444,35
1766015958.6504488,32
1766015958.650454,31
1766015958.6504588,33
1766015958.650464,34
1766015958.650469,34
1766015958.650474,34
1766015958.650479,37
1766015958.650483,29
1766015958.6504881,32
1766015958.650493,32
1766015958.6504982,37
1766015958.650503,35
1766015958.650508,34
1766015958.650513,35
1766015958.650518,39
1766015958.650523,38
1766015958.650528,38
1766015958.6505332,39
1766015958.650538,39
1766015958.6505432,41
1766015958.650547,42
1766015958.650552,42
1766015958.650557,40
1766015958.650562,44
1766015958.6505668,40
1766015958.650572,43
1766015958.650584,44
1766015958.650589,39
1766015958.650594,41
1766015958.650599,43
1766015958.650605,41
1766015958.65061,43
1766015958.650615,37
1766015958.65062,43
1766015958.650625,42
1766015958.65063,41
1766015958.650635,36
1766015958.6506398,40
1766015958.650649,39
1766015958.6506538,40
1766015958.650659,42
1766015958.6506639,40
1766015958.650669,36
1766015958.6506739,36
1766015958.650678,39
1766015958.650683,42
1766015958.650688,42
1766015958.6506932,40
1766015958.650698,38
1766015958.6507032,38
1766015958.650708,38
1766015958.650712,37
1766015958.650717,41
1766015958.650722,39
1766015958.6507268,40
1766015958.650732,37
1766015958.6507368,40
1766015958.650742,39
1766015958.6507468,38
1766015958.650759,37
1766015958.650765,33
1766015958.65077,34
1766015958.650775,39
1766015958.65078,38
1766015958.650785,36
1766015958.65079,39
1766015958.650795,38
1766015958.6508002,33
1766015958.650804,41
1766015958.650809,38
1766015958.650815,37
1766015958.65082,37
1766015958.650825,36
1766015958.65083,37
1766015958.6508338,35
1766015958.650839,35
1766015958.6508439,36
1766015958.650849,35
1766015958.6508539,36
1766015958.650859,35
1766015958.6508641,38
1766015958.650869,36
1766015958.6508741,38
1766015958.650878,35
1766015958.650883,39
1766015958.650888,35
1766015958.650893,39
1766015958.650898,38
1766015958.650903,36
1766015958.650908,36
1766015958.650913,37
1766015958.650918,40
1766015958.650923,38
1766015958.65093,37
1766015958.6509361,37
1766015958.650941,37
1766015958.6509461,40
1766015958.650951,40
1766015958.650956,40
1766015958.650961,41
1766015958.650965,41
1766015958.6509702,40
1766015958.650975,39
1766015958.65098,41
1766015958.650985,39
1766015958.65099,39
1766015958.650995,39
1766015958.650999,38
1766015958.6510038,37
1766015958.651009,38
1766015958.6510139,38
1766015958.651019,39
1766015958.6510239,35
1766015958.651029,37
1766015958.6510332,38
1766015958.651038,37
1766015958.6510432,37
1766015958.651048,34
1766015958.651053,37
1766015958.651058,35
1766015958.651063,35
1766015958.651068,40
1766015958.651072,39
1766015958.651077,37
1766015958.651082,37
1766015958.651087,40
1766015958.651094,41
1766015958.6511,34
1766015958.651105,37
1766015958.65111,39
1766015958.651115,39
1766015958.6511202,38
1766015958.651124,41
1766015958.651129,35
1766015958.651135,34
1766015958.6511402,37
1766015958.651144,32
1766015958.651149,35
1766015958.6511538,34
1766015958.651159,35
1766015958.6511638,36
1766015958.651169,35
1766015958.6511738,36
1766015958.651179,36
1766015958.651184,36
1766015958.651189,38
1766015958.6511931,36
1766015958.651198,36
1766015958.6512032,38
1766015958.651208,36
1766015958.6512132,34
1766015958.651218,38
1766015958.651223,37
1766015958.651228,38
1766015958.651232,39
1766015958.651237,36
1766015958.651242,39
1766015958.651247,40
1766015958.651252,40
1766015958.651257,39
1766015958.651264,38
1766015958.6512692,36
1766015958.651275,41
1766015958.65128,38
1766015958.651285,38
1766015958.6512902,39
1766015958.651294,37
1766015958.651299,38
1766015958.651304,34
1766015958.651309,37
1766015958.651314,35
1766015958.651319,34
1766015958.6513228,36
1766015958.651328,35
1766015958.651333,37
1766015958.651338,37
1766015958.651343,36
1766015958.6513479,36
1766015958.6513522,32
1766015958.651357,35
1766015958.651362,35
1766015958.651367,35
1766015958.651372,34
1766015958.651377,35
1766015958.651381,33
1766015958.651386,35
1766015958.651391,33
1766015958.651396,35
1766015958.651401,33
1766015958.651406,34
1766015958.6514099,34
1766015958.651415,35
1766015958.6514199,33
1766015958.6514251,34
1766015958.651433,35
1766015958.651438,31
1766015958.651444,36
1766015958.6514502,32
1766015958.651454,35
1766015958.651459,35
1766015958.651464,35
1766015958.651469,36
1766015958.6514728,32
1766015958.651478,36
1766015958.6514828,34
1766015958.651488,38
1766015958.651493,34
1766015958.651498,35
1766015958.6515021,36
1766015958.651507,34
1766015958.6515121,36
1766015958.651517,37
1766015958.6515222,41
1766015958.651527,38
1766015958.651531,38
1766015958.651536,39
1766015958.651541,39
1766015958.651546,37
1766015958.651551,35
1766015958.651556,37
1766015958.651561,35
1766015958.651566,36
1766015958.6515698,38
1766015958.651575,37
1766015958.6515799,36
1766015958.651585,37
1766015958.6515899,36
1766015958.651595,36
1766015958.6516,37
1766015958.651607,38
1766015958.6516118,37
1766015958.651618,39
1766015958.651623,37
1766015958.651628,40
1766015958.6516328,38
1766015958.651638,35
1766015958.651642,37
1766015958.651647,35
1766015958.651652,37
1766015958.6516569,35
1766015958.651662,37
1766015958.6516669,36
1766015958.651671,39
1766015958.651676,35
1766015958.651681,40
1766015958.651686,38
1766015958.651691,37
1766015958.6516962,36
1766015958.6517,36
1766015958.651705,37
1766015958.65171,39
1766015958.651715,38
1766015958.65172,40
1766015958.651725,37
1766015958.6517298,37
1766015958.651734,39
1766015958.651739,38
1766015958.651744,41
1766015958.6517491,39
1766015958.651754,38
1766015958.6517591,37
1766015958.651764,39
1766015958.6517692,39
1766015958.651775,38
1766015958.6517801,38
1766015958.651787,40
1766015958.651793,36
1766015958.651797,38
1766015958.651802,38
1766015958.651807,39
1766015958.651812,36
1766015958.6518168,37
1766015958.651822,39
1766015958.6518269,37
1766015958.651832,37
1766015958.6518369,37
1766015958.651841,35
1766015958.651846,36
1766015958.651851,37
1766015958.651856,36
1766015958.65186,39
1766015958.651865,36
1766015958.65187,35
1766015958.651875,38
1766015958.65188,37
1766015958.651885,35
1766015958.6518898,36
1766015958.651895,36
1766015958.6518998,33
1766015958.651904,38
1766015958.651909,38
1766015958.651914,35
1766015958.6519191,38
1766015958.651924,37
1766015958.6519291,32
1766015958.651933,35
1766015958.651938,38
1766015958.651943,35
1766015958.6519501,37
1766015958.651955,37
1766015958.651961,37
1766015958.6519659,33
1766015958.651971,35
1766015958.6519759,35
1766015958.651981,34
1766015958.651986,35
1766015958.6519911,34
1766015958.651996,36
1766015958.652,31
1766015958.6520052,33
1766015958.65201,33
1766015958.6520152,34
1766015958.65202,33
1766015958.652025,37
1766015958.65203,33
1766015958.652035,31
1766015958.65204,31
1766015958.652044,30
1766015958.6520488,33
1766015958.652054,31
1766015958.6520588,33
1766015958.652064,28
1766015958.652069,32
1766015958.652074,33
1766015958.652079,29
1766015958.6520839,34
1766015958.6520882,31
1766015958.652093,33
1766015958.652098,29
1766015958.652103,29
1766015958.652108,31
1766015958.652113,33
1766015958.652123,31
1766015958.652128,32
1766015958.6521332,30
1766015958.6521401,32
1766015958.652145,32
1766015958.652149,31
1766015958.6521542,28
1766015958.652159,26
1766015958.652164,31
1766015958.652169,31
1766015958.652174,30
1766015958.6521778,30
1766015958.652183,29
1766015958.6521878,30
1766015958.652193,31
1766015958.6521978,29
1766015958.652203,31
1766015958.6522071,29
1766015958.652212,30
1766015958.6522171,27
1766015958.652222,29
1766015958.6522272,27
1766015958.652231,28
1766015958.652236,30
1766015958.652241,27
1766015958.652246,28
1766015958.6522508,30
1766015958.652256,29
1766015958.65226,26
1766015958.652265,28
1766015958.652271,25
1766015958.652276,29
1766015958.65228,27
1766015958.6522849,25
1766015958.65229,28
1766015958.652297,27
1766015958.652302,26
1766015958.652309,29
1766015958.6523142,27
1766015958.652319,25
1766015958.6523242,25
1766015958.652328,24
1766015958.652333,26
1766015958.652338,31
1766015958.652343,27
1766015958.6523478,26
1766015958.652353,27
1766015958.6523578,26
1766015958.652363,25
1766015958.652367,30
1766015958.652372,26
1766015958.6523771,25
1766015958.652382,25
1766015958.6523871,23
1766015958.652392,26
1766015958.6523972,27
1766015958.652401,26
1766015958.652406,27
1766015958.652411,23
1766015958.652416,27
1766015958.6524212,26
1766015958.652426,26
1766015958.652431,26
1766015958.652436,24
1766015958.65244,31
1766015958.6524448,28
1766015958.65245,28
1766015958.6524549,27
1766015958.65246,24
1766015958.652467,27
1766015958.652471,24
1766015958.652477,25
1766015958.652483,24
1766015958.652488,27
1766015958.652493,26
1766015958.652498,27
1766015958.652503,25
1766015958.652508,24
1766015958.652512,27
1766015958.652517,24
1766015958.652522,26
1766015958.652527,24
1766015958.6525319,23
1766015958.6525362,24
1766015958.652541,27
1766015958.652546,24
1766015958.652551,23
1766015958.652556,25
1766015958.652561,25
1766015958.652566,25
1766015958.65257,23
1766015958.652575,28
1766015958.65258,26
1766015958.652585,24
1766015958.65259,25
1766015958.652595,26
1766015958.6526,26
1766015958.6526039,25
1766015958.652609,24
1766015958.6526139,26
1766015958.6526191,29
1766015958.652624,24
1766015958.652629,27
1766015958.6526332,24
1766015958.6526458,25
1766015958.652651,26
1766015958.652658,24
1766015958.652663,25
1766015958.6526668,25
1766015958.652673,26
1766015958.652677,25
1766015958.652682,24
1766015958.652687,27
1766015958.652692,24
1766015958.652697,26
1766015958.6527019,28
1766015958.652707,25
1766015958.652711,24
1766015958.652716,23
1766015958.652721,25
1766015958.652726,27
1766015958.652731,26
1766015958.652736,28
1766015958.65274,25
1766015958.652745,25
1766015958.65275,22
1766015958.652755,23
1766015958.65276,24
1766015958.652765,26
1766015958.65277,20
1766015958.6527748,27
1766015958.652779,23
1766015958.652784,24
1766015958.6527889,26
1766015958.6527941,25
1766015958.652799,24
1766015958.6528041,23
1766015958.652809,26
1766015958.652815,24
1766015958.6528199,22
1766015958.6528268,24
1766015958.652832,23
1766015958.652837,26
1766015958.652842,23
1766015958.652846,25
1766015958.6528509,24
1766015958.652856,23
1766015958.6528609,26
1766015958.6528661,26
1766015958.652871,25
1766015958.6528761,23
1766015958.65288,26
1766015958.652885,26
1766015958.6528902,26
1766015958.652895,27
1766015958.6529,25
1766015958.652905,26
1766015958.652909,25
1766015958.6529138,22
1766015958.652919,27
1766015958.6529238,24
1766015958.652929,25
1766015958.6529331,23
1766015958.652938,25
1766015958.6529431,25
1766015958.652948,24
1766015958.6529531,25
1766015958.652958,23
1766015958.652962,25
1766015958.652967,27
1766015958.652972,26
1766015958.652977,25
1766015958.652982,27
1766015958.652989,21
1766015958.6529942,23
1766015958.6529999,22
1766015958.6530051,26
1766015958.65301,21
1766015958.6530151,23
1766015958.65302,24
1766015958.653025,21
1766015958.65303,24
1766015958.653035,25
1766015958.6530392,23
1766015958.653044,26
1766015958.653049,25
1766015958.653054,23
1766015958.653059,23
1766015958.653064,25
1766015958.653069,22
1766015958.653074,26
1766015958.653079,27
1766015958.6530838,27
1766015958.653088,26
1766015958.653093,24
1766015958.6530979,26
1766015958.653103,26
1766015958.653108,24
1766015958.6531122,23
1766015958.653117,25
1766015958.653122,27
1766015958.653127,24
1766015958.653132,27
1766015958.653137,27
1766015958.653141,25
1766015958.653146,24
1766015958.653151,27
1766015958.653156,25
1766015958.653162,27
1766015958.6531682,23
1766015958.653173,24
1766015958.6531782,24
1766015958.653182,25
1766015958.653187,23
1766015958.653192,29
1766015958.653197,25
1766015958.6532018,26
1766015958.653207,26
1766015958.6532118,26
1766015958.653217,25
1766015958.6532211,26
1766015958.653226,23
1766015958.6532311,26
1766015958.653236,25
1766015958.6532412,24
1766015958.653246,24
1766015958.6532512,26
1766015958.653256,27
1766015958.653261,23
1766015958.653266,27
1766015958.65327,26
1766015958.6532748,27
1766015958.65328,25
1766015958.653285,28
1766015958.65329,25
1766015958.653295,26
1766015958.6533,21
1766015958.653305,25
1766015958.6533089,24
1766015958.653314,25
1766015958.653319,25
1766015958.653325,25
1766015958.653331,25
1766015958.653336,24
1766015958.6533408,25
1766015958.653346,24
1766015958.6533508,25
1766015958.653356,24
1766015958.6533608,23
1766015958.653365,23
1766015958.6533701,25
1766015958.653375,26
1766015958.6533802,22
1766015958.653385,26
1766015958.6533902,24
1766015958.653395,24
1766015958.6534002,23
1766015958.653404,24
1766015958.653409,27
1766015958.6534138,25
1766015958.653419,24
1766015958.653424,25
1766015958.653429,23
1766015958.653434,26
1766015958.653439,26
1766015958.653444,25
1766015958.653449,25
1766015958.653454,24
1766015958.6534588,24
1766015958.653464,25
1766015958.653468,22
1766015958.6534731,24
1766015958.653478,24
1766015958.653483,25
1766015958.6534882,24
1766015958.653495,25
1766015958.653501,27
1766015958.653506,23
1766015958.6535108,23
1766015958.653516,27
1766015958.6535199,27
1766015958.6535249,26
1766015958.6535301,25
1766015958.653535,24
1766015958.6535401,24
1766015958.653545,24
1766015958.6535501,23
1766015958.653555,25
1766015958.6535602,24
1766015958.653565,25
1766015958.65357,25
1766015958.653575,26
1766015958.65358,24
1766015958.653585,27
1766015958.653589,24
1766015958.653594,24
1766015958.653599,25
1766015958.653604,26
1766015958.653609,24
1766015958.653614,26
1766015958.653619,27
1766015958.653624,25
1766015958.6536288,25
1766015958.653633,29
1766015958.653638,28
1766015958.653643,26
1766015958.653648,26
1766015958.653653,28
1766015958.6536589,28
1766015958.653665,26
1766015958.6536698,27
1766015958.653675,27
1766015958.653737,25
1766015958.653774,28
1766015958.6537862,30
1766015958.6537971,30
1766015958.653808,27
1766015958.6538188,29
1766015958.653829,28
1766015958.6538649,30
1766015958.653913,29
1766015958.6539369,31
1766015958.6539588,33
1766015958.653972,31
1766015958.653984,32
1766015958.653994,30
1766015958.654005,31
1766015958.6540182,33
1766015958.6540291,34
1766015958.65404,32
1766015958.65405,32
1766015958.654061,30
1766015958.654071,35
1766015958.654082,34
1766015958.654092,34
1766015958.654103,32
1766015958.654114,34
1766015958.6541262,35
1766015958.654138,36
1766015958.654149,37
1766015958.654159,37
1766015958.6541739,35
1766015958.654187,33
1766015958.654197,33
1766015958.6542258,37
1766015958.654237,36
1766015958.654243,40
1766015958.654248,39
1766015958.654253,39
1766015958.654258,38
1766015958.654262,39
1766015958.6542668,39
1766015958.654272,38
1766015958.654277,39
1766015958.654282,40
1766015958.654287,37
1766015958.6542919,40
1766015958.654297,40
1766015958.654302,41
1766015958.6543071,43
1766015958.654312,41
1766015958.6543171,42
1766015958.654322,42
1766015958.6543272,43
1766015958.654332,42
1766015958.654337,41
1766015958.6543412,41
1766015958.654346,39
1766015958.654351,42
1766015958.654356,43
1766015958.654361,41
1766015958.654366,42
1766015958.654371,39
1766015958.654376,44
1766015958.6543832,42
1766015958.654389,37
1766015958.6543941,41
1766015958.654399,39
1766015958.6544042,42
1766015958.654409,40
1766015958.6544142,40
1766015958.654419,41
1766015958.654424,38
1766015958.654429,39
1766015958.654433,40
1766015958.6544378,41
1766015958.654443,42
1766015958.654448,40
1766015958.654453,40
1766015958.654458,42
1766015958.654464,43
1766015958.654469,41
1766015958.654474,41
1766015958.654479,41
1766015958.654484,42
1766015958.654489,37
1766015958.654494,39
1766015958.654499,38
1766015958.6545038,41
1766015958.654509,38
1766015958.654513,40
1766015958.654519,39
1766015958.6545238,39
1766015958.654529,43
1766015958.6545339,40
1766015958.654538,38
1766015958.6545432,44
1766015958.65455,43
1766015958.6545548,39
1766015958.654562,44
1766015958.654567,43
1766015958.654572,44
1766015958.6545768,44
1766015958.654582,42
1766015958.6545868,43
1766015958.654592,43
1766015958.654597,43
1766015958.654602,42
1766015958.654607,42
1766015958.654612,44
1766015958.654617,41
1766015958.6546218,44
1766015958.654627,42
1766015958.6546319,40
1766015958.654637,43
1766015958.6546419,39
1766015958.654646,42
1766015958.654651,44
1766015958.654656,45
1766015958.6546612,45
1766015958.654666,43
1766015958.6546712,45
1766015958.654676,44
1766015958.654699,43
1766015958.654708,43
1766015958.6547132,44
1766015958.654718,48
1766015958.6547232,47
1766015958.654728,49
1766015958.654733,46
1766015958.654738,46
1766015958.654745,48
1766015958.654752,46
1766015958.654757,46
1766015958.654762,46
1766015958.654766,47
1766015958.6547709,47
1766015958.654776,49
1766015958.6547809,49
1766015958.654786,51
1766015958.6547909,51
1766015958.6547961,54
1766015958.654801,54
1766015958.654806,52
1766015958.654811,55
1766015958.654816,52
1766015958.6548212,50
1766015958.654825,51
1766015958.65483,56
1766015958.654835,55
1766015958.65484,52
1766015958.654845,53
1766015958.65485,51
1766015958.654855,52
1766015958.65486,54
1766015958.6548648,55
1766015958.65487,52
1766015958.6548748,54
1766015958.654881,52
1766015958.6548858,56
1766015958.654891,57
1766015958.654905,57
1766015958.654918,56
1766015958.654923,55
1766015958.6549299,57
1766015958.6549351,56
1766015958.654942,54
1766015958.654947,54
1766015958.654952,53
1766015958.654966,52
1766015958.654971,55
1766015958.654977,52
1766015958.6549811,57
1766015958.654986,54
1766015958.6549911,58
1766015958.654996,57
1766015958.6550012,56
1766015958.655006,55
1766015958.65501,56
1766015958.655015,51
1766015958.655021,55
1766015958.655026,52
1766015958.6550322,56
1766015958.655036,55
1766015958.655041,55
1766015958.655046,56
1766015958.655051,54
1766015958.6550558,51
1766015958.655061,50
1766015958.655066,51
1766015958.655071,52
1766015958.6550772,52
1766015958.655082,49
1766015958.655087,50
1766015958.655092,53
1766015958.655097,51
1766015958.655102,49
1766015958.655107,51
1766015958.655114,49
1766015958.65512,49
1766015958.655125,49
1766015958.6551301,53
1766015958.655135,51
1766015958.6551402,52
1766015958.655145,46
1766015958.6551502,47
1766015958.655155,49
1766015958.65516,46
1766015958.655165,46
1766015958.655169,48
1766015958.6551738,48
1766015958.655179,46
1766015958.6551838,49
1766015958.655189,48
1766015958.655194,45
1766015958.655199,44
1766015958.655204,46
1766015958.655217,44
1766015958.655225,46
1766015958.65523,45
1766015958.655296,43
1766015958.655326,44
1766015958.6553369,44
1766015958.6553469,44
1766015958.6553578,43
1766015958.6553679,45
1766015958.65538,46
1766015958.655391,46
1766015958.655401,43
1766015958.655412,45
1766015958.655422,43
1766015958.655453,46
1766015958.655461,45
1766015958.655467,46
1766015958.655473,45
1766015958.655478,45
1766015958.6554828,50
1766015958.655489,43
1766015958.655494,47
1766015958.655499,46
1766015958.655505,48
1766015958.65551,45
1766015958.655516,47
1766015958.655521,44
1766015958.655526,45
1766015958.655531,45
1766015958.655537,44
1766015958.655542,47
1766015958.655547,43
1766015958.655552,43
1766015958.6555572,44
1766015958.655562,43
1766015958.6555672,39
1766015958.655572,43
1766015958.6555772,42
1766015958.655582,43
1766015958.655587,43
1766015958.655592,42
1766015958.655597,40
1766015958.655602,44
1766015958.6556082,43
1766015958.655612,44
1766015958.655618,46
1766015958.655624,42
1766015958.65563,43
1766015958.6556349,48
1766015958.6556401,45
1766015958.655645,47
1766015958.6556501,46
1766015958.655655,44
1766015958.65566,44
1766015958.655665,45
1766015958.65567,43
1766015958.655675,46
1766015958.65568,46
1766015958.6556852,45
1766015958.65569,42
1766015958.6556952,44
1766015958.6557,40
1766015958.655705,46
1766015958.65571,41
1766015958.655715,44
1766015958.65572,43
1766015958.655725,44
1766015958.65573,43
1766015958.655735,45
1766015958.65574,46
1766015958.655745,45
1766015958.655749,41
1766015958.655755,44
1766015958.6557598,42
1766015958.655765,41
1766015958.6557708,41
1766015958.655776,41
1766015958.655781,41
1766015958.655786,42
1766015958.655791,39
1766015958.655798,37
1766015958.655803,37
1766015958.655809,40
1766015958.655814,38
1766015958.655819,41
1766015958.655823,42
1766015958.655828,38
1766015958.655833,39
1766015958.655838,41
1766015958.655843,41
1766015958.655848,42
1766015958.655853,40
1766015958.6558578,37
1766015958.655863,43
1766015958.6558678,39
1766015958.655873,42
1766015958.6558778,37
1766015958.655883,39
1766015958.6558878,36
1766015958.655893,40
1766015958.655898,39
1766015958.6559029,38
1766015958.655908,37
1766015958.6559129,39
1766015958.6559181,36
1766015958.655922,38
1766015958.655927,40
1766015958.655932,37
1766015958.655937,39
1766015958.655942,40
1766015958.655947,38
1766015958.655952,38
1766015958.655957,37
1766015958.655963,40
1766015958.655968,40
1766015958.6559849,38
1766015958.655991,36
1766015958.6559958,40
1766015958.656001,36
1766015958.6560059,37
1766015958.656011,40
1766015958.6560159,40
1766015958.65602,38
1766015958.6560252,39
1766015958.65603,38
1766015958.6560352,40
1766015958.65604,37
1766015958.6560462,41
1766015958.656051,39
1766015958.6560562,37
1766015958.656061,37
1766015958.656066,39
1766015958.656071,39
1766015958.656075,37
1766015958.6560798,41
1766015958.656085,40
1766015958.65609,35
1766015958.656095,35
1766015958.656099,39
1766015958.6561038,36
1766015958.656109,37
1766015958.6561139,36
1766015958.656119,37
1766015958.6561458,34
1766015958.65617,39
1766015958.65618,34
1766015958.656214,35
1766015958.656233,37
1766015958.6562428,33
1766015958.656254,33
1766015958.6562638,38
1766015958.656275,35
1766015958.656286,33
1766015958.6563041,35
1766015958.656309,38
1766015958.6563141,39
1766015958.65632,36
1766015958.656325,36
1766015958.6563299,35
1766015958.656335,35
1766015958.65634,36
1766015958.6563451,38
1766015958.65635,35
1766015958.656354,36
1766015958.656359,34
1766015958.656364,38
1766015958.656369,37
1766015958.656374,39
1766015958.656379,40
1766015958.656383,37
1766015958.656388,36
1766015958.656393,38
1766015958.656398,32
1766015958.6564028,38
1766015958.656408,35
1766015958.6564128,35
1766015958.6564171,37
1766015958.656422,35
1766015958.656427,37
1766015958.6564338,35
1766015958.656439,36
1766015958.6564438,37
1766015958.656449,35
1766015958.6564538,36
1766015958.656459,34
1766015958.6564639,38
1766015958.656468,35
1766015958.6564732,37
1766015958.656478,36
1766015958.6564832,37
1766015958.656488,34
1766015958.656493,38
1766015958.656497,35
1766015958.656502,34
1766015958.656508,36
1766015958.656513,38
1766015958.656518,32
1766015958.656523,35
1766015958.6565278,35
1766015958.656532,32
1766015958.656537,38
1766015958.656542,36
1766015958.656547,34
1766015958.656553,32
1766015958.656558,35
1766015958.6565619,33
1766015958.656567,32
1766015958.6565719,36
1766015958.656577,34
1766015958.6565819,32
1766015958.6565871,33
1766015958.656592,35
1766015958.656597,31
1766015958.6566029,33
1766015958.656609,35
1766015958.656613,36
1766015958.6566179,35
1766015958.6566231,34
1766015958.656628,34
1766015958.6566331,34
1766015958.656638,36
1766015958.6566432,32
1766015958.656648,35
1766015958.6566532,34
1766015958.656657,33
1766015958.656662,35
1766015958.656667,36
1766015958.656672,32
1766015958.656677,36
1766015958.656682,35
1766015958.656687,30
1766015958.6566908,31
1766015958.656696,32
1766015958.6567008,32
1766015958.656706,31
1766015958.6567109,32
1766015958.656716,33
1766015958.65672,35
1766015958.656725,31
1766015958.6567302,29
1766015958.656735,31
1766015958.6567402,30
1766015958.656745,29
1766015958.65675,29
1766015958.656755,29
1766015958.65676,29
1766015958.656766,34
1766015958.6567712,29
1766015958.656776,31
1766015958.656781,30
1766015958.656786,36
1766015958.656791,30
1766015958.656796,32
1766015958.6568,28
1766015958.656805,30
1766015958.65681,31
1766015958.656815,30
1766015958.65682,30
1766015958.656825,32
1766015958.6568298,28
1766015958.6568341,29
1766015958.656839,29
1766015958.6568441,28
1766015958.656849,31
1766015958.656854,31
1766015958.656859,31
1766015958.656864,29
1766015958.656868,29
1766015958.656873,30
1766015958.656878,30
1766015958.656883,30
1766015958.656888,28
1766015958.656893,29
1766015958.656897,27
1766015958.6569018,27
1766015958.656907,28
1766015958.6569118,31
1766015958.656917,27
1766015958.6569211,26
1766015958.656926,31
1766015958.656932,27
1766015958.656938,28
1766015958.656943,29
1766015958.6569479,25
1766015958.656953,28
1766015958.6569579,27
1766015958.656963,27
1766015958.6569679,27
1766015958.656972,28
1766015958.656977,30
1766015958.656982,26
1766015958.656987,24
1766015958.656992,25
1766015958.656996,30
1766015958.657001,27
1766015958.657006,28
1766015958.657011,27
1766015958.657015,27
1766015958.6570199,27
1766015958.657025,27
1766015958.6570299,28
1766015958.657035,26
1766015958.6570399,26
1766015958.657044,26
1766015958.6570492,29
1766015958.657054,26
1766015958.657059,28
1766015958.657064,30
1766015958.657068,27
1766015958.6570728,30
1766015958.657078,29
1766015958.6570828,26
1766015958.657088,27
1766015958.657094,30
1766015958.657099,30
1766015958.6571038,29
1766015958.657109,28
1766015958.657114,24
1766015958.657156,26
1766015958.657176,24
1766015958.657186,27
1766015958.657196,28
1766015958.657206,27
1766015958.657216,27
1766015958.657225,25
1766015958.657235,27
1766015958.657245,24
1766015958.657255,24
1766015958.657265,27
1766015958.657274,24
1766015958.657284,27
1766015958.657296,28
1766015958.6573079,26
1766015958.6573272,30
1766015958.657332,24
1766015958.6573372,26
1766015958.657342,22
1766015958.657347,28
1766015958.657351,24
1766015958.657356,25
1766015958.6573608,25
1766015958.657366,27
1766015958.6573708,28
1766015958.657376,27
1766015958.657381,26
1766015958.6573849,23
1766015958.65739,29
1766015958.657399,26
1766015958.657405,25
1766015958.657409,25
1766015958.657414,26
1766015958.65742,27
1766015958.657425,25
1766015958.65743,24
1766015958.657435,24
1766015958.657439,27
1766015958.657444,26
1766015958.657449,26
1766015958.657454,25
1766015958.657459,25
1766015958.657464,24
1766015958.6574678,25
1766015958.657473,28
1766015958.6574779,26
1766015958.657483,27
1766015958.6574879,23
1766015958.6574929,29
1766015958.6574972,24
1766015958.657502,25
1766015958.6575072,28
1766015958.657512,25
1766015958.657517,27
1766015958.657522,24
1766015958.657526,26
1766015958.6575308,23
1766015958.657536,27
1766015958.657541,27
1766015958.6575449,25
1766015958.65755,24
1766015958.6575549,26
1766015958.657561,27
1766015958.657567,25
1766015958.657572,29
1766015958.657577,24
1766015958.657582,24
1766015958.657587,25
1766015958.657591,25
1766015958.6575959,26
1766015958.657601,26
1766015958.657606,27
1766015958.657611,21
1766015958.657623,26
1766015958.6576278,28
1766015958.657633,24
1766015958.6576371,25
1766015958.657642,25
1766015958.6576471,26
1766015958.657652,26
1766015958.6576571,26
1766015958.657662,23
1766015958.657666,26
1766015958.657671,27
1766015958.657676,27
1766015958.657681,25
1766015958.657686,24
1766015958.6576908,25
1766015958.657695,24
1766015958.6577,25
1766015958.657705,26
1766015958.65771,24
1766015958.6577148,25
1766015958.6577191,26
1766015958.657724,26
1766015958.65773,25
1766015958.6577358,26
1766015958.657741,25
1766015958.6577458,24
1766015958.6577501,24
1766015958.657755,28
1766015958.65776,25
1766015958.6577652,25
1766015958.65777,25
1766015958.657774,25
1766015958.657779,26
1766015958.657784,25
1766015958.657789,26
1766015958.657793,25
1766015958.6577978,24
1766015958.657803,24
1766015958.6578078,27
1766015958.6578119,27
1766015958.6578171,26
1766015958.657822,24
1766015958.6578271,25
1766015958.657832,25
1766015958.657836,24
1766015958.657841,24
1766015958.657846,25
1766015958.657851,29
1766015958.657855,25
1766015958.65786,25
1766015958.657865,25
1766015958.65787,25
1766015958.6578739,28
1766015958.657879,24
1766015958.657884,26
1766015958.6578891,26
1766015958.6578948,26
1766015958.657901,24
1766015958.6579058,23
1766015958.65791,24
1766015958.6579149,27
1766015958.65792,25
1766015958.6579242,25
1766015958.657929,25
1766015958.6579342,23
1766015958.657939,25
1766015958.657944,24
1766015958.657948,23
1766015958.657953,28
1766015958.6579578,26
1766015958.657963,30
1766015958.657967,25
1766015958.6579719,22
1766015958.657977,25
1766015958.657981,22
1766015958.6579862,25
1766015958.657991,23
1766015958.657996,28
1766015958.6579998,24
1766015958.658005,23
1766015958.65801,25
1766015958.658015,23
1766015958.658019,29
1766015958.6580238,26
1766015958.658029,26
1766015958.658033,27
1766015958.658038,27
1766015958.658043,23
1766015958.658048,24
1766015958.6580539,26
1766015958.6580591,27
1766015958.658064,23
1766015958.658069,27
1766015958.6580741,24
1766015958.658078,23
1766015958.658083,26
1766015958.658088,24
1766015958.658093,25
1766015958.6580968,26
1766015958.658102,23
1766015958.6581068,26
1766015958.658112,26
1766015958.658116,28
1766015958.6581209,27
1766015958.658126,29
1766015958.658131,28
1766015958.658135,25
1766015958.65814,25
1766015958.658145,27
1766015958.65815,26
1766015958.658154,25
1766015958.658159,25
1766015958.658164,26
1766015958.658168,28
1766015958.6581728,21
1766015958.658178,26
1766015958.6581829,25
1766015958.658188,28
1766015958.658192,28
1766015958.658197,28
1766015958.6582022,27
1766015958.658207,24
1766015958.6582122,24
1766015958.658218,24
1766015958.658224,28
1766015958.658228,28
1766015958.6582332,26
1766015958.658238,24
1766015958.658242,26
1766015958.658247,24
1766015958.658252,26
1766015958.658257,26
1766015958.658262,28
1766015958.6582668,28
1766015958.658271,28
1766015958.658276,25
1766015958.6582808,25
1766015958.658286,25
1766015958.65829,23
1766015958.6582952,25
1766015958.6583,25
1766015958.658304,24
1766015958.6583092,25
1766015958.658314,27
1766015958.658319,25
1766015958.658323,25
1766015958.658328,28
1766015958.6583328,25
1766015958.658337,27
1766015958.658342,27
1766015958.658347,25
1766015958.6583521,27
1766015958.658357,27
1766015958.6583612,28
1766015958.658366,25
1766015958.658371,24
1766015958.658377,22
1766015958.6583822,25
1766015958.658387,25
1766015958.658392,30
1766015958.658396,25
1766015958.658401,23
1766015958.6584058,26
1766015958.658411,26
1766015958.658415,27
1766015958.65842,21
1766015958.658425,25
1766015958.6584299,26
1766015958.6584342,26
1766015958.658439,25
1766015958.658444,28
1766015958.658449,26
1766015958.658453,26
1766015958.658458,23
1766015958.658463,27
1766015958.658468,28
1766015958.6584718,27
1766015958.658477,26
1766015958.6584818,25
1766015958.658487,28
1766015958.658491,27
1766015958.658496,24
1766015958.6585011,26
1766015958.658506,27
1766015958.65851,25
1766015958.658515,25
1766015958.65852,29
1766015958.658525,27
1766015958.658529,27
1766015958.6585338,28
1766015958.65854,26
1766015958.658546,22
1766015958.658551,29
1766015958.658556,25
1766015958.658561,27
1766015958.658565,23
1766015958.65857,26
1766015958.658575,23
1766015958.65858,25
1766015958.658584,25
1766015958.658589,24
1766015958.6585941,26
1766015958.658599,28
1766015958.658603,28
1766015958.6586082,28
1766015958.658613,25
1766015958.6586182,27
1766015958.658622,25
1766015958.658627,25
1766015958.658632,26
1766015958.658637,27
1766015958.6586418,27
1766015958.658646,25
1766015958.6586509,28
1766015958.658656,27
1766015958.6586611,24
1766015958.658665,31
1766015958.6586702,28
1766015958.658675,27
1766015958.658679,28
1766015958.658684,29
1766015958.658689,30
1766015958.6586938,24
1766015958.6587,23
1766015958.658706,25
1766015958.658711,27
1766015958.6587148,28
1766015958.65872,24
1766015958.658725,23
1766015958.65873,28
1766015958.658735,25
1766015958.6587389,26
1766015958.658744,28
1766015958.6587489,26
1766015958.658754,28
1766015958.658758,26
1766015958.658763,25
1766015958.658768,25
1766015958.658773,26
1766015958.658777,26
1766015958.658782,29
1766015958.658787,26
1766015958.658792,26
1766015958.658797,26
1766015958.6588008,23
1766015958.658806,28
1766015958.658824,26
1766015958.6588302,27
1766015958.658835,24
1766015958.6588402,24
1766015958.658845,27
1766015958.65885,23
1766015958.658855,27
1766015958.65886,25
1766015958.6589031,27
1766015958.658918,26
1766015958.6589289,27
1766015958.6589499,24
1766015958.6589599,28
1766015958.658981,24
1766015958.658991,26
1766015958.659014,28
1766015958.659025,27
1766015958.6590369,29
1766015958.659049,27
1766015958.65906,27
1766015958.65907,24
1766015958.65908,25
1766015958.6590898,26
1766015958.6590998,27
1766015958.659112,25
1766015958.659124,26
1766015958.6591349,26
1766015958.659155,28
1766015958.6591659,27
1766015958.6591759,27
1766015958.6591868,28
1766015958.6591969,28
1766015958.6592069,27
1766015958.659217,26
1766015958.659227,27
1766015958.6592379,29
1766015958.659248,28
1766015958.659279,29
1766015958.65929,26
1766015958.6593,25
1766015958.659311,24
1766015958.659321,25
1766015958.659331,26
1766015958.6593559,27
1766015958.659362,25
1766015958.6593668,25
1766015958.659372,28
1766015958.6593769,24
1766015958.659382,26
1766015958.6593869,25
1766015958.659394,24
1766015958.6593988,26
1766015958.659404,29
1766015958.6594088,24
1766015958.659415,27
1766015958.65942,26
1766015958.659425,28
1766015958.6594298,23
1766015958.659435,25
1766015958.65944,23
1766015958.659445,28
1766015958.65945,25
1766015958.659455,25
1766015958.65946,26
1766015958.659465,26
1766015958.659471,25
1766015958.659476,25
1766015958.659481,23
1766015958.659486,26
1766015958.659491,26
1766015958.6594949,22
1766015958.6595001,26
1766015958.659529,25
1766015958.659553,23
1766015958.6595972,24
1766015958.6596239,26
1766015958.659637,20
1766015958.65965,24
1766015958.659662,25
1766015958.659672,26
1766015958.659682,24
1766015958.659693,25
1766015958.659703,23
1766015958.659713,24
1766015958.65973,23
1766015958.659741,26
1766015958.659751,22
1766015958.659761,25
1766015958.6597812,24
1766015958.65981,24
1766015958.6598232,25
1766015958.6598349,23
1766015958.6598458,24
1766015958.6598558,25
1766015958.6598668,26
1766015958.659877,25
1766015958.659888,26
1766015958.659898,27
1766015958.65991,27
1766015958.659921,25
1766015958.659931,24
1766015958.6599412,29
1766015958.6599522,24
1766015958.6599622,27
1766015958.6599722,27
1766015958.6599832,26
1766015958.6599941,23
1766015958.660016,24
1766015958.660023,26
1766015958.660028,27
1766015958.660033,27
1766015958.660038,26
1766015958.660043,26
1766015958.6600478,27
1766015958.660053,29
1766015958.660058,29
1766015958.6600618,25
1766015958.660067,27
1766015958.6600718,27
1766015958.660077,30
1766015958.6600819,25
1766015958.660087,27
1766015958.660144,26
1766015958.660154,25
1766015958.660165,28
1766015958.660198,25
1766015958.660204,28
1766015958.660209,27
1766015958.660214,30
1766015958.660219,27
1766015958.660224,28
1766015958.6602292,29
1766015958.660234,25
1766015958.6602392,28
1766015958.660244,27
1766015958.6602502,26
1766015958.660255,26
1766015958.6602602,25
1766015958.660265,27
1766015958.66027,27
1766015958.660275,29
1766015958.6602821,24
1766015958.660288,28
1766015958.660293,29
1766015958.6602979,26
1766015958.660303,31
1766015958.660308,28
1766015958.6603131,27
1766015958.660318,26
1766015958.6603231,29
1766015958.660328,28
1766015958.660332,29
1766015958.660337,29
1766015958.660342,28
1766015958.660347,27
1766015958.660352,28
1766015958.6603572,28
1766015958.660362,27
1766015958.660367,31
1766015958.660372,33
1766015958.660377,28
1766015958.660382,31
1766015958.660387,28
1766015958.660392,26
1766015958.660397,30
1766015958.6604009,28
1766015958.660406,31
1766015958.660411,28
1766015958.660416,33
1766015958.6604211,30
1766015958.660426,30
1766015958.6604311,30
1766015958.660436,29
1766015958.6604412,31
1766015958.660447,28
1766015958.660453,31
1766015958.660459,30
1766015958.660464,29
1766015958.6604679,31
1766015958.660473,29
1766015958.6604779,28
1766015958.660484,31
1766015958.6604888,29
1766015958.660494,28
1766015958.6604989,30
1766015958.660504,32
1766015958.6605089,31
1766015958.660514,30
1766015958.660518,29
1766015958.660523,32
1766015958.6605282,31
1766015958.660533,33
1766015958.6605382,32
1766015958.660543,30
1766015958.6605482,33
1766015958.660553,30
1766015958.660558,31
1766015958.660563,31
1766015958.660568,31
1766015958.660573,31
1766015958.660578,30
1766015958.660583,32
1766015958.660588,31
1766015958.660592,33
1766015958.660597,34
1766015958.660602,35
1766015958.6606069,31
1766015958.660612,32
1766015958.660619,34
1766015958.660625,33
1766015958.66063,32
1766015958.660635,34
1766015958.66064,32
1766015958.660645,34
1766015958.66065,32
1766015958.660655,35
1766015958.66066,35
1766015958.660665,35
1766015958.66067,35
1766015958.660675,36
1766015958.6606798,34
1766015958.660685,33
1766015958.6606898,36
1766015958.660695,37
1766015958.6606998,34
1766015958.660705,36
1766015958.6607099,37
1766015958.660715,34
1766015958.6607192,38
1766015958.660724,32
1766015958.6607292,34
1766015958.660734,39
1766015958.6607392,37
1766015958.660744,37
1766015958.660749,37
1766015958.660754,37
1766015958.660759,40
1766015958.660764,36
1766015958.660769,37
1766015958.660774,36
1766015958.660779,37
1766015958.660785,37
1766015958.6607912,35
1766015958.660796,37
1766015958.6608,38
1766015958.6608052,36
1766015958.66081,35
1766015958.660815,37
1766015958.66082,38
1766015958.660825,39
1766015958.66083,42
1766015958.660835,39
1766015958.66084,40
1766015958.660845,41
1766015958.660851,40
1766015958.660856,38
1766015958.660861,41
1766015958.660866,43
1766015958.660871,36
1766015958.660876,39
1766015958.6608808,38
1766015958.660886,42
1766015958.6608908,39
1766015958.660896,38
1766015958.660901,43
1766015958.660906,37
1766015958.660911,41
1766015958.6609159,42
1766015958.660921,42
1766015958.6609259,39
1766015958.660931,42
1766015958.6609359,37
1766015958.6609411,39
1766015958.660946,40
1766015958.660953,44
1766015958.660959,41
1766015958.660964,43
1766015958.660969,41
1766015958.660974,43
1766015958.660979,41
1766015958.660983,43
1766015958.6609879,41
1766015958.660993,42
1766015958.6609979,43
1766015958.661003,42
1766015958.661008,42
1766015958.661013,43
1766015958.6610181,44
1766015958.661023,37
1766015958.6610281,43
1766015958.661033,41
1766015958.6610382,39
1766015958.661043,43
1766015958.661047,43
1766015958.661053,41
1766015958.661058,41
1766015958.661062,40
1766015958.661067,39
1766015958.6610718,39
1766015958.661077,38
1766015958.661082,39
1766015958.661087,40
1766015958.661092,39
1766015958.661097,41
1766015958.661102,38
1766015958.6611068,41
1766015958.661112,41
1766015958.661118,42
1766015958.661123,40
1766015958.661129,41
1766015958.661134,37
1766015958.661139,42
1766015958.661144,38
1766015958.661149,39
1766015958.661154,40
1766015958.6611588,38
1766015958.661164,39
1766015958.6611688,38
1766015958.661174,40
1766015958.6611788,38
1766015958.661184,39
1766015958.661189,37
1766015958.661194,39
1766015958.6611981,38
1766015958.661203,35
1766015958.6612082,39
1766015958.661213,38
1766015958.6612182,38
1766015958.661223,42
1766015958.661228,38
1766015958.661233,37
1766015958.661238,40
1766015958.661243,39
1766015958.661248,39
1766015958.661252,37
1766015958.661257,36
1766015958.661262,38
1766015958.661267,38
1766015958.661272,39
1766015958.6612768,38
1766015958.661282,39
1766015958.661288,43
1766015958.661294,39
1766015958.661299,39
1766015958.661304,41
1766015958.661309,38
1766015958.661314,40
1766015958.6613178,39
1766015958.661323,38
1766015958.6613278,35
1766015958.661333,38
1766015958.661338,40
1766015958.6613429,39
1766015958.661348,34
1766015958.6613529,34
1766015958.661358,37
1766015958.661363,34
1766015958.6613681,39
1766015958.661373,41
1766015958.6613781,40
1766015958.661383,42
1766015958.661388,39
1766015958.661392,38
1766015958.661397,39
1766015958.6614022,38
1766015958.6614459,38
1766015958.661458,37
1766015958.6614678,38
1766015958.661479,40
1766015958.661489,39
1766015958.6614988,34
1766015958.661509,36
1766015958.661519,38
1766015958.661529,40
1766015958.6615438,36
1766015958.661591,36
1766015958.6616,39
1766015958.6616058,38
1766015958.661611,34
1766015958.661616,35
1766015958.661621,37
1766015958.661626,38
1766015958.66163,34
1766015958.6616352,34
1766015958.66164,33
1766015958.6616452,34
1766015958.66165,33
1766015958.661655,35
1766015958.66166,37
1766015958.661665,36
1766015958.66167,33
1766015958.661675,36
1766015958.6616802,35
1766015958.661685,34
1766015958.66169,34
1766015958.661695,36
1766015958.6617,35
1766015958.661705,32
1766015958.66171,35
1766015958.661715,39
1766015958.66172,35
1766015958.661725,35
1766015958.66173,34
1766015958.6617339,35
1766015958.66174,35
1766015958.661744,38
1766015958.661749,34
1766015958.6617558,33
1766015958.661762,35
1766015958.661767,35
1766015958.661772,36
1766015958.6617768,37
1766015958.661782,34
1766015958.6617868,34
1766015958.661792,34
1766015958.661797,33
1766015958.661802,33
1766015958.661807,37
1766015958.661812,33
1766015958.661817,32
1766015958.661821,37
1766015958.6618261,31
1766015958.661831,36
1766015958.6618361,32
1766015958.661841,32
1766015958.661846,33
1766015958.661851,34
1766015958.661856,33
1766015958.6618612,36
1766015958.661866,32
1766015958.6618712,33
1766015958.661876,31
1766015958.66188,34
1766015958.661885,32
1766015958.66189,31
1766015958.6618948,32
1766015958.6619,35
1766015958.6619048,31
1766015958.66191,34
1766015958.6619148,34
1766015958.661921,31
1766015958.661927,33
1766015958.661932,32
1766015958.661937,29
1766015958.661942,33
1766015958.6619468,30
1766015958.661952,32
1766015958.661957,32
1766015958.661962,34
1766015958.661967,34
1766015958.661972,29
1766015958.661977,30
1766015958.661982,30
1766015958.661987,31
1766015958.6619918,32
1766015958.661998,33
1766015958.662003,33
1766015958.662008,30
1766015958.6620128,30
1766015958.662018,29
1766015958.6620228,33
1766015958.662028,31
1766015958.6620328,34
1766015958.662038,29
1766015958.6620429,30
1766015958.662048,31
1766015958.662053,28
1766015958.6620579,31
1766015958.6620631,29
1766015958.662068,30
1766015958.6620731,31
1766015958.662078,31
1766015958.6620831,29
1766015958.6620889,32
1766015958.662095,27
1766015958.6621,29
1766015958.662105,31
1766015958.6621099,32
1766015958.662115,32
1766015958.6621199,27
1766015958.662125,29
1766015958.6621299,33
1766015958.662136,25
1766015958.6621408,33
1766015958.662146,31
1766015958.6621509,29
1766015958.662156,32
1766015958.6621609,31
1766015958.662166,29
1766015958.662171,25
1766015958.662175,29
1766015958.6621802,33
1766015958.662185,31
1766015958.6621902,27
1766015958.662195,28
1766015958.6622,28
1766015958.662205,27
1766015958.66221,30
1766015958.662215,27
1766015958.66222,27
1766015958.662225,28
1766015958.66223,27
1766015958.6622348,28
1766015958.662239,29
1766015958.662244,29
1766015958.66225,32
1766015958.662255,27
1766015958.662261,26
1766015958.662267,28
1766015958.662272,31
1766015958.6622772,27
1766015958.662282,28
1766015958.662287,29
1766015958.662292,27
1766015958.662297,27
1766015958.662302,24
1766015958.662307,29
1766015958.662312,28
1766015958.662317,29
1766015958.6623218,28
1766015958.662327,27
1766015958.6623318,27
1766015958.662336,28
1766015958.662341,23
1766015958.662346,28
1766015958.6623511,27
1766015958.662356,30
1766015958.6623611,28
1766015958.662366,28
1766015958.6623712,28
1766015958.662376,31
1766015958.6623812,29
1766015958.662386,28
1766015958.662391,28
1766015958.662396,27
1766015958.662401,24
1766015958.662406,28
1766015958.662476,26
1766015958.6624808,26
1766015958.662486,26
1766015958.662493,26
1766015958.6624992,26
1766015958.662504,27
1766015958.662509,27
1766015958.662514,26
1766015958.662519,29
1766015958.662524,26
1766015958.662529,30
1766015958.662534,28
1766015958.662539,28
1766015958.6625438,28
1766015958.662548,26
1766015958.662553,26
1766015958.6625578,26
1766015958.662563,25
1766015958.6625679,27
1766015958.662573,26
1766015958.6625779,27
1766015958.662583,24
1766015958.662588,22
1766015958.6625931,26
1766015958.662598,28
1766015958.662603,25
1766015958.662608,30
1766015958.662613,28
1766015958.6626182,26
1766015958.662622,25
1766015958.6626282,28
1766015958.662633,27
1766015958.662637,24
1766015958.662642,27
1766015958.662647,26
1766015958.662652,24
1766015958.6626592,25
1766015958.662665,26
1766015958.6626701,27
1766015958.662675,24
1766015958.6626801,27
1766015958.662685,26
1766015958.662689,26
1766015958.662694,26
1766015958.6627011,27
1766015958.662706,25
1766015958.6627111,25
1766015958.662716,26
1766015958.662721,27
1766015958.662726,24
1766015958.66273,25
1766015958.662736,20
1766015958.66274,25
1766015958.662745,24
1766015958.66275,24
1766015958.662755,25
1766015958.66276,24
1766015958.662765,27
1766015958.66277,27
1766015958.662775,25
1766015958.6627798,22
1766015958.662785,26
1766015958.662789,23
1766015958.6627939,25
1766015958.6627991,23
1766015958.662804,25
1766015958.6628091,24
1766015958.662814,28
1766015958.6628191,25
1766015958.6628249,22
1766015958.66283,25
1766015958.662837,24
1766015958.662842,22
1766015958.6628458,25
1766015958.662851,23
1766015958.6628559,23
1766015958.662861,28
1766015958.6628659,25
1766015958.6628711,25
1766015958.662876,21
1766015958.6628811,23
1766015958.662886,22
1766015958.662891,23
1766015958.6628962,24
1766015958.662901,24
1766015958.662905,24
1766015958.66291,20
1766015958.662915,23
1766015958.66292,22
1766015958.662925,23
1766015958.66293,24
1766015958.662935,21
1766015958.6629398,25
1766015958.662945,23
1766015958.6629498,22
1766015958.662954,24
1766015958.662959,26
1766015958.6629639,24
1766015958.662969,24
1766015958.6629739,23
1766015958.6629791,24
1766015958.662984,23
1766015958.6629891,26
1766015958.6629949,26
1766015958.663001,22
1766015958.663006,22
1766015958.663011,24
1766015958.6630158,24
1766015958.663021,23
1766015958.6630259,25
1766015958.663031,23
1766015958.6630359,24
1766015958.663041,25
1766015958.663046,24
1766015958.663051,26
1766015958.6630552,22
1766015958.663061,24
1766015958.6630652,24
1766015958.66307,21
1766015958.663075,23
1766015958.66308,23
1766015958.663085,24
1766015958.66309,23
1766015958.663095,26
1766015958.6631,22
1766015958.663105,24
1766015958.6631098,24
1766015958.663115,22
1766015958.6631198,23
1766015958.663125,23
1766015958.66313,23
1766015958.663135,23
1766015958.663139,25
1766015958.6631439,26
1766015958.663149,24
1766015958.663154,23
1766015958.663161,24
1766015958.663167,24
1766015958.663172,26
1766015958.6631758,24
1766015958.663181,25
1766015958.6631858,22
1766015958.663191,26
1766015958.6631958,24
1766015958.663201,23
1766015958.6632059,23
1766015958.663211,24
1766015958.663216,26
1766015958.663221,23
1766015958.6632261,25
1766015958.663231,23
1766015958.6632352,23
1766015958.66324,23
1766015958.663245,24
1766015958.66325,25
1766015958.663255,20
1766015958.66326,23
1766015958.663265,25
1766015958.66327,24
1766015958.663275,25
1766015958.66328,23
1766015958.663285,23
1766015958.663289,22
1766015958.6632938,25
1766015958.663299,24
1766015958.6633039,23
1766015958.663309,23
1766015958.6633139,25
1766015958.663319,26
1766015958.6633248,21
1766015958.663331,23
1766015958.663336,26
1766015958.663341,23
1766015958.6633458,23
1766015958.663351,20
1766015958.6633558,23
1766015958.663361,23
1766015958.6633658,21
1766015958.663371,23
1766015958.6633759,26
1766015958.663381,23
1766015958.663386,19
1766015958.6633909,24
1766015958.6633961,23
1766015958.663401,21
1766015958.663405,25
1766015958.66341,26
1766015958.663415,22
1766015958.66342,24
1766015958.663425,24
1766015958.66343,23
1766015958.663435,21
1766015958.66344,23
1766015958.663445,21
1766015958.66345,22
1766015958.663455,23
1766015958.66346,25
1766015958.663465,23
1766015958.66347,22
1766015958.663475,24
1766015958.663479,24
1766015958.663497,24
1766015958.6635032,26
1766015958.663509,23
1766015958.6635141,26
1766015958.663519,22
1766015958.6635242,26
1766015958.663529,25
1766015958.6635342,25
1766015958.663539,22
1766015958.6635442,24
1766015958.663549,26
1766015958.663554,23
1766015958.663559,22
1766015958.663564,24
1766015958.663569,27
1766015958.663574,20
1766015958.663579,23
1766015958.663584,20
1766015958.6635892,26
1766015958.663594,27
1766015958.663599,25
1766015958.663604,26
1766015958.663609,26
1766015958.663614,25
1766015958.663619,26
1766015958.663624,25
1766015958.663629,27
1766015958.6636329,28
1766015958.663639,23
1766015958.6636438,25
1766015958.663649,27
1766015958.6636539,26
1766015958.663659,24
1766015958.663664,29
1766015958.663669,28
1766015958.6636748,27
1766015958.663681,24
1766015958.6636858,25
1766015958.663691,23
1766015958.6636958,25
1766015958.663701,25
1766015958.663706,25
1766015958.663711,23
1766015958.663716,22
1766015958.6637208,23
1766015958.663726,27
1766015958.6637309,27
1766015958.663736,26
1766015958.6637409,24
1766015958.663746,24
1766015958.663751,25
1766015958.6637561,25
1766015958.663761,25
1766015958.663766,23
1766015958.663771,24
1766015958.663776,26
1766015958.6637812,27
1766015958.663786,27
1766015958.6637912,25
1766015958.663796,28
1766015958.6638,25
1766015958.663805,24
1766015958.66381,24
1766015958.663815,29
1766015958.66382,27
1766015958.6638248,23
1766015958.66383,24
1766015958.6638348,26
1766015958.663841,26
1766015958.663847,21
1766015958.663852,25
1766015958.663857,25
1766015958.663862,23
1766015958.663867,24
1766015958.663872,27
1766015958.663877,26
1766015958.663882,26
1766015958.663886,23
1766015958.6638908,25
1766015958.663896,23
1766015958.6639009,24
1766015958.663906,26
1766015958.6639109,22
1766015958.663916,25
1766015958.6639209,26
1766015958.6639261,25
1766015958.663931,22
1766015958.663935,24
1766015958.6639402,26
1766015958.663945,23
1766015958.66395,25
1766015958.663955,26
1766015958.66396,28
1766015958.663965,25
1766015958.66397,22
1766015958.663975,26
1766015958.66398,23
1766015958.663985,20
1766015958.66399,24
1766015958.6639948,25
1766015958.664,26
1766015958.664006,24
1766015958.664011,24
1766015958.664017,24
1766015958.664022,24
1766015958.664027,26
1766015958.664032,24
1766015958.6640372,19
1766015958.664041,23
1766015958.664046,26
1766015958.664051,25
1766015958.664056,22
1766015958.6640608,22
1766015958.664066,22
1766015958.6640708,23
1766015958.664076,27
1766015958.6640809,24
1766015958.664086,23
1766015958.6640909,25
1766015958.664096,25
1766015958.6641002,25
1766015958.664105,26
1766015958.6641102,23
1766015958.664115,27
1766015958.66412,24
1766015958.664125,26
1766015958.66413,24
1766015958.664135,24
1766015958.664139,23
1766015958.6641438,24
1766015958.664149,22
1766015958.664154,23
1766015958.664159,24
1766015958.664164,24
1766015958.664169,24
1766015958.664175,24
1766015958.664181,27
1766015958.664186,24
1766015958.664191,24
1766015958.664196,24
1766015958.664201,24
1766015958.664206,26
1766015958.664211,24
1766015958.664216,24
1766015958.6642208,24
1766015958.664225,22
1766015958.6642299,27
1766015958.664235,26
1766015958.6642401,25
1766015958.664245,23
1766015958.6642501,21
1766015958.664255,26
1766015958.6642601,21
1766015958.664265,23
1766015958.6642702,20
1766015958.664274,23
1766015958.664279,24
1766015958.664284,23
1766015958.664289,24
1766015958.664294,23
1766015958.664299,24
1766015958.664304,28
1766015958.664309,27
1766015958.664314,26
1766015958.664319,23
1766015958.664324,21
1766015958.6643279,22
1766015958.664333,25
1766015958.66434,26
1766015958.664345,26
1766015958.66435,23
1766015958.664355,23
1766015958.66436,23
1766015958.664365,27
1766015958.6643698,25
1766015958.664375,24
1766015958.6643798,24
1766015958.664385,25
1766015958.6643898,25
1766015958.664395,22
1766015958.6643999,23
1766015958.664405,21
1766015958.66441,23
1766015958.664415,26
1766015958.6644201,23
1766015958.664425,23
1766015958.6644301,23
1766015958.664434,24
1766015958.664439,23
1766015958.664444,22
1766015958.664449,25
1766015958.664454,22
1766015958.664459,23
1766015958.6644638,25
1766015958.664469,24
1766015958.664474,26
1766015958.664479,23
1766015958.664484,22
1766015958.664489,23
1766015958.664494,25
1766015958.664499,24
1766015958.664504,23
1766015958.66451,23
1766015958.6645172,22
1766015958.664521,20
1766015958.664526,25
1766015958.664531,24
1766015958.664536,20
1766015958.664541,27
1766015958.664546,21
1766015958.664551,22
1766015958.664556,20
1766015958.6645608,23
1766015958.664566,25
1766015958.6645708,25
1766015958.664576,24
1766015958.664581,25
1766015958.664586,22
1766015958.664591,21
1766015958.664596,23
1766015958.664601,21
1766015958.6646059,24
1766015958.664611,24
1766015958.6646159,20
1766015958.664621,24
1766015958.664625,23
1766015958.66463,21
1766015958.664635,22
1766015958.66464,22
1766015958.6646452,25
1766015958.66465,25
1766015958.6646552,21
1766015958.66466,22
1766015958.664665,24
1766015958.66467,24
1766015958.6646771,25
1766015958.664683,24
1766015958.664688,23
1766015958.6646929,23
1766015958.6646981,21
1766015958.664703,22
1766015958.6647081,23
1766015958.664713,23
1766015958.664717,20
1766015958.664723,24
1766015958.664727,21
1766015958.664732,23
1766015958.664737,21
1766015958.664742,23
1766015958.664747,21
1766015958.6647522,23
1766015958.664757,24
1766015958.664762,22
1766015958.664767,23
1766015958.664771,24
1766015958.6647758,20
1766015958.664781,22
1766015958.6647859,24
1766015958.664791,22
1766015958.6647959,25
1766015958.6648011,23
1766015958.664806,21
1766015958.664858,25
1766015958.664871,22
1766015958.664882,19
1766015958.6648908,22
1766015958.664901,19
1766015958.664911,21
1766015958.6649249,24
1766015958.664938,21
1766015958.664949,23
1766015958.664959,22
1766015958.664969,24
1766015958.664978,24
1766015958.6649878,22
1766015958.6649978,22
1766015958.665008,25
1766015958.665032,24
1766015958.665041,23
1766015958.665046,21
1766015958.665051,23
1766015958.665056,19
1766015958.6650612,22
1766015958.665066,24
1766015958.665071,20
1766015958.665076,21
1766015958.665081,22
1766015958.665086,22
1766015958.665092,21
1766015958.665097,20
1766015958.665102,24
1766015958.665107,19
1766015958.665112,23
1766015958.665117,23
1766015958.665122,19
1766015958.6651268,25
1766015958.665131,23
1766015958.665136,22
1766015958.665141,25
1766015958.665146,25
1766015958.665151,23
1766015958.665159,20
1766015958.665165,21
1766015958.66517,25
1766015958.665175,25
1766015958.66518,20
1766015958.665185,22
1766015958.66519,24
1766015958.665219,24
1766015958.6652448,19
1766015958.6652648,23
1766015958.6652758,23
1766015958.6652858,24
1766015958.6652968,22
1766015958.6653068,24
1766015958.665317,23
1766015958.665327,20
1766015958.665337,22
1766015958.665347,23
1766015958.665356,25
1766015958.665366,23
1766015958.665376,24
1766015958.665386,24
1766015958.665396,22
1766015958.665405,22
1766015958.6654148,26
1766015958.6654248,24
1766015958.6654348,20
1766015958.6654441,21
1766015958.6654541,24
1766015958.6654642,22
1766015958.665473,22
1766015958.665483,20
1766015958.665493,24
1766015958.6655061,22
1766015958.665518,23
1766015958.665529,23
1766015958.665539,24
1766015958.665548,25
1766015958.665558,20
1766015958.665568,20
1766015958.665578,24
1766015958.665587,25
1766015958.6656032,22
1766015958.665615,21
1766015958.6656268,22
1766015958.665638,22
1766015958.6656482,20
1766015958.665658,21
1766015958.665667,22
1766015958.665677,20
1766015958.665687,20
1766015958.665696,22
1766015958.665706,23
1766015958.665716,22
1766015958.665725,19
1766015958.665735,22
1766015958.6657438,20
1766015958.665754,24
1766015958.665764,24
1766015958.6657732,23
1766015958.665783,19
1766015958.665793,23
1766015958.665803,21
1766015958.665812,22
1766015958.665822,21
1766015958.665833,23
1766015958.665845,23
1766015958.665855,22
1766015958.665865,19
1766015958.665875,22
1766015958.665885,20
1766015958.665897,21
1766015958.6659148,24
1766015958.665925,24
1766015958.6659358,21
1766015958.665948,24
1766015958.665959,22
1766015958.665982,26
1766015958.665992,21
1766015958.666002,22
1766015958.6660118,22
1766015958.6660218,22
1766015958.666032,23
1766015958.666042,24
1766015958.666052,22
1766015958.666062,22
1766015958.666071,21
1766015958.666081,20
1766015958.666091,24
1766015958.666101,20
1766015958.66611,23
1766015958.66612,21
1766015958.666152,22
1766015958.6661592,22
1766015958.666164,24
1766015958.6661692,23
1766015958.666174,21
1766015958.6661792,25
1766015958.666187,21
1766015958.6661918,22
1766015958.666198,23
1766015958.6662028,24
1766015958.666208,21
1766015958.666213,22
1766015958.666218,20
1766015958.666223,21
1766015958.666228,22
1766015958.666233,21
1766015958.666238,26
1766015958.666243,22
1766015958.6662478,24
1766015958.6662521,21
1766015958.666257,22
1766015958.666262,23
1766015958.666267,27
1766015958.666272,25
1766015958.6662772,26
1766015958.666282,25
1766015958.6662872,22
1766015958.666292,23
1766015958.666296,25
1766015958.666301,24
1766015958.666306,24
1766015958.666311,25
1766015958.666316,25
1766015958.6663208,27
1766015958.666326,23
1766015958.6663308,25
1766015958.666336,25
1766015958.666341,28
1766015958.666346,25
1766015958.666352,25
1766015958.666358,27
1766015958.6663628,23
1766015958.666368,24
1766015958.666373,26
1766015958.666378,25
1766015958.666383,27
1766015958.666388,24
1766015958.666393,25
1766015958.666398,27
1766015958.666403,23
1766015958.6664078,29
1766015958.666413,26
1766015958.6664178,27
1766015958.666423,28
1766015958.6664279,29
1766015958.666452,28
1766015958.666464,28
1766015958.666476,25
1766015958.6664882,29
1766015958.6664991,28
1766015958.666517,27
1766015958.666527,27
1766015958.666537,27
1766015958.666549,28
1766015958.666574,30
1766015958.6665869,26
1766015958.666603,29
1766015958.666616,29
1766015958.666626,32
1766015958.666636,32
1766015958.666646,30
1766015958.666656,32
1766015958.666668,30
1766015958.666682,31
1766015958.6666949,29
1766015958.666707,31
1766015958.6667461,31
1766015958.6667762,32
1766015958.666813,33
1766015958.6668448,32
1766015958.6668549,30
1766015958.6668658,31
1766015958.6668758,32
1766015958.6668859,30
1766015958.6668968,34
1766015958.6669078,31
1766015958.6669178,33
1766015958.666928,32
1766015958.66694,31
1766015958.666951,32
1766015958.66697,31
1766015958.6669812,33
1766015958.666993,31
1766015958.6670039,32
1766015958.6670148,29
1766015958.667027,33
1766015958.667051,33
1766015958.6670568,29
1766015958.667062,30
1766015958.667068,35
1766015958.667073,34
1766015958.6670778,32
1766015958.667083,31
1766015958.6670878,30
1766015958.667093,35
1766015958.6671,36
1766015958.6671119,32
1766015958.6671202,33
1766015958.667125,31
1766015958.66713,34
1766015958.667135,34
1766015958.66714,33
1766015958.667145,32
1766015958.66715,33
1766015958.667155,34
1766015958.66716,29
1766015958.667176,32
1766015958.667192,32
1766015958.667219,34
1766015958.6672251,30
1766015958.66723,34
1766015958.6672351,33
1766015958.66724,33
1766015958.6672451,31
1766015958.66725,32
1766015958.667255,33
1766015958.66726,33
1766015958.6672661,33
1766015958.667277,31
1766015958.6672819,31
1766015958.667287,35
1766015958.6672919,32
1766015958.6672971,31
1766015958.667302,31
1766015958.667307,35
1766015958.6673121,33
1766015958.6673338,35
1766015958.6673548,34
1766015958.667362,33
1766015958.667367,33
1766015958.667372,33
1766015958.667377,34
1766015958.667382,30
1766015958.6673868,30
1766015958.667392,29
1766015958.667397,34
1766015958.667402,32
1766015958.667407,31
1766015958.6674109,30
1766015958.667416,35
1766015958.6674209,33
1766015958.667426,32
1766015958.6674309,31
1766015958.6674361,33
1766015958.667441,34
1766015958.667446,31
1766015958.6674502,33
1766015958.667455,36
1766015958.6674602,29
1766015958.667465,32
1766015958.66747,32
1766015958.667475,31
1766015958.66748,34
1766015958.667485,33
1766015958.667489,35
1766015958.6674938,31
1766015958.667499,34
1766015958.667504,33
1766015958.667508,33
1766015958.6675131,30
1766015958.667518,30
1766015958.667524,31
1766015958.6675289,34
1766015958.667535,31
1766015958.66754,32
1766015958.667545,31
1766015958.6675498,32
1766015958.667555,34
1766015958.6675599,31
1766015958.667565,30
1766015958.6675699,32
1766015958.6675751,30
1766015958.667579,31
1766015958.667584,35
1766015958.667594,28
1766015958.6675992,29
1766015958.667604,33
1766015958.667609,33
1766015958.667614,33
1766015958.667618,29
1766015958.6676228,34
1766015958.667628,31
1766015958.6676328,31
1766015958.667638,31
1766015958.6676428,34
1766015958.667647,31
1766015958.6676521,30
1766015958.667657,32
1766015958.6676621,34
1766015958.667667,32
1766015958.6676722,32
1766015958.667676,35
1766015958.667681,36
1766015958.667686,31
1766015958.667691,31
1766015958.667698,33
1766015958.6677032,31
1766015958.667708,31
1766015958.667713,34
1766015958.667718,34
1766015958.667722,31
1766015958.667727,33
1766015958.667732,29
1766015958.667737,35
1766015958.667742,32
1766015958.667746,36
1766015958.6677508,33
1766015958.667756,34
1766015958.6677608,33
1766015958.667768,33
1766015958.667773,33
1766015958.667778,33
1766015958.667783,31
1766015958.667787,29
1766015958.6677918,31
1766015958.667797,32
1766015958.667802,33
1766015958.667806,31
1766015958.6678112,31
1766015958.667816,31
1766015958.6678212,31
1766015958.667825,32
1766015958.66783,30
1766015958.667835,31
1766015958.66784,32
1766015958.667844,30
1766015958.667849,33
1766015958.667854,33
1766015958.66786,35
1766015958.6678662,32
1766015958.667871,34
1766015958.667876,33
1766015958.667881,31
1766015958.667885,33
1766015958.6678898,30
1766015958.667895,30
1766015958.6678998,31
1766015958.667905,32
1766015958.6679099,32
1766015958.667915,29
1766015958.6679192,34
1766015958.667924,35
1766015958.6679292,32
1766015958.667934,34
1766015958.6679392,32
1766015958.667944,31
1766015958.667948,33
1766015958.667953,33
1766015958.667958,28
1766015958.6679628,28
1766015958.667968,33
1766015958.667972,30
1766015958.6679769,32
1766015958.667982,30
1766015958.6679869,31
1766015958.667992,31
1766015958.667997,32
1766015958.668001,32
1766015958.668006,32
1766015958.668011,33
1766015958.6680162,31
1766015958.668022,31
1766015958.668027,34
1766015958.668032,29
1766015958.6680372,33
1766015958.668042,30
1766015958.6680472,34
1766015958.668051,33
1766015958.668056,32
1766015958.668061,32
1766015958.668066,32
1766015958.6680708,33
1766015958.668076,30
1766015958.66808,34
1766015958.668085,32
1766015958.66809,32
1766015958.6680949,31
1766015958.6680992,31
1766015958.668104,34
1766015958.668109,32
1766015958.668114,31
1766015958.668119,33
1766015958.6681228,31
1766015958.668128,33
1766015958.668133,32
1766015958.668138,32
1766015958.668142,34
1766015958.6681468,31
1766015958.668152,32
1766015958.6681569,34
1766015958.668162,33
1766015958.668166,33
1766015958.668171,30
1766015958.668176,31
1766015958.668181,33
1766015958.668187,33
1766015958.668192,34
1766015958.6681972,31
1766015958.668202,34
1766015958.6682072,33
1766015958.668212,34
1766015958.6682172,34
1766015958.668221,32
1766015958.668226,31
1766015958.668231,32
1766015958.668236,32
1766015958.6682408,32
1766015958.668246,31
1766015958.66825,33
1766015958.668255,33
1766015958.66826,35
1766015958.6682649,32
1766015958.66827,37
1766015958.668274,32
1766015958.668279,32
1766015958.668284,30
1766015958.668289,32
1766015958.668294,31
1766015958.668299,32
1766015958.668304,29
1766015958.668308,34
1766015958.668313,34
1766015958.668318,32
1766015958.668323,28
1766015958.668328,32
1766015958.668333,33
1766015958.6683369,32
1766015958.668342,30
1766015958.668349,32
1766015958.668354,33
1766015958.6683588,31
1766015958.668364,32
1766015958.6683688,33
1766015958.668374,34
1766015958.6683788,30
1766015958.668384,29
1766015958.668389,32
1766015958.668394,33
1766015958.668399,29
1766015958.6684039,29
1766015958.668409,29
1766015958.668413,31
1766015958.668418,28
1766015958.668423,30
1766015958.668428,32
1766015958.668433,32
1766015958.668437,32
1766015958.668442,34
1766015958.668447,29
1766015958.668452,31
1766015958.668457,32
1766015958.668461,29
1766015958.6684659,29
1766015958.668471,34
1766015958.6684759,30
1766015958.668481,31
1766015958.6684852,33
1766015958.66849,32
1766015958.6684952,28
1766015958.6685,35
1766015958.668504,31
1766015958.668509,32
1766015958.668515,32
1766015958.668521,34
1766015958.6685262,34
1766015958.668531,32
1766015958.668536,31
1766015958.66854,30
1766015958.668545,31
1766015958.6685498,32
1766015958.668555,31
1766015958.6685598,34
1766015958.668565,31
1766015958.66857,35
1766015958.6685739,31
1766015958.668579,31
1766015958.6685839,30
1766015958.668589,31
1766015958.668594,35
1766015958.6685991,33
1766015958.668603,32
1766015958.668608,34
1766015958.6686132,31
1766015958.668618,35
1766015958.6686232,30
1766015958.668628,33
1766015958.668632,30
1766015958.668637,31
1766015958.668642,33
1766015958.6686468,33
1766015958.668651,31
1766015958.668656,32
1766015958.6686609,33
1766015958.6686661,34
1766015958.668671,32
1766015958.668677,33
1766015958.668683,33
1766015958.6686878,33
1766015958.668693,31
1766015958.668698,29
1766015958.668702,29
1766015958.6687071,30
1766015958.668712,30
1766015958.6687171,30
1766015958.668722,29
1766015958.668726,29
1766015958.668731,30
1766015958.668736,29
1766015958.6687412,30
1766015958.668746,32
1766015958.66875,31
1766015958.668755,29
1766015958.66876,30
1766015958.6687648,30
1766015958.66877,30
1766015958.668774,32
1766015958.668779,29
1766015958.6687841,27
1766015958.668789,31
1766015958.6687942,32
1766015958.668799,28
1766015958.6688042,30
1766015958.668808,28
1766015958.668813,31
1766015958.668818,33
1766015958.668823,31
1766015958.668828,31
1766015958.668832,30
1766015958.668837,29
1766015958.668844,32
1766015958.66885,29
1766015958.668854,29
1766015958.6688588,28
1766015958.668864,30
1766015958.668869,30
1766015958.668874,32
1766015958.668878,30
1766015958.6688828,27
1766015958.668888,28
1766015958.6688929,27
1766015958.668898,30
1766015958.6689029,28
1766015958.668908,31
1766015958.668913,28
1766015958.668917,28
1766015958.6689222,30
1766015958.668927,29
1766015958.6689322,29
1766015958.668937,30
1766015958.668942,28
1766015958.668947,30
1766015958.668951,28
1766015958.6689558,26
1766015958.668961,29
1766015958.6689658,27
1766015958.6689699,29
1766015958.668975,31
1766015958.66898,30
1766015958.6689851,29
1766015958.66899,29
1766015958.6689951,28
1766015958.668999,32
1766015958.6690052,31
1766015958.6690109,28
1766015958.669017,28
1766015958.6690218,28
1766015958.669027,30
1766015958.6690319,25
1766015958.669037,29
1766015958.6690419,31
1766015958.669047,31
1766015958.669052,27
1766015958.669056,27
1766015958.6690612,30
1766015958.669066,30
1766015958.6690712,32
1766015958.669076,32
1766015958.669081,30
1766015958.669085,29
1766015958.66909,28
1766015958.6690948,30
1766015958.6691,29
1766015958.6691048,27
1766015958.66911,27
1766015958.6691148,27
1766015958.669119,30
1766015958.6691241,31
1766015958.669129,29
1766015958.6691341,31
1766015958.669139,29
1766015958.6691442,31
1766015958.669149,31
1766015958.669153,31
1766015958.669158,33
1766015958.669163,29
1766015958.669169,29
1766015958.6691751,27
1766015958.66918,31
1766015958.669185,30
1766015958.66919,31
1766015958.669195,29
1766015958.6692,31
1766015958.669205,30
1766015958.6692102,30
1766015958.669215,31
1766015958.6692202,30
1766015958.669225,32
1766015958.66923,33
1766015958.669235,29
1766015958.66924,32
1766015958.669245,32
1766015958.66925,33
1766015958.669255,33
1766015958.66926,31
1766015958.6692648,30
1766015958.669269,30
1766015958.669274,31
1766015958.6692789,33
1766015958.669284,32
1766015958.6692889,30
1766015958.669294,32
1766015958.669299,31
1766015958.6693041,34
1766015958.669309,33
1766015958.669313,34
1766015958.669318,33
1766015958.669323,34
1766015958.669328,34
1766015958.669333,30
1766015958.669339,32
1766015958.6693451,34
1766015958.66935,30
1766015958.669355,33
1766015958.6693602,32
1766015958.669364,31
1766015958.669369,29
1766015958.669374,33
1766015958.669379,34
1766015958.669384,30
1766015958.669389,32
1766015958.669394,32
1766015958.669398,34
1766015958.6694028,32
1766015958.669408,30
1766015958.669413,30
1766015958.669418,34
1766015958.669423,34
1766015958.6694279,29
1766015958.669433,30
1766015958.669438,33
1766015958.6694431,30
1766015958.669447,31
1766015958.669452,32
1766015958.669457,31
1766015958.669462,31
1766015958.669467,29
1766015958.669472,29
1766015958.6694772,35
1766015958.669482,31
1766015958.669487,29
1766015958.669491,35
1766015958.669496,30
1766015958.669503,33
1766015958.669508,30
1766015958.669513,33
1766015958.669518,33
1766015958.669523,31
1766015958.669528,30
1766015958.669533,34
1766015958.669538,33
1766015958.6695418,28
1766015958.669547,29
1766015958.669552,33
1766015958.669558,31
1766015958.6695628,31
1766015958.669568,32
1766015958.669573,32
1766015958.669578,32
1766015958.669583,28
1766015958.669587,30
1766015958.6695921,34
1766015958.669597,28
1766015958.6696022,31
1766015958.669607,33
1766015958.669612,31
1766015958.6696162,28
1766015958.669621,33
1766015958.669626,30
1766015958.669631,29
1766015958.669636,31
1766015958.669641,32
1766015958.669645,32
1766015958.6696498,30
1766015958.669655,30
1766015958.6696599,31
1766015958.669666,29
1766015958.669672,29
1766015958.669677,30
1766015958.669682,27
1766015958.669687,28
1766015958.6696908,29
1766015958.669696,29
1766015958.669701,34
1766015958.6697059,26
1766015958.669711,32
1766015958.669716,34
1766015958.6697211,29
1766015958.669726,31
1766015958.66973,33
1766015958.669735,27
1766015958.66974,32
1766015958.669745,29
1766015958.66975,29
1766015958.669755,29
1766015958.669759,29
1766015958.669764,28
1766015958.669769,28
1766015958.669774,28
1766015958.669779,32
1766015958.669784,31
1766015958.6697888,29
1766015958.6697931,30
1766015958.669798,27
1766015958.669803,29
1766015958.6698081,31
1766015958.669813,29
1766015958.6698182,32
1766015958.669823,32
1766015958.6698282,31
1766015958.669834,33
1766015958.6698399,29
1766015958.669845,32
1766015958.66985,28
1766015958.6698549,28
1766015958.6698601,30
1766015958.669864,29
1766015958.669869,30
1766015958.669874,30
1766015958.669879,26
1766015958.669884,29
1766015958.669889,28
1766015958.669893,31
1766015958.669898,27
1766015958.669903,32
1766015958.669908,29
1766015958.669913,27
1766015958.669918,32
1766015958.669923,28
1766015958.669927,29
1766015958.6699321,28
1766015958.669937,27
1766015958.669942,29
1766015958.669947,28
1766015958.669951,30
1766015958.6699562,29
1766015958.669961,30
1766015958.669966,29
1766015958.669971,28
1766015958.669976,32
1766015958.6699798,30
1766015958.669985,31
1766015958.6699898,29
1766015958.669996,31
1766015958.670002,30
1766015958.670007,28
1766015958.670012,27
1766015958.670017,27
1766015958.670021,27
1766015958.670026,27
1766015958.670031,30
1766015958.670036,28
1766015958.670041,28
1766015958.6700459,29
1766015958.6700501,29
1766015958.670055,29
1766015958.67006,29
1766015958.670065,27
1766015958.67007,26
1766015958.670075,27
1766015958.670079,28
1766015958.670084,27
1766015958.670089,31
1766015958.670094,29
1766015958.670099,27
1766015958.670104,28
1766015958.670109,28
1766015958.670113,28
1766015958.6701179,26
1766015958.670123,29
1766015958.670128,28
1766015958.6701329,28
1766015958.6701372,27
1766015958.670142,29
1766015958.6701472,29
1766015958.670152,27
1766015958.6701581,27
1766015958.6701639,27
1766015958.670169,29
1766015958.670174,28
1766015958.6701791,28
1766015958.670183,28
1766015958.670188,27
1766015958.670193,28
1766015958.670198,29
1766015958.670203,30
1766015958.670208,31
1766015958.670212,27
1766015958.670217,30
1766015958.670222,27
1766015958.670227,29
1766015958.670231,30
1766015958.6702359,29
1766015958.670241,28
1766015958.670246,31
1766015958.67025,27
1766015958.6702552,29
1766015958.67026,30
1766015958.6702652,28
1766015958.670269,29
1766015958.670274,31
1766015958.670279,29
1766015958.670284,29
1766015958.6702888,30
1766015958.670294,31
1766015958.670298,31
1766015958.6703029,32
1766015958.670308,31
1766015958.670313,31
1766015958.6703172,27
1766015958.670324,30
1766015958.670329,30
1766015958.6703339,31
1766015958.670339,30
1766015958.6703439,27
1766015958.670348,31
1766015958.670353,32
1766015958.670358,33
1766015958.670363,28
1766015958.670367,34
1766015958.670372,29
1766015958.670377,28
1766015958.670382,29
1766015958.670387,30
1766015958.670391,32
1766015958.6703959,29
1766015958.670401,32
1766015958.6704059,31
1766015958.670411,27
1766015958.6704159,31
1766015958.67042,32
1766015958.6704252,30
1766015958.67043,30
1766015958.6704352,30
1766015958.67044,31
1766015958.670445,33
1766015958.6704488,29
1766015958.670454,31
1766015958.6704588,31
1766015958.670464,29
1766015958.670469,30
1766015958.670474,31
1766015958.670478,29
1766015958.670485,31
1766015958.67049,32
1766015958.670495,32
1766015958.6705,31
1766015958.670505,31
1766015958.67051,31
1766015958.6705139,28
1766015958.670519,29
1766015958.670524,29
1766015958.6705332,30
1766015958.670538,31
1766015958.670542,30
1766015958.670547,28
1766015958.670552,30
1766015958.670557,32
1766015958.670562,27
1766015958.6705658,30
1766015958.670571,30
1766015958.670576,31
1766015958.670581,31
1766015958.670586,31
1766015958.6705909,27
1766015958.6705952,29
1766015958.6706,34
1766015958.670605,27
1766015958.67061,31
1766015958.670614,31
1766015958.6706188,28
1766015958.670624,30
1766015958.670629,30
1766015958.670634,28
1766015958.670639,29
1766015958.6706429,28
1766015958.670648,30
1766015958.670655,30
1766015958.67066,31
1766015958.670665,28
1766015958.67067,29
1766015958.670675,29
1766015958.67068,29
1766015958.6706839,29
1766015958.670689,30
1766015958.6706939,29
1766015958.6706991,30
1766015958.6707041,30
1766015958.670708,29
1766015958.6707132,30
1766015958.670718,31
1766015958.670723,29
1766015958.670727,33
1766015958.670732,31
1766015958.6707368,32
1766015958.670742,30
1766015958.6707468,31
1766015958.670752,31
1766015958.670756,29
1766015958.6707609,30
1766015958.670766,29
1766015958.670771,30
1766015958.6707761,32
1766015958.67078,28
1766015958.670785,28
1766015958.67079,29
1766015958.670795,32
1766015958.6708,29
1766015958.670805,33
1766015958.670809,31
1766015958.670815,30
1766015958.6708212,28
1766015958.670826,30
1766015958.6708312,31
1766015958.670836,29
1766015958.670841,29
1766015958.670845,28
1766015958.67085,31
1766015958.6708548,30
1766015958.67086,29
1766015958.6708639,31
1766015958.6708689,28
1766015958.670874,30
1766015958.670879,30
1766015958.6708841,30
1766015958.670888,30
1766015958.670893,32
1766015958.670898,27
1766015958.670903,30
1766015958.670908,28
1766015958.670912,29
1766015958.670917,28
1766015958.670922,29
1766015958.670927,28
1766015958.670932,27
1766015958.670936,30
1766015958.6709409,31
1766015958.6709461,30
1766015958.670951,28
1766015958.6709561,28
1766015958.6709602,31
1766015958.670965,28
1766015958.6709702,30
1766015958.670975,28
1766015958.6709812,28
1766015958.670987,31
1766015958.6709912,30
1766015958.670996,28
1766015958.6710012,30
1766015958.671006,29
1766015958.67101,31
1766015958.671015,29
1766015958.67102,29
1766015958.6710248,30
1766015958.671029,29
1766015958.671034,31
1766015958.6710389,30
1766015958.671044,29
1766015958.6710489,30
1766015958.6710532,32
1766015958.671058,26
1766015958.671082,28
1766015958.671102,27
1766015958.67111,27
1766015958.671115,26
1766015958.67112,29
1766015958.671125,26
1766015958.6711302,26
1766015958.671135,30
1766015958.6711402,30
1766015958.671145,28
1766015958.67115,28
1766015958.671155,27
1766015958.67116,25
1766015958.671199,29
1766015958.671235,31
1766015958.6712399,26
1766015958.671247,29
1766015958.671253,26
1766015958.6712582,30
1766015958.671263,27
1766015958.671268,29
1766015958.671273,28
1766015958.671278,27
1766015958.671283,25
1766015958.671288,28
1766015958.671293,26
1766015958.671298,27
1766015958.6713028,24
1766015958.671308,29
1766015958.6713119,28
1766015958.671336,26
1766015958.671347,27
1766015958.671357,28
1766015958.671367,27
1766015958.671377,29
1766015958.671387,24
1766015958.6713972,27
1766015958.6714072,26
1766015958.6714182,29
1766015958.6714282,27
1766015958.671438,25
1766015958.671448,25
1766015958.671458,28
1766015958.671469,25
1766015958.6714811,28
1766015958.6714911,26
1766015958.6715012,26
1766015958.671511,29
1766015958.671521,28
1766015958.671531,29
1766015958.671545,26
1766015958.671562,28
1766015958.671568,29
1766015958.671572,25
1766015958.671577,25
1766015958.671582,27
1766015958.6715882,25
1766015958.671592,25
1766015958.671597,26
1766015958.671602,24
1766015958.671607,30
1766015958.6716118,22
1766015958.671617,28
1766015958.671621,27
1766015958.671626,25
1766015958.671631,28
1766015958.6716359,25
1766015958.671641,23
1766015958.671645,25
1766015958.67165,27
1766015958.671655,24
1766015958.67166,26
1766015958.671665,27
1766015958.67167,27
1766015958.671675,26
1766015958.67168,27
1766015958.671684,27
1766015958.67169,24
1766015958.671695,24
1766015958.671699,24
1766015958.671704,30
1766015958.6717088,27
1766015958.671715,28
1766015958.671721,25
1766015958.671726,26
1766015958.671731,28
1766015958.671736,24
1766015958.671741,26
1766015958.671746,27
1766015958.6717498,30
1766015958.671755,25
1766015958.6717598,26
1766015958.671765,26
1766015958.67177,25
1766015958.6717749,25
1766015958.6717792,24
1766015958.671784,27
1766015958.6717892,26
1766015958.671794,24
1766015958.671799,26
1766015958.671803,28
1766015958.671808,28
1766015958.671813,27
1766015958.671818,27
1766015958.671823,28
1766015958.6718369,26
1766015958.671842,30
1766015958.6718469,27
1766015958.671852,24
1766015958.6718569,28
1766015958.6718621,25
1766015958.6718662,24
1766015958.671871,27
1766015958.6718762,24
1766015958.671881,26
1766015958.671886,26
1766015958.671892,25
1766015958.6718981,24
1766015958.671903,28
1766015958.6719081,27
1766015958.671913,23
1766015958.671917,26
1766015958.671922,23
1766015958.671927,25
1766015958.671932,28
1766015958.671937,27
1766015958.671942,24
1766015958.671947,26
1766015958.6719518,24
1766015958.671956,27
1766015958.671961,27
1766015958.6719658,27
1766015958.671971,27
1766015958.6719759,27
1766015958.671981,26
1766015958.6719859,23
1766015958.67199,26
1766015958.671995,25
1766015958.672,23
1766015958.6720052,27
1766015958.672009,28
1766015958.672014,28
1766015958.672019,25
1766015958.672024,28
1766015958.672029,26
1766015958.672034,28
1766015958.6720388,27
1766015958.672044,22
1766015958.672048,24
1766015958.672053,27
1766015958.672058,26
1766015958.6720629,25
1766015958.672068,24
1766015958.672073,22
1766015958.672077,22
1766015958.672082,26
1766015958.672087,23
1766015958.672092,27
1766015958.672097,26
1766015958.672102,23
1766015958.672107,25
1766015958.672111,27
1766015958.672116,24
1766015958.672121,24
1766015958.672126,24
1766015958.672131,25
1766015958.6721349,26
1766015958.6721401,23
1766015958.672145,22
1766015958.6721501,28
1766015958.672155,24
1766015958.67216,22
1766015958.6721642,26
1766015958.672169,25
1766015958.672174,24
1766015958.672179,27
1766015958.672184,22
1766015958.672189,27
1766015958.672194,28
1766015958.672199,26
1766015958.672203,23
1766015958.6722078,26
1766015958.672213,25
1766015958.672218,24
1766015958.672223,25
1766015958.672228,24
1766015958.6722329,27
1766015958.672238,27
1766015958.6722429,22
1766015958.672247,25
1766015958.672252,25
1766015958.672257,25
1766015958.672262,27
1766015958.672267,28
1766015958.672272,27
1766015958.672276,24
1766015958.672281,27
1766015958.672286,25
1766015958.672291,26
1766015958.672296,27
1766015958.672301,25
1766015958.6723058,29
1766015958.67231,23
1766015958.672315,25
1766015958.67232,27
1766015958.6723251,25
1766015958.67233,25
1766015958.6723342,25
1766015958.672339,27
1766015958.672344,23
1766015958.672349,27
1766015958.672354,24
1766015958.6723578,24
1766015958.672363,25
1766015958.672368,24
1766015958.672373,27
1766015958.672378,28
1766015958.672383,27
1766015958.672388,26
1766015958.672392,25
1766015958.6723971,24
1766015958.672402,28
1766015958.6724072,24
1766015958.672412,24
1766015958.672417,25
1766015958.672422,26
1766015958.672426,24
1766015958.672431,24
1766015958.672436,26
1766015958.672441,24
1766015958.672446,28
1766015958.672451,25
1766015958.672456,26
1766015958.67246,23
1766015958.6724648,25
1766015958.67247,26
1766015958.6724749,27
1766015958.67248,25
1766015958.6724842,25
1766015958.672489,28
1766015958.6724942,25
1766015958.672499,25
1766015958.672504,23
1766015958.672509,27
1766015958.672514,24
1766015958.672519,26
1766015958.672523,25
1766015958.6725278,25
1766015958.672533,25
1766015958.672538,25
1766015958.672543,26
1766015958.672547,26
1766015958.6725519,27
1766015958.672557,26
1766015958.672562,26
1766015958.6725671,28
1766015958.672571,23
1766015958.672576,27
1766015958.6725812,25
1766015958.672586,27
1766015958.6725912,24
1766015958.672596,25
1766015958.6726,24
1766015958.672605,23
1766015958.67261,22
1766015958.6726148,25
1766015958.67262,27
1766015958.6726248,23
1766015958.67263,23
1766015958.6726348,23
1766015958.67264,26
1766015958.6726441,24
1766015958.672649,23
1766015958.6726542,21
1766015958.672659,23
1766015958.6726642,25
1766015958.672669,19
1766015958.672674,22
1766015958.672679,24
1766015958.672683,22
1766015958.6726882,22
1766015958.672693,24
1766015958.672698,21
1766015958.672703,23
1766015958.672707,24
1766015958.6727118,20
1766015958.672717,26
1766015958.6727219,23
1766015958.672727,23
1766015958.6727319,23
1766015958.672736,23
1766015958.6727412,23
1766015958.672746,24
1766015958.6727512,22
1766015958.672756,22
1766015958.6727612,22
1766015958.672765,21
1766015958.67277,23
1766015958.672775,25
1766015958.67278,22
1766015958.6727848,22
1766015958.67279,21
1766015958.6727948,22
1766015958.6727989,23
1766015958.672804,22
1766015958.672809,21
1766015958.6728141,23
1766015958.672819,22
1766015958.6728241,22
1766015958.672829,22
1766015958.672833,21
1766015958.672838,21
1766015958.672843,24
1766015958.672848,20
1766015958.672853,24
1766015958.672857,20
1766015958.672862,20
1766015958.672867,22
1766015958.6728718,22
1766015958.672877,19
1766015958.672881,25
1766015958.6728861,25
1766015958.672891,23
1766015958.672896,21
1766015958.6729012,23
1766015958.672906,22
1766015958.67291,21
1766015958.672915,22
1766015958.67292,21
1766015958.672925,23
1766015958.67293,23
1766015958.672935,21
1766015958.672939,20
1766015958.672944,24
1766015958.672949,21
1766015958.672954,22
1766015958.672959,22
1766015958.672964,23
1766015958.672968,23
1766015958.6729732,23
1766015958.672978,21
1766015958.672983,21
1766015958.672988,23
1766015958.672993,23
1766015958.6729972,25
1766015958.673002,21
1766015958.673007,20
1766015958.673012,23
1766015958.673017,21
1766015958.6730208,21
1766015958.673026,24
1766015958.6730309,22
1766015958.6736739,21
1766015958.674758,21
1766015958.675714,23
1766015958.6766982,23
1766015958.677718,18
1766015958.678688,21
1766015958.679662,21
1766015958.6806679,23
1766015958.68168,23
1766015958.6827,22
1766015958.683703,19
1766015958.684696,22
1766015958.685699,25
1766015958.686697,21
1766015958.687718,22
1766015958.6887958,21
1766015958.689769,22
1766015958.6907148,20
1766015958.6917279,21
1766015958.692693,22
1766015958.693713,18
1766015958.6947289,21
1766015958.6957262,23
1766015958.696724,20
1766015958.6977248,22
1766015958.698729,23
1766015958.699743,19
1766015958.700723,24
1766015958.701728,23
1766015958.702741,21
1766015958.70374,19
1766015958.704733,22
1766015958.705765,20
1766015958.7067761,22
1766015958.70776,22
1766015958.7087529,21
1766015958.709771,23
1766015958.710761,20
1766015958.711811,20
1766015958.712807,20
1766015958.713799,18
1766015958.714758,21
1766015958.715806,21
1766015958.716795,23
1766015958.717876,22
1766015958.718884,20
1766015958.719878,23
1766015958.7208772,22
1766015958.721878,20
1766015958.722873,24
1766015958.723883,21
1766015958.724876,23
1766015958.725878,22
1766015958.726874,22
1766015958.7278771,23
1766015958.728874,20
1766015958.729878,19
1766015958.7308748,21
1766015958.731874,19
1766015958.732874,21
1766015958.7338712,21
1766015958.734879,22
1766015958.735882,21
1766015958.7368839,20
1766015958.737875,24
1766015958.7388742,22
1766015958.739875,23
1766015958.740885,21
1766015958.741905,21
1766015958.7428732,22
1766015958.7438772,21
1766015958.744875,20
1766015958.7459059,24
1766015958.7468648,21
1766015958.7478871,23
1766015958.7488809,21
1766015958.749865,24
1766015958.750863,21
1766015958.75187,23
1766015958.7528782,24
1766015958.753901,20
1766015958.7548952,18
1766015958.7558951,23
1766015958.756861,21
1766015958.757887,22
1766015958.7589471,23
1766015958.759886,21
1766015958.760897,22
1766015958.761912,21
1766015958.762898,24
1766015958.763902,24
1766015958.764896,20
1766015958.765919,20
1766015958.766915,21
1766015958.767925,22
1766015958.7689269,22
1766015958.769925,22
1766015958.770933,23
1766015958.7719119,22
1766015958.772927,21
1766015958.773942,21
1766015958.774951,23
1766015958.775956,21
1766015958.776959,23
1766015958.777956,23
1766015958.778951,23
1766015958.779954,21
1766015958.7809558,20
1766015958.7819588,24
1766015958.7829719,20
1766015958.783968,23
1766015958.7849689,21
1766015958.785967,24
1766015958.7869701,20
1766015958.78797,21
1766015958.7889678,22
1766015958.78999,21
1766015958.7910001,22
1766015958.7919989,21
1766015958.7929869,21
1766015958.793986,21
1766015958.795051,22
1766015958.796014,21
1766015958.7970188,21
1766015958.7980192,23
1766015958.7990248,24
1766015958.800013,22
1766015958.801014,23
1766015958.8020248,23
1766015958.803034,22
1766015958.804031,22
1766015958.805038,21
1766015958.8060439,21
1766015958.807078,23
1766015958.808018,22
1766015958.809039,21
1766015958.810039,20
1766015958.811084,23
1766015958.812056,21
1766015958.813062,23
1766015958.814062,22
1766015958.8150568,22
1766015958.816062,22
1766015958.817067,20
1766015958.818064,21
1766015958.819065,21
1766015958.8200629,17
1766015958.8210602,22
1766015958.8220742,21
1766015958.823072,21
1766015958.824076,23
1766015958.825094,23
1766015958.826079,24
1766015958.827081,25
1766015958.8281422,24
1766015958.8290932,24
1766015958.830109,23
1766015958.8311522,26
1766015958.832118,22
1766015958.833097,23
1766015958.834112,21
1766015958.835114,23
1766015958.836122,24
1766015958.837162,20
1766015958.838094,22
1766015958.8391,23
1766015958.840123,23
1766015958.841121,21
1766015958.8421361,22
1766015958.84313,21
1766015958.844138,25
1766015958.845133,24
1766015958.846136,24
1766015958.847158,23
1766015958.848147,25
1766015958.8491468,23
1766015958.850164,21
1766015958.8511622,26
1766015958.85216,21
1766015958.853185,23
1766015958.854167,26
1766015958.855171,23
1766015958.8561778,24
1766015958.8571808,23
1766015958.858179,23
1766015958.8591812,26
1766015958.860203,22
1766015958.8611798,23
1766015958.862187,26
1766015958.8631868,22
1766015958.864233,20
1766015958.86518,23
1766015958.8662012,22
1766015958.867243,21
1766015958.8682399,24
1766015958.869222,22
1766015958.870219,24
1766015958.8712409,21
1766015958.872237,20
1766015958.87325,25
1766015958.8742,24
1766015958.875221,21
1766015958.876226,22
1766015958.877246,25
1766015958.878248,24
1766015958.879224,21
1766015958.8802402,23
1766015958.881251,22
1766015958.882241,19
1766015958.883223,24
1766015958.88424,25
1766015958.8852391,24
1766015958.8862479,23
1766015958.8872802,24
1766015958.888269,20
1766015958.8892689,21
1766015958.890274,20
1766015958.8912761,23
1766015958.8922691,21
1766015958.893269,24
1766015958.894293,22
1766015958.895277,27
1766015958.896281,22
1766015958.897281,20
1766015958.8982852,24
1766015958.8992808,21
1766015958.900286,23
1766015958.901313,25
1766015958.9023218,25
1766015958.903305,21
1766015958.904309,19
1766015958.905309,22
1766015958.906324,22
1766015958.907321,23
1766015958.9083111,24
1766015958.9093308,23
1766015958.9103181,21
1766015958.911328,20
1766015958.91233,23
1766015958.913325,23
1766015958.914329,22
1766015958.915327,23
1766015958.916375,22
1766015958.917366,23
1766015958.918349,22
1766015958.919331,18
1766015958.920337,24
1766015958.9213781,23
1766015958.9223611,21
1766015958.9233458,21
1766015958.9243531,20
1766015958.925348,23
1766015958.926373,22
1766015958.9273548,23
1766015958.9283588,19
1766015958.929386,24
1766015958.930381,18
1766015958.931371,21
1766015958.93236,22
1766015958.93337,24
1766015958.934392,24
1766015958.935372,22
1766015958.9363708,20
1766015958.937391,23
1766015958.938418,22
1766015958.9393861,24
1766015958.940403,20
1766015958.941411,19
1766015958.942396,21
1766015958.943398,20
1766015958.944404,18
1766015958.9454238,22
1766015958.946439,23
1766015958.947433,20
1766015958.948417,23
1766015958.94942,21
1766015958.9504168,23
1766015958.9514308,21
1766015958.952424,21
1766015958.9534311,21
1766015958.9544551,23
1766015958.955518,20
1766015958.956497,21
1766015958.9574761,23
1766015958.958466,22
1766015958.95947,23
1766015958.960463,22
1766015958.9614542,24
1766015958.962479,22
1766015958.963474,20
1766015958.964463,24
1766015958.96546,22
1766015958.966481,22
1766015958.967493,20
1766015958.968479,20
1766015958.969478,19
1766015958.970498,23
1766015958.971493,20
1766015958.9724958,24
1766015958.973491,20
1766015958.974497,24
1766015958.975501,22
1766015958.9765189,22
1766015958.977501,21
1766015958.978525,23
1766015958.9795241,22
1766015958.9805372,23
1766015958.9815192,23
1766015958.982526,21
1766015958.98352,19
1766015958.9845388,22
1766015958.9855301,23
1766015958.9865332,23
1766015958.98755,22
1766015958.988555,22
1766015958.989535,23
1766015958.9905338,18
1766015958.991564,17
1766015958.992558,21
1766015958.993551,23
1766015958.99455,19
1766015958.995569,17
1766015958.996568,24
1766015958.997557,20
1766015958.998571,21
1766015958.999577,19
1766015959.000575,24
1766015959.001579,22
1766015959.0026062,22
1766015959.0035882,20
1766015959.0046048,23
1766015959.005593,22
1766015959.006581,24
1766015959.007589,23
1766015959.00859,19
1766015959.0096178,24
1766015959.010607,20
1766015959.011598,19
1766015959.012619,21
1766015959.013622,20
1766015959.014621,23
1766015959.0156212,20
1766015959.016639,23
1766015959.017635,21
1766015959.018633,20
1766015959.019627,23
1766015959.0206468,20
1766015959.021662,21
1766015959.022644,22
1766015959.023652,20
1766015959.0246542,21
1766015959.025661,21
1766015959.026657,21
1766015959.027648,22
1766015959.028668,22
1766015959.029696,23
1766015959.030669,21
1766015959.031668,20
1766015959.032692,21
1766015959.03373,23
1766015959.0346859,21
1766015959.0356932,21
1766015959.036682,21
1766015959.0377028,24
1766015959.038692,21
1766015959.039704,21
1766015959.0407062,21
1766015959.041705,19
1766015959.0427048,21
1766015959.0436969,19
1766015959.044702,20
1766015959.0457249,22
1766015959.046724,17
1766015959.047714,21
1766015959.0487108,21
1766015959.049738,23
1766015959.0507278,22
1766015959.051733,19
1766015959.0527549,23
1766015959.05374,22
1766015959.054752,22
1766015959.05576,22
1766015959.0567832,21
1766015959.057772,20
1766015959.058784,25
1766015959.059754,21
1766015959.060742,23
1766015959.061814,22
1766015959.062797,21
1766015959.0637891,22
1766015959.0647511,23
1766015959.065789,20
1766015959.066786,18
1766015959.067862,24
1766015959.0687768,23
1766015959.069858,23
1766015959.0708559,23
1766015959.071862,23
1766015959.0728629,23
1766015959.073867,21
1766015959.0748951,23
1766015959.075896,23
1766015959.076896,20
1766015959.077867,23
1766015959.078858,22
1766015959.079896,20
1766015959.080874,21
1766015959.0819032,22
1766015959.082902,21
1766015959.0838962,23
1766015959.0849211,20
1766015959.0858922,20
1766015959.086902,22
1766015959.0878878,23
1766015959.088918,23
1766015959.089876,26
1766015959.09091,23
1766015959.0918899,21
1766015959.092905,20
1766015959.0938911,21
1766015959.094902,23
1766015959.095896,24
1766015959.096896,20
1766015959.097888,22
1766015959.098903,23
1766015959.099916,23
1766015959.100898,21
1766015959.10187,17
1766015959.102858,22
1766015959.103904,21
1766015959.104911,22
1766015959.105896,23
1766015959.106926,20
1766015959.107931,21
1766015959.108911,22
1766015959.109898,24
1766015959.1108968,22
1766015959.111935,21
1766015959.1129432,19
1766015959.113931,21
1766015959.114901,23
1766015959.115927,18
1766015959.116948,26
1766015959.117923,21
1766015959.1189399,21
1766015959.11995,24
1766015959.120909,20
1766015959.121911,23
1766015959.1229298,21
1766015959.123946,24
1766015959.124917,21
1766015959.125949,23
1766015959.126945,21
1766015959.127929,22
1766015959.128979,20
1766015959.129975,19
1766015959.130947,24
1766015959.131972,21
1766015959.1329741,23
1766015959.133995,18
1766015959.13495,25
1766015959.135954,19
1766015959.136978,22
1766015959.13801,20
1766015959.138957,21
1766015959.139999,20
1766015959.140958,20
1766015959.141999,21
1766015959.143008,21
1766015959.144032,21
1766015959.144972,24
1766015959.1460311,24
1766015959.1470249,24
1766015959.1480021,20
1766015959.149034,21
1766015959.15,22
1766015959.151041,19
1766015959.151996,22
1766015959.153044,20
1766015959.154028,21
1766015959.155057,21
1766015959.156014,19
1766015959.157047,25
1766015959.158062,22
1766015959.1590679,23
1766015959.160077,20
1766015959.161024,20
1766015959.16209,19
1766015959.163072,21
1766015959.164077,21
1766015959.16508,21
1766015959.16609,26
1766015959.167094,22
1766015959.168103,19
1766015959.169066,20
1766015959.170112,21
1766015959.171086,22
1766015959.172104,22
1766015959.173095,21
1766015959.174068,20
1766015959.175105,20
1766015959.176163,22
1766015959.17717,24
1766015959.1781461,23
1766015959.1791942,20
1766015959.180157,24
1766015959.181205,22
1766015959.182178,22
1766015959.183219,20
1766015959.1841762,23
1766015959.1852071,26
1766015959.1862059,21
1766015959.1872041,20
1766015959.1881778,23
1766015959.189214,21
1766015959.190183,21
1766015959.191226,23
1766015959.1921961,22
1766015959.1932318,23
1766015959.1941571,24
1766015959.1952262,23
1766015959.196199,23
1766015959.197244,21
1766015959.19824,20
1766015959.199251,23
1766015959.200255,21
1766015959.201243,22
1766015959.202165,24
1766015959.203202,22
1766015959.2042508,22
1766015959.205261,22
1766015959.206259,21
1766015959.207242,20
1766015959.208265,22
1766015959.209266,24
1766015959.210264,22
1766015959.2112682,23
1766015959.2122428,22
1766015959.213232,23
1766015959.2142668,20
1766015959.215223,22
1766015959.2162921,21
1766015959.217227,22
1766015959.218289,23
1766015959.2192252,18
1766015959.2202659,23
1766015959.22123,22
1766015959.222292,24
1766015959.223247,19
1766015959.224302,21
1766015959.225245,21
1766015959.226295,23
1766015959.227256,22
1766015959.228312,19
1766015959.229314,26
1766015959.230314,21
1766015959.231301,20
1766015959.232314,22
1766015959.233294,21
1766015959.234338,24
1766015959.2352839,21
1766015959.236341,23
1766015959.237314,21
1766015959.238347,21
1766015959.239316,20
1766015959.240354,22
1766015959.24133,18
1766015959.242348,19
1766015959.2433422,22
1766015959.244351,21
1766015959.245331,19
1766015959.2463691,23
1766015959.2473621,24
1766015959.248384,21
1766015959.249363,24
1766015959.2503328,23
1766015959.251379,19
1766015959.2523808,23
1766015959.25336,20
1766015959.2543948,24
1766015959.255383,24
1766015959.256404,21
1766015959.257375,22
1766015959.2583911,25
1766015959.2594078,24
1766015959.2604318,21
1766015959.261415,22
1766015959.262399,21
1766015959.263394,20
1766015959.264395,23
1766015959.265405,21
1766015959.26643,25
1766015959.2674172,23
1766015959.268435,20
1766015959.269402,21
1766015959.270428,21
1766015959.2714171,25
1766015959.272432,23
1766015959.273441,20
1766015959.274415,22
1766015959.2753532,21
1766015959.276392,20
1766015959.2774558,20
1766015959.278445,22
1766015959.279447,20
1766015959.2804532,20
1766015959.281465,19
1766015959.2824562,22
1766015959.283465,23
1766015959.2844741,22
1766015959.285459,23
1766015959.286474,22
1766015959.287472,23
1766015959.288453,20
1766015959.289439,22
1766015959.290465,21
1766015959.291479,22
1766015959.2924569,21
1766015959.293462,21
1766015959.2944572,19
1766015959.2955,23
1766015959.296489,20
1766015959.2974951,24
1766015959.2984908,22
1766015959.299514,18
1766015959.300488,21
1766015959.301516,22
1766015959.302489,22
1766015959.303512,22
1766015959.304519,20
1766015959.3055391,21
1766015959.3065028,20
1766015959.307536,22
1766015959.308508,24
1766015959.309526,22
1766015959.310524,21
1766015959.311521,20
1766015959.312528,21
1766015959.313525,21
1766015959.314559,20
1766015959.315547,23
1766015959.3165371,20
1766015959.317555,19
1766015959.3185222,21
1766015959.319511,21
1766015959.3205628,22
1766015959.321558,23
1766015959.3225658,23
1766015959.3235688,21
1766015959.324539,24
1766015959.325599,23
1766015959.326574,24
1766015959.327581,23
1766015959.328563,20
1766015959.329563,22
1766015959.330556,25
1766015959.331558,22
1766015959.332605,21
1766015959.333576,20
1766015959.334591,22
1766015959.335593,18
1766015959.336608,23
1766015959.3375921,21
1766015959.338597,24
1766015959.339605,22
1766015959.340606,23
1766015959.3416011,22
1766015959.342582,23
1766015959.3435898,24
1766015959.3445911,22
1766015959.3456168,19
1766015959.346625,23
1766015959.347601,25
1766015959.348599,22
1766015959.349628,27
1766015959.350643,24
1766015959.3516412,20
1766015959.3526359,26
1766015959.353638,21
1766015959.354639,20
1766015959.3556402,26
1766015959.356653,21
1766015959.3576572,21
1766015959.358669,25
1766015959.359665,23
1766015959.36066,21
1766015959.361658,22
1766015959.362664,22
1766015959.363671,21
1766015959.364675,21
1766015959.365674,22
1766015959.3666701,21
1766015959.3676622,23
1766015959.368683,20
1766015959.369659,22
1766015959.370682,18
1766015959.371687,20
1766015959.372697,22
1766015959.373698,24
1766015959.374699,23
1766015959.3757062,22
1766015959.3766882,23
1766015959.377675,25
1766015959.378703,18
1766015959.37971,23
1766015959.380717,21
1766015959.381712,22
1766015959.382721,21
1766015959.38371,23
1766015959.3847659,22
1766015959.3857238,20
1766015959.3867,20
1766015959.387718,23
1766015959.388735,21
1766015959.3897228,20
1766015959.3906932,22
1766015959.391723,20
1766015959.3927171,22
1766015959.393705,23
1766015959.394746,23
1766015959.395714,20
1766015959.39675,22
1766015959.3977191,19
1766015959.39875,25
1766015959.399719,20
1766015959.4007528,21
1766015959.401717,18
1766015959.402741,20
1766015959.403765,19
1766015959.4047492,22
1766015959.405756,21
1766015959.406774,23
1766015959.407789,21
1766015959.408791,21
1766015959.409805,20
1766015959.4107862,20
1766015959.4117749,23
1766015959.4127848,18
1766015959.4137542,19
1766015959.4147992,20
1766015959.41579,22
1766015959.416811,21
1766015959.417814,20
1766015959.4188108,21
1766015959.419768,25
1766015959.420827,21
1766015959.4218209,21
1766015959.422903,22
1766015959.423906,22
1766015959.424906,24
1766015959.425909,23
1766015959.426913,22
1766015959.427893,23
1766015959.428915,22
1766015959.4299,23
1766015959.430909,23
1766015959.4318972,24
1766015959.4328809,22
1766015959.4339042,26
1766015959.434911,20
1766015959.43591,20
1766015959.436908,21
1766015959.437898,21
1766015959.438901,21
1766015959.4399118,23
1766015959.440976,23
1766015959.441927,21
1766015959.44291,22
1766015959.443914,23
1766015959.44492,18
1766015959.445908,18
1766015959.44691,23
1766015959.447909,24
1766015959.448908,23
1766015959.449909,23
1766015959.450907,20
1766015959.451905,22
1766015959.452906,20
1766015959.4539,21
1766015959.454905,22
1766015959.455914,21
1766015959.456911,22
1766015959.457914,25
1766015959.458914,25
1766015959.4599218,24
1766015959.460926,23
1766015959.461932,23
1766015959.4629278,18
1766015959.463928,24
1766015959.46493,22
1766015959.465943,24
1766015959.466947,20
1766015959.467956,23
1766015959.46896,24
1766015959.4699478,25
1766015959.4709692,23
1766015959.471956,21
1766015959.4729679,19
1766015959.473968,22
1766015959.474976,25
1766015959.4759822,25
1766015959.476963,21
1766015959.477985,20
1766015959.47898,25
1766015959.479987,24
1766015959.480991,23
1766015959.4819908,20
1766015959.4829912,23
1766015959.4839869,23
1766015959.485016,22
1766015959.485992,26
1766015959.486995,21
1766015959.488021,20
1766015959.489023,22
1766015959.490017,23
1766015959.4910169,20
1766015959.492019,25
1766015959.493022,24
1766015959.494024,24
1766015959.495039,21
1766015959.496022,23
1766015959.4970329,22
1766015959.498036,23
1766015959.499059,22
1766015959.500046,25
1766015959.501029,24
1766015959.502044,22
1766015959.5030441,21
1766015959.504063,25
1766015959.5050619,21
1766015959.506071,23
1766015959.5070689,23
1766015959.508063,22
1766015959.509067,25
1766015959.510087,19
1766015959.511075,24
1766015959.512079,21
1766015959.513084,22
1766015959.5140889,22
1766015959.515085,22
1766015959.5160809,24
1766015959.5170848,23
1766015959.5180979,24
1766015959.519101,25
1766015959.5201018,21
1766015959.5211,23
1766015959.5220978,22
1766015959.523115,21
1766015959.5241091,22
1766015959.525098,23
1766015959.526124,24
1766015959.527126,25
1766015959.528123,21
1766015959.5291321,23
1766015959.530132,22
1766015959.531122,21
1766015959.532148,23
1766015959.5331311,24
1766015959.534135,23
1766015959.535146,24
1766015959.536157,23
1766015959.537152,20
1766015959.53817,23
1766015959.539156,23
1766015959.5401611,22
1766015959.541164,23
1766015959.5421922,22
1766015959.543231,21
1766015959.544197,21
1766015959.545213,23
1766015959.546185,19
1766015959.553084,22
1766015959.553108,23
1766015959.5531242,22
1766015959.553174,24
1766015959.553192,26
1766015959.553209,25
1766015959.5532238,23
1766015959.554257,20
1766015959.555207,24
1766015959.556212,23
1766015959.557195,21
1766015959.558177,23
1766015959.5591848,22
1766015959.5601869,25
1766015959.5611808,24
1766015959.562198,23
1766015959.563172,23
1766015959.564173,20
1766015959.565181,22
1766015959.5661771,21
1766015959.567178,21
1766015959.568189,18
1766015959.5691898,22
1766015959.570175,20
1766015959.571198,23
1766015959.5722518,21
1766015959.57324,22
1766015959.574243,25
1766015959.575268,24
1766015959.576257,24
1766015959.577264,24
1766015959.578279,24
1766015959.579273,23
1766015959.580269,20
1766015959.58128,24
1766015959.582282,23
1766015959.583277,22
1766015959.584266,23
1766015959.5852952,23
1766015959.586276,25
1766015959.587299,22
1766015959.5883179,20
1766015959.589312,21
1766015959.590306,23
1766015959.5913222,24
1766015959.592297,25
1766015959.593318,22
1766015959.594309,23
1766015959.5953019,23
1766015959.596304,25
1766015959.5973198,23
1766015959.598318,22
1766015959.599324,22
1766015959.6003141,19
1766015959.601302,23
1766015959.602324,24
1766015959.603344,21
1766015959.604357,20
1766015959.605377,20
1766015959.6063502,20
1766015959.607348,23
1766015959.608342,22
1766015959.609335,22
1766015959.610377,20
1766015959.611328,21
1766015959.612347,19
1766015959.613361,25
1766015959.614356,23
1766015959.615405,22
1766015959.6163929,22
1766015959.6173801,23
1766015959.61839,22
1766015959.6193879,22
1766015959.6203709,21
1766015959.621393,22
1766015959.622407,23
1766015959.6233358,24
1766015959.624374,24
1766015959.625371,26
1766015959.626374,24
1766015959.627368,24
1766015959.628365,23
1766015959.629369,21
1766015959.630373,25
1766015959.631388,26
1766015959.6323578,24
1766015959.6333718,24
1766015959.634376,21
1766015959.63539,23
1766015959.6363678,22
1766015959.637394,19
1766015959.6383932,22
1766015959.639405,23
1766015959.6403992,22
1766015959.641406,24
1766015959.64239,24
1766015959.643399,25
1766015959.644414,21
1766015959.645403,19
1766015959.646416,24
1766015959.6474109,23
1766015959.648426,26
1766015959.649467,23
1766015959.650469,21
