timestamp,emg_value
1766015981.086241,25
1766015981.086247,23
1766015981.086252,21
1766015981.086257,22
1766015981.086262,24
1766015981.086268,23
1766015981.086273,25
1766015981.086278,21
1766015981.086282,20
1766015981.086287,21
1766015981.086292,20
1766015981.086297,24
1766015981.0863008,21
1766015981.086306,25
1766015981.08631,24
1766015981.086314,22
1766015981.0863192,21
1766015981.086323,21
1766015981.086328,23
1766015981.0863318,24
1766015981.086336,19
1766015981.0863411,22
1766015981.086345,22
1766015981.08635,23
1766015981.086354,22
1766015981.086359,21
1766015981.0863628,22
1766015981.086368,21
1766015981.0863721,21
1766015981.086376,22
1766015981.0863822,22
1766015981.0863879,24
1766015981.086397,21
1766015981.086406,21
1766015981.086411,20
1766015981.0864158,23
1766015981.086421,25
1766015981.086425,20
1766015981.0864298,25
1766015981.086435,25
1766015981.0864398,20
1766015981.086445,22
1766015981.0864499,21
1766015981.086454,23
1766015981.0864582,22
1766015981.086462,22
1766015981.086467,22
1766015981.0864708,24
1766015981.086475,22
1766015981.08648,21
1766015981.086484,23
1766015981.086488,23
1766015981.086494,18
1766015981.0865002,23
1766015981.086507,21
1766015981.0865128,21
1766015981.086518,23
1766015981.0865228,25
1766015981.086528,22
1766015981.086533,22
1766015981.086538,23
1766015981.086543,21
1766015981.0865479,21
1766015981.0865521,23
1766015981.086557,25
1766015981.086565,24
1766015981.086571,21
1766015981.0865762,24
1766015981.08658,24
1766015981.086584,25
1766015981.0865889,20
1766015981.086593,21
1766015981.0865972,24
1766015981.086602,23
1766015981.086606,22
1766015981.086611,18
1766015981.086615,21
1766015981.0866199,21
1766015981.086625,21
1766015981.0866292,21
1766015981.086634,20
1766015981.086638,23
1766015981.086642,21
1766015981.086647,21
1766015981.0866508,23
1766015981.086655,23
1766015981.0866601,22
1766015981.086664,21
1766015981.086669,23
1766015981.086674,22
1766015981.086679,21
1766015981.086684,22
1766015981.086689,24
1766015981.086694,20
1766015981.086699,21
1766015981.086704,21
1766015981.086709,23
1766015981.086714,22
1766015981.08672,20
1766015981.0867252,23
1766015981.086731,22
1766015981.086736,22
1766015981.086741,22
1766015981.0867462,20
1766015981.086751,22
1766015981.086756,20
1766015981.086761,25
1766015981.086766,23
1766015981.0867698,23
1766015981.086776,23
1766015981.086781,22
1766015981.086786,22
1766015981.0867908,24
1766015981.086795,23
1766015981.0867999,24
1766015981.086805,23
1766015981.08681,22
1766015981.086814,25
1766015981.0868192,23
1766015981.086823,23
1766015981.086828,22
1766015981.086832,23
1766015981.0868359,24
1766015981.086841,24
1766015981.086845,21
1766015981.0868502,22
1766015981.086854,22
1766015981.086858,21
1766015981.086863,20
1766015981.086868,21
1766015981.086872,23
1766015981.0868769,25
1766015981.086884,25
1766015981.0868878,23
1766015981.086894,24
1766015981.0868979,21
1766015981.086903,24
1766015981.086907,25
1766015981.086911,24
1766015981.0869162,23
1766015981.086921,25
1766015981.086926,24
1766015981.08693,24
1766015981.086935,24
1766015981.0869398,23
1766015981.086945,20
1766015981.086949,25
1766015981.0869539,24
1766015981.0869591,22
1766015981.086964,23
1766015981.0869691,19
1766015981.086973,23
1766015981.086978,24
1766015981.086983,20
1766015981.086988,24
1766015981.086993,25
1766015981.086997,24
1766015981.087002,22
1766015981.087007,23
1766015981.087012,24
1766015981.0870159,26
1766015981.087021,26
1766015981.087026,22
1766015981.0870311,23
1766015981.087036,23
1766015981.0870411,23
1766015981.0870469,23
1766015981.087054,24
1766015981.087059,25
1766015981.087063,26
1766015981.0870678,23
1766015981.087073,24
1766015981.0870779,25
1766015981.087083,25
1766015981.087088,25
1766015981.0870929,26
1766015981.0870981,24
1766015981.087103,25
1766015981.0871072,24
1766015981.087112,24
1766015981.087117,23
1766015981.087122,23
1766015981.087127,24
1766015981.087132,23
1766015981.087137,23
1766015981.087143,24
1766015981.0871491,25
1766015981.087153,23
1766015981.087158,26
1766015981.087163,24
1766015981.087168,24
1766015981.0871732,23
1766015981.087178,25
1766015981.087183,29
1766015981.087188,22
1766015981.087193,23
1766015981.087198,26
1766015981.087202,27
1766015981.0872068,23
1766015981.087212,24
1766015981.0872178,24
1766015981.087223,24
1766015981.0872278,24
1766015981.087233,24
1766015981.0872378,25
1766015981.087243,26
1766015981.0872488,25
1766015981.087255,25
1766015981.087261,26
1766015981.087266,24
1766015981.087271,25
1766015981.087276,26
1766015981.087281,25
1766015981.087286,26
1766015981.0872908,24
1766015981.087296,21
1766015981.0873,26
1766015981.087305,23
1766015981.08731,25
1766015981.0873148,25
1766015981.08732,27
1766015981.0873249,24
1766015981.08733,25
1766015981.0873349,29
1766015981.08734,25
1766015981.087345,24
1766015981.0873501,27
1766015981.0873542,27
1766015981.087359,23
1766015981.0873642,25
1766015981.087369,26
1766015981.087374,26
1766015981.087379,28
1766015981.087384,25
1766015981.087389,25
1766015981.087394,22
1766015981.0873978,22
1766015981.087403,27
1766015981.087408,27
1766015981.087413,26
1766015981.087418,25
1766015981.087423,27
1766015981.0874271,25
1766015981.087432,24
1766015981.0874372,23
1766015981.087442,23
1766015981.087447,24
1766015981.087452,23
1766015981.087456,26
1766015981.0874612,24
1766015981.087466,24
1766015981.087471,28
1766015981.087476,25
1766015981.087481,24
1766015981.0874848,25
1766015981.08749,27
1766015981.0874949,23
1766015981.0875,26
1766015981.0875049,23
1766015981.08751,23
1766015981.0875149,24
1766015981.08752,25
1766015981.0875242,24
1766015981.087529,23
1766015981.0875342,25
1766015981.087539,25
1766015981.087544,24
1766015981.087549,25
1766015981.087554,25
1766015981.087559,27
1766015981.087564,24
1766015981.0875678,25
1766015981.087573,25
1766015981.087578,26
1766015981.087583,26
1766015981.087588,25
1766015981.087593,25
1766015981.0875971,25
1766015981.087602,25
1766015981.0876071,27
1766015981.087612,26
1766015981.087617,23
1766015981.087622,22
1766015981.087626,25
1766015981.087631,25
1766015981.087636,24
1766015981.087641,25
1766015981.087646,25
1766015981.087651,23
1766015981.0876548,26
1766015981.08766,25
1766015981.0876648,26
1766015981.08767,24
1766015981.0876749,23
1766015981.08768,27
1766015981.0876842,26
1766015981.087689,26
1766015981.0876942,27
1766015981.087699,21
1766015981.0877042,28
1766015981.087709,26
1766015981.087714,26
1766015981.0877178,26
1766015981.087723,25
1766015981.087728,28
1766015981.087733,26
1766015981.087738,27
1766015981.0877419,27
1766015981.087747,23
1766015981.0877519,23
1766015981.087757,27
1766015981.0877619,24
1766015981.0877671,24
1766015981.087771,23
1766015981.087776,28
1766015981.0877812,28
1766015981.087786,24
1766015981.0877912,26
1766015981.087796,28
1766015981.087801,29
1766015981.087806,23
1766015981.08781,25
1766015981.0878148,25
1766015981.08782,25
1766015981.0878248,27
1766015981.08783,26
1766015981.0878348,27
1766015981.08784,25
1766015981.0878441,25
1766015981.087849,24
1766015981.0878541,23
1766015981.087859,24
1766015981.0878642,23
1766015981.087869,28
1766015981.087874,24
1766015981.087879,27
1766015981.087884,28
1766015981.0878878,26
1766015981.087893,29
1766015981.087898,23
1766015981.087903,25
1766015981.087908,24
1766015981.087913,27
1766015981.087917,25
1766015981.0879219,28
1766015981.087927,23
1766015981.0879319,24
1766015981.087937,25
1766015981.087942,28
1766015981.087947,24
1766015981.0879512,25
1766015981.087956,26
1766015981.0879612,26
1766015981.087966,24
1766015981.087971,25
1766015981.087976,28
1766015981.08798,27
1766015981.0879848,28
1766015981.08799,28
1766015981.0879948,24
1766015981.088,25
1766015981.088005,24
1766015981.0880089,26
1766015981.0880141,26
1766015981.088019,26
1766015981.0880241,28
1766015981.0880299,26
1766015981.0880342,27
1766015981.088039,25
1766015981.088044,28
1766015981.088049,27
1766015981.088054,28
1766015981.088058,28
1766015981.088063,24
1766015981.088068,26
1766015981.088073,27
1766015981.088078,24
1766015981.088083,28
1766015981.088087,30
1766015981.0880919,25
1766015981.088097,27
1766015981.0881019,27
1766015981.088107,30
1766015981.088112,28
1766015981.088117,28
1766015981.0881212,26
1766015981.088126,30
1766015981.0881312,26
1766015981.088136,27
1766015981.088141,28
1766015981.0881448,27
1766015981.08815,31
1766015981.0881548,30
1766015981.08816,27
1766015981.088165,30
1766015981.08817,29
1766015981.0890481,29
1766015981.090046,31
1766015981.091048,30
1766015981.092046,30
1766015981.093052,27
1766015981.0941,30
1766015981.0951161,28
1766015981.096083,28
1766015981.097106,33
1766015981.0980759,31
1766015981.099076,29
1766015981.100081,31
1766015981.1011012,28
1766015981.1020968,30
1766015981.103101,27
1766015981.104088,28
1766015981.1051059,30
1766015981.106097,30
1766015981.107093,33
1766015981.108104,30
1766015981.109122,31
1766015981.110096,33
1766015981.111116,31
1766015981.1121018,31
1766015981.1130948,32
1766015981.114123,31
1766015981.1151192,34
1766015981.11612,31
1766015981.117174,30
1766015981.1181319,31
1766015981.119158,34
1766015981.1201391,32
1766015981.121147,34
1766015981.122148,31
1766015981.123136,34
1766015981.1241689,29
1766015981.1251462,31
1766015981.1261911,33
1766015981.12715,31
1766015981.128206,33
1766015981.1291578,30
1766015981.130167,34
1766015981.131166,32
1766015981.1321752,32
1766015981.133178,34
1766015981.1341739,32
1766015981.1351922,33
1766015981.1361878,33
1766015981.137205,32
1766015981.138221,33
1766015981.139223,34
1766015981.140219,31
1766015981.1412978,32
1766015981.142228,32
1766015981.143219,35
1766015981.144232,31
1766015981.145205,35
1766015981.1462212,33
1766015981.1472042,34
1766015981.148227,32
1766015981.1492102,35
1766015981.150235,32
1766015981.151221,30
1766015981.15222,37
1766015981.153217,30
1766015981.1542232,31
1766015981.155228,30
1766015981.1562319,32
1766015981.1572511,33
1766015981.15829,33
1766015981.1592698,37
1766015981.160291,36
1766015981.161255,33
1766015981.1622882,35
1766015981.16329,33
1766015981.164294,33
1766015981.1653,37
1766015981.166311,35
1766015981.167288,35
1766015981.168309,34
1766015981.169278,31
1766015981.170277,30
1766015981.171309,34
1766015981.172311,33
1766015981.173316,33
1766015981.174326,32
1766015981.175284,32
1766015981.176348,32
1766015981.177344,30
1766015981.1783261,32
1766015981.179323,36
1766015981.180317,34
1766015981.181312,34
1766015981.182318,34
1766015981.183316,33
1766015981.184312,29
1766015981.1853151,32
1766015981.1863139,31
1766015981.187318,28
1766015981.1883469,33
1766015981.189337,32
1766015981.190327,32
1766015981.1913338,34
1766015981.192342,33
1766015981.193347,30
1766015981.194346,30
1766015981.1953511,31
1766015981.196356,31
1766015981.197369,34
1766015981.198355,32
1766015981.199362,32
1766015981.202776,34
1766015981.202784,31
1766015981.202789,31
1766015981.203406,31
1766015981.204438,33
1766015981.2054138,32
1766015981.206444,31
1766015981.2074208,32
1766015981.208448,29
1766015981.209415,33
1766015981.210442,32
1766015981.211443,29
1766015981.2124522,29
1766015981.213422,32
1766015981.2144582,30
1766015981.2154272,32
1766015981.2164469,29
1766015981.2174258,30
1766015981.2184582,30
1766015981.219404,30
1766015981.220445,31
1766015981.221468,32
1766015981.222445,29
1766015981.2234209,32
1766015981.224442,30
1766015981.225447,30
1766015981.2264671,33
1766015981.2275012,30
1766015981.228469,31
1766015981.2294452,30
1766015981.23051,31
1766015981.231507,32
1766015981.232477,31
1766015981.233479,31
1766015981.234484,30
1766015981.235483,31
1766015981.236473,30
1766015981.237497,31
1766015981.238511,27
1766015981.2394948,30
1766015981.2405179,30
1766015981.241485,32
1766015981.242495,31
1766015981.243534,30
1766015981.24449,30
1766015981.245485,28
1766015981.246528,30
1766015981.247527,27
1766015981.248527,28
1766015981.2495291,32
1766015981.250504,32
1766015981.251519,30
1766015981.252506,31
1766015981.253518,29
1766015981.2545652,29
1766015981.255544,31
1766015981.2565691,31
1766015981.257602,26
1766015981.2585301,29
1766015981.259549,28
1766015981.260536,30
1766015981.26157,25
1766015981.262551,28
1766015981.2635531,27
1766015981.264566,30
1766015981.265585,29
1766015981.266548,30
1766015981.267574,31
1766015981.2685812,29
1766015981.26956,28
1766015981.270611,27
1766015981.271561,27
1766015981.272596,29
1766015981.2735949,29
1766015981.2745988,28
1766015981.2756329,28
1766015981.27664,25
1766015981.277615,26
1766015981.278641,31
1766015981.27965,29
1766015981.28064,28
1766015981.281664,29
1766015981.282657,31
1766015981.283668,27
1766015981.28464,23
1766015981.285683,24
1766015981.2866628,26
1766015981.287657,28
1766015981.288642,25
1766015981.289642,27
1766015981.2906659,29
1766015981.291656,28
1766015981.2926679,25
1766015981.2936692,28
1766015981.294652,31
1766015981.295681,29
1766015981.296659,31
1766015981.297659,26
1766015981.298681,29
1766015981.299648,27
1766015981.300677,27
1766015981.301687,31
1766015981.302656,25
1766015981.303684,25
1766015981.3046882,28
1766015981.305728,27
1766015981.306695,27
1766015981.307683,27
1766015981.308705,28
1766015981.309721,26
1766015981.3107169,27
1766015981.311695,28
1766015981.312735,26
1766015981.3137422,31
1766015981.3147368,29
1766015981.315719,27
1766015981.3167439,29
1766015981.317788,26
1766015981.318764,25
1766015981.3197591,24
1766015981.32076,27
1766015981.321742,28
1766015981.322765,25
1766015981.323759,29
1766015981.324777,24
1766015981.3257768,25
1766015981.326784,25
1766015981.327748,29
1766015981.328753,25
1766015981.3297741,26
1766015981.330783,28
1766015981.331869,30
1766015981.332781,29
1766015981.3338728,25
1766015981.3348732,25
1766015981.3358579,26
1766015981.33687,24
1766015981.337857,26
1766015981.338871,26
1766015981.339865,25
1766015981.340872,26
1766015981.341871,25
1766015981.342869,25
1766015981.343873,28
1766015981.3448782,25
1766015981.3458738,25
1766015981.346872,26
1766015981.3478668,28
1766015981.348872,27
1766015981.349878,23
1766015981.3508449,29
1766015981.351871,26
1766015981.352858,25
1766015981.353869,23
1766015981.354872,28
1766015981.355874,25
1766015981.356844,28
1766015981.357842,27
1766015981.3588438,24
1766015981.359842,25
1766015981.360848,25
1766015981.361841,26
1766015981.362828,24
1766015981.363869,25
1766015981.3648582,29
1766015981.3658292,26
1766015981.366886,27
1766015981.367871,26
1766015981.368876,28
1766015981.3698502,27
1766015981.370852,27
1766015981.371862,25
1766015981.3729658,23
1766015981.3738508,27
1766015981.374881,26
1766015981.375883,24
1766015981.376905,25
1766015981.37789,28
1766015981.378887,28
1766015981.379874,26
1766015981.380908,27
1766015981.3819242,25
1766015981.382879,29
1766015981.383897,26
1766015981.384904,27
1766015981.385886,31
1766015981.386886,27
1766015981.3879092,24
1766015981.3889222,24
1766015981.389916,26
1766015981.390931,23
1766015981.391978,26
1766015981.39294,23
1766015981.393932,25
1766015981.394953,26
1766015981.3959942,27
1766015981.396961,26
1766015981.397971,27
1766015981.398925,28
1766015981.399952,24
1766015981.4009442,26
1766015981.401953,26
1766015981.402932,26
1766015981.4039621,28
1766015981.404993,26
1766015981.405967,26
1766015981.406986,29
1766015981.408009,26
1766015981.40901,25
1766015981.409983,23
1766015981.410986,27
1766015981.4119968,30
1766015981.412985,23
1766015981.413981,27
1766015981.415009,26
1766015981.416028,25
1766015981.4170282,27
1766015981.418029,24
1766015981.419015,25
1766015981.420022,24
1766015981.421021,27
1766015981.422018,26
1766015981.423032,27
1766015981.424035,26
1766015981.4251149,27
1766015981.426062,27
1766015981.427069,25
1766015981.428061,26
1766015981.429051,25
1766015981.430089,26
1766015981.4310908,23
1766015981.4320571,29
1766015981.433069,26
1766015981.434131,25
1766015981.435067,26
1766015981.436071,27
1766015981.437057,24
1766015981.43808,24
1766015981.4390771,25
1766015981.440093,24
1766015981.441046,26
1766015981.4420412,25
1766015981.4430468,27
1766015981.4440582,27
1766015981.44511,26
1766015981.4460642,26
1766015981.447119,26
1766015981.448071,23
1766015981.449086,26
1766015981.4501061,25
1766015981.4511192,26
1766015981.452097,26
1766015981.4531379,27
1766015981.454102,26
1766015981.455172,24
1766015981.45612,25
1766015981.45715,24
1766015981.45809,25
1766015981.459105,24
1766015981.4601102,25
1766015981.4611142,26
1766015981.4621289,27
1766015981.463124,26
1766015981.464134,27
1766015981.4651341,28
1766015981.4661329,26
1766015981.467135,26
1766015981.4681349,25
1766015981.469135,27
1766015981.4701178,26
1766015981.471183,25
1766015981.472149,27
1766015981.473139,29
1766015981.474147,25
1766015981.475144,24
1766015981.476144,26
1766015981.47714,25
1766015981.4781399,26
1766015981.479176,26
1766015981.480148,26
1766015981.481154,25
1766015981.482146,24
1766015981.483147,26
1766015981.4841821,23
1766015981.485158,25
1766015981.486165,24
1766015981.487176,23
1766015981.488168,26
1766015981.4891672,27
1766015981.49017,23
1766015981.4911811,25
1766015981.492235,25
1766015981.493234,26
1766015981.4942222,25
1766015981.495224,23
1766015981.496244,25
1766015981.497243,26
1766015981.498244,25
1766015981.4992661,24
1766015981.500256,27
1766015981.501249,27
1766015981.502238,25
1766015981.503256,25
1766015981.504255,23
1766015981.50527,24
1766015981.5062668,24
1766015981.5072682,23
1766015981.508277,24
1766015981.5092921,27
1766015981.5102878,25
1766015981.511285,24
1766015981.512278,24
1766015981.513282,25
1766015981.514294,26
1766015981.515293,27
1766015981.5163069,22
1766015981.517323,26
1766015981.518326,23
1766015981.5193012,23
1766015981.520328,26
1766015981.5213299,27
1766015981.522341,26
1766015981.523306,26
1766015981.524313,24
1766015981.525323,27
1766015981.526328,22
1766015981.527346,27
1766015981.528331,22
1766015981.529328,28
1766015981.5303411,24
1766015981.531344,24
1766015981.532324,24
1766015981.533345,25
1766015981.534351,27
1766015981.5353448,22
1766015981.536337,24
1766015981.537357,23
1766015981.538357,26
1766015981.539346,24
1766015981.54034,24
1766015981.541364,24
1766015981.542363,24
1766015981.5433888,25
1766015981.544369,23
1766015981.5453749,22
1766015981.5463848,25
1766015981.5473962,26
1766015981.548374,21
1766015981.549392,24
1766015981.550391,24
1766015981.551392,24
1766015981.552384,24
1766015981.553397,23
1766015981.554404,24
1766015981.555398,22
1766015981.556402,25
1766015981.557419,24
1766015981.558418,21
1766015981.559422,23
1766015981.560423,24
1766015981.56142,24
1766015981.562428,21
1766015981.563445,26
1766015981.56442,25
1766015981.565431,25
1766015981.566428,24
1766015981.567443,25
1766015981.5684469,23
1766015981.5694342,26
1766015981.570427,25
1766015981.571441,24
1766015981.572463,24
1766015981.573461,23
1766015981.574455,23
1766015981.5754602,25
1766015981.576461,22
1766015981.577458,26
1766015981.578461,24
1766015981.579463,27
1766015981.5804842,23
1766015981.5814872,23
1766015981.582479,26
1766015981.583483,27
1766015981.584487,23
1766015981.5854778,23
1766015981.5864801,24
1766015981.587512,26
1766015981.588524,24
1766015981.5895061,26
1766015981.590509,24
1766015981.591499,23
1766015981.5925078,23
1766015981.593494,27
1766015981.594503,24
1766015981.595521,25
1766015981.59652,28
1766015981.597526,25
1766015981.598529,25
1766015981.599535,25
1766015981.600532,24
1766015981.601544,25
1766015981.60253,23
1766015981.603521,26
1766015981.604537,25
1766015981.605563,23
1766015981.60655,26
1766015981.6075351,24
1766015981.608543,27
1766015981.609565,27
1766015981.610569,24
1766015981.611548,24
1766015981.612572,26
1766015981.613579,25
1766015981.614591,23
1766015981.615587,23
1766015981.6165671,26
1766015981.61759,24
1766015981.618582,23
1766015981.619584,24
1766015981.620594,25
1766015981.621595,24
1766015981.622601,25
1766015981.623604,23
1766015981.624619,24
1766015981.625623,22
1766015981.626598,26
1766015981.627619,23
1766015981.628611,27
1766015981.629625,25
1766015981.630649,25
1766015981.63164,24
1766015981.632621,24
1766015981.6336288,24
1766015981.634625,25
1766015981.635635,25
1766015981.6366389,24
1766015981.637676,26
1766015981.638633,23
1766015981.639634,22
1766015981.640654,23
1766015981.641664,23
1766015981.642658,23
1766015981.64365,23
1766015981.644684,25
1766015981.6456692,22
1766015981.646667,22
1766015981.6476521,23
1766015981.648641,25
1766015981.649659,23
1766015981.650645,27
1766015981.6516411,26
1766015981.652648,20
1766015981.653666,23
1766015981.6546519,23
1766015981.655637,21
1766015981.6566532,24
1766015981.657653,21
1766015981.658656,23
1766015981.6596532,23
1766015981.660671,22
1766015981.6616802,24
1766015981.6626592,25
1766015981.6636531,25
1766015981.6646678,24
1766015981.665675,21
1766015981.666684,26
1766015981.667684,23
1766015981.668719,23
1766015981.669716,22
1766015981.6707299,24
1766015981.671765,22
1766015981.6727412,21
1766015981.673748,24
1766015981.674739,20
1766015981.675749,25
1766015981.6767511,22
1766015981.67775,23
1766015981.678752,23
1766015981.679761,24
1766015981.680771,25
1766015981.6817632,26
1766015981.682765,21
1766015981.6837661,22
1766015981.684779,21
1766015981.685766,23
1766015981.686771,22
1766015981.687885,21
1766015981.688894,20
1766015981.6898649,22
1766015981.690864,22
1766015981.6918669,24
1766015981.692864,20
1766015981.6938581,24
1766015981.694857,24
1766015981.6958542,23
1766015981.696875,22
1766015981.69787,22
1766015981.6988559,24
1766015981.699858,22
1766015981.700874,23
1766015981.7018628,24
1766015981.702859,23
1766015981.70386,22
1766015981.70487,25
1766015981.705856,24
1766015981.706858,23
1766015981.7078662,25
1766015981.708864,24
1766015981.709867,24
1766015981.710856,21
1766015981.711859,25
1766015981.712865,26
1766015981.71386,22
1766015981.714859,22
1766015981.715866,22
1766015981.716883,24
1766015981.71786,21
1766015981.718861,24
1766015981.719885,24
1766015981.720884,23
1766015981.7218912,24
1766015981.722879,20
1766015981.723883,22
1766015981.7248828,23
1766015981.7258902,24
1766015981.726882,24
1766015981.727881,23
1766015981.7289019,22
1766015981.729915,22
1766015981.730904,22
1766015981.731898,22
1766015981.732925,22
1766015981.733931,22
1766015981.734912,23
1766015981.735919,23
1766015981.736919,22
1766015981.737949,21
1766015981.7389388,22
1766015981.739946,21
1766015981.740937,23
1766015981.74194,19
1766015981.742919,23
1766015981.743957,22
1766015981.744947,23
1766015981.745943,23
1766015981.746963,21
1766015981.747963,26
1766015981.7489762,23
1766015981.7499678,20
1766015981.750975,22
1766015981.751971,23
1766015981.752967,22
1766015981.7539709,19
1766015981.754998,22
1766015981.7559838,22
1766015981.756982,23
1766015981.7579808,23
1766015981.7589881,22
1766015981.759996,22
1766015981.7609978,20
1766015981.761997,23
1766015981.762998,25
1766015981.7640178,26
1766015981.765002,24
1766015981.7659972,22
1766015981.767009,20
1766015981.768043,20
1766015981.769038,22
1766015981.77005,17
1766015981.771032,22
1766015981.772087,20
1766015981.77304,23
1766015981.774016,21
1766015981.7750359,23
1766015981.7760158,18
1766015981.777032,22
1766015981.7780511,21
1766015981.779059,21
1766015981.780075,23
1766015981.781069,24
1766015981.782112,24
1766015981.783089,22
1766015981.784107,23
1766015981.78514,24
1766015981.786096,23
1766015981.787091,22
1766015981.788067,22
1766015981.7890902,22
1766015981.7900748,23
1766015981.7910779,22
1766015981.792077,19
1766015981.793071,23
1766015981.794076,21
1766015981.7950919,20
1766015981.796084,21
1766015981.7971148,23
1766015981.79809,21
1766015981.799102,23
1766015981.8000991,21
1766015981.8010828,20
1766015981.80213,21
1766015981.8031611,19
1766015981.804109,21
1766015981.805186,23
1766015981.806161,24
1766015981.807159,22
1766015981.8081641,21
1766015981.809143,22
1766015981.810155,23
1766015981.811148,25
1766015981.8121338,23
1766015981.813171,22
1766015981.814167,23
1766015981.8151581,23
1766015981.816177,21
1766015981.817167,24
1766015981.81818,23
1766015981.8191638,20
1766015981.8201642,22
1766015981.8211641,22
1766015981.8221781,22
1766015981.823174,20
1766015981.824191,24
1766015981.825202,21
1766015981.826188,22
1766015981.827191,21
1766015981.82818,22
1766015981.829191,25
1766015981.8301609,22
1766015981.831146,23
1766015981.8321579,26
1766015981.833162,20
1766015981.834167,23
1766015981.835177,23
1766015981.83617,21
1766015981.837198,20
1766015981.838179,20
1766015981.839179,21
1766015981.840189,21
1766015981.8411899,20
1766015981.842182,20
1766015981.843185,21
1766015981.844202,26
1766015981.845224,23
1766015981.846227,22
1766015981.8472161,20
1766015981.848233,23
1766015981.849207,24
1766015981.8502872,21
1766015981.851264,21
1766015981.852266,23
1766015981.8532522,19
1766015981.854275,21
1766015981.8552551,19
1766015981.856287,22
1766015981.8572521,22
1766015981.8583329,24
1766015981.859298,22
1766015981.860299,22
1766015981.861278,21
1766015981.862283,22
1766015981.863292,23
1766015981.8642912,22
1766015981.865312,23
1766015981.8663218,23
1766015981.8673139,21
1766015981.868314,19
1766015981.869312,22
1766015981.8702989,22
1766015981.871308,22
1766015981.872315,23
1766015981.873323,21
1766015981.8742971,21
1766015981.875333,21
1766015981.876333,25
1766015981.877328,23
1766015981.878322,18
1766015981.879354,21
1766015981.8803442,20
1766015981.881404,24
1766015981.882308,23
1766015981.883321,23
1766015981.884313,22
1766015981.885368,21
1766015981.886316,22
1766015981.8873322,22
1766015981.888327,23
1766015981.88935,19
1766015981.890341,19
1766015981.89133,19
1766015981.8924139,21
1766015981.893389,22
1766015981.8943841,21
1766015981.8953972,21
1766015981.896393,21
1766015981.897397,21
1766015981.898347,21
1766015981.89935,21
1766015981.900393,22
1766015981.901404,19
1766015981.902409,22
1766015981.9033759,21
1766015981.904427,19
1766015981.905422,22
1766015981.906414,25
1766015981.907399,23
1766015981.9083881,20
1766015981.909431,17
1766015981.910441,20
1766015981.9114082,20
1766015981.912496,21
1766015981.91347,22
1766015981.914411,26
1766015981.9154408,21
1766015981.91647,19
1766015981.917473,21
1766015981.9184792,20
1766015981.9194398,24
1766015981.9204512,19
1766015981.921482,20
1766015981.9224682,23
1766015981.923485,22
1766015981.924457,19
1766015981.925449,19
1766015981.9264798,22
1766015981.9274921,19
1766015981.9284658,22
1766015981.9294689,24
1766015981.930499,20
1766015981.931516,22
1766015981.932485,19
1766015981.9334788,19
1766015981.9344928,19
1766015981.935494,19
1766015981.936497,21
1766015981.9374669,22
1766015981.938503,18
1766015981.939484,22
1766015981.9405062,23
1766015981.941519,21
1766015981.942515,21
1766015981.943533,20
1766015981.94452,23
1766015981.9455218,23
1766015981.946541,22
1766015981.947548,21
1766015981.948535,21
1766015981.949524,20
1766015981.950567,23
1766015981.951547,21
1766015981.952555,23
1766015981.953537,18
1766015981.954567,22
1766015981.955601,20
1766015981.956586,22
1766015981.957537,20
1766015981.958595,22
1766015981.959585,21
1766015981.9605591,20
1766015981.961569,19
1766015981.962573,20
1766015981.963632,22
1766015981.964588,20
1766015981.965612,19
1766015981.9666188,21
1766015981.967623,23
1766015981.968603,21
1766015981.96961,22
1766015981.970624,22
1766015981.9716191,19
1766015981.972605,22
1766015981.973621,21
1766015981.974634,22
1766015981.975615,20
1766015981.976625,23
1766015981.977622,21
1766015981.978623,21
1766015981.9796412,21
1766015981.980631,20
1766015981.981625,22
1766015981.982645,22
1766015981.983628,20
1766015981.984628,20
1766015981.985651,19
1766015981.986648,21
1766015981.987632,21
1766015981.988651,23
1766015981.989665,21
1766015981.990653,22
1766015981.991677,22
1766015981.992672,19
1766015981.99366,21
1766015981.994685,19
1766015981.9956748,20
1766015981.996693,21
1766015981.99772,23
1766015981.998689,23
1766015981.999686,23
1766015982.0006888,24
1766015982.001693,21
1766015982.002692,20
1766015982.003676,19
1766015982.004731,23
1766015982.005701,26
1766015982.006707,23
1766015982.007699,19
1766015982.008723,20
1766015982.0096982,23
1766015982.010714,24
1766015982.0117319,20
1766015982.012733,20
1766015982.0137348,21
1766015982.0147321,23
1766015982.0157282,20
1766015982.0167491,20
1766015982.0177379,19
1766015982.018765,20
1766015982.019753,21
1766015982.020756,21
1766015982.021766,19
1766015982.022748,21
1766015982.023764,21
1766015982.024788,17
1766015982.025784,22
1766015982.026743,23
1766015982.0277781,20
1766015982.028786,24
1766015982.029799,23
1766015982.0308821,22
1766015982.031751,22
1766015982.032799,23
1766015982.033775,21
1766015982.034857,23
1766015982.035891,20
1766015982.036865,21
1766015982.037794,22
1766015982.038856,22
1766015982.039857,21
1766015982.0408762,22
1766015982.041854,19
1766015982.042849,25
1766015982.043846,23
1766015982.044852,21
1766015982.045849,19
1766015982.0469382,23
1766015982.0478458,21
1766015982.0488372,25
1766015982.049833,21
1766015982.0508249,21
1766015982.051824,22
1766015982.052833,20
1766015982.0538518,19
1766015982.054848,23
1766015982.0558379,23
1766015982.0568168,21
1766015982.0578299,19
1766015982.058829,20
1766015982.059814,19
1766015982.060833,19
1766015982.061839,23
1766015982.0628679,22
1766015982.063833,21
1766015982.064838,19
1766015982.0658329,18
1766015982.066854,22
1766015982.067843,21
1766015982.068832,21
1766015982.069847,20
1766015982.070889,21
1766015982.071892,22
1766015982.072884,20
1766015982.073876,21
1766015982.074868,21
1766015982.0758479,21
1766015982.076879,21
1766015982.077894,22
1766015982.078924,21
1766015982.079929,22
1766015982.080917,20
1766015982.081898,22
1766015982.0829172,22
1766015982.083898,17
1766015982.0848901,19
1766015982.085896,21
1766015982.086903,22
