timestamp,emg_value
1766015845.928592,89
1766015845.9286048,88
1766015845.928614,86
1766015845.9286242,86
1766015845.928633,87
1766015845.928643,90
1766015845.928652,89
1766015845.928662,90
1766015845.928672,91
1766015845.928681,88
1766015845.92869,88
1766015845.9286988,86
1766015845.928709,86
1766015845.928718,88
1766015845.9287271,87
1766015845.928737,87
1766015845.928746,89
1766015845.928756,86
1766015845.9287648,86
1766015845.9287739,86
1766015845.9287832,85
1766015845.9287932,85
1766015845.928802,85
1766015845.928811,86
1766015845.92882,83
1766015845.92883,88
1766015845.928839,90
1766015845.9288478,88
1766015845.928857,88
1766015845.9288661,86
1766015845.928875,85
1766015845.928884,88
1766015845.928899,85
1766015845.92891,84
1766015845.928919,85
1766015845.928928,86
1766015845.928937,84
1766015845.928946,83
1766015845.9289558,81
1766015845.928965,81
1766015845.928973,76
1766015845.928983,81
1766015845.928992,79
1766015845.9290009,81
1766015845.92901,76
1766015845.929019,78
1766015845.929028,80
1766015845.929037,81
1766015845.929046,85
1766015845.929055,83
1766015845.929065,84
1766015845.9290738,84
1766015845.9290829,83
1766015845.9290938,81
1766015845.9291031,79
1766015845.929112,83
1766015845.929121,81
1766015845.92913,81
1766015845.929139,84
1766015845.929148,81
1766015845.929157,82
1766015845.929167,86
1766015845.929176,86
1766015845.929185,85
1766015845.929194,88
1766015845.929228,85
1766015845.929239,81
1766015845.929248,84
1766015845.929257,86
1766015845.929266,84
1766015845.929276,84
1766015845.929285,87
1766015845.929294,85
1766015845.929303,86
1766015845.929312,87
1766015845.929321,89
1766015845.9293299,87
1766015845.9293408,90
1766015845.92935,90
1766015845.9293592,89
1766015845.929368,86
1766015845.929377,86
1766015845.929386,85
1766015845.929395,86
1766015845.929404,85
1766015845.929413,84
1766015845.9294221,86
1766015845.929431,87
1766015845.92944,84
1766015845.9294488,84
1766015845.9294589,86
1766015845.929468,84
1766015845.9294772,86
1766015845.929486,85
1766015845.929496,84
1766015845.929505,80
1766015845.929514,84
1766015845.929523,81
1766015845.929535,82
1766015845.929547,80
1766015845.929556,77
1766015845.929566,75
1766015845.929575,77
1766015845.929584,77
1766015845.929593,80
1766015845.9296021,77
1766015845.929611,80
1766015845.92962,80
1766015845.9296288,80
1766015845.929667,82
1766015845.929676,87
1766015845.9296849,84
1766015845.929694,83
1766015845.929703,81
1766015845.929712,85
1766015845.929721,80
1766015845.92973,76
1766015845.929739,79
1766015845.929748,79
1766015845.9297569,76
1766015845.929766,80
1766015845.929775,77
1766015845.929784,78
1766015845.9297931,81
1766015845.929802,78
1766015845.929811,79
1766015845.9298198,76
1766015845.9298291,77
1766015845.9298382,74
1766015845.929875,77
1766015845.929884,75
1766015845.9298959,77
1766015845.92991,76
1766015845.929918,76
1766015845.9299278,78
1766015845.929937,76
1766015845.9299462,72
1766015845.929955,76
1766015845.929964,76
1766015845.929972,73
1766015845.929981,76
1766015845.9299898,77
1766015845.9299998,79
1766015845.9300091,78
1766015845.930018,82
1766015845.930027,82
1766015845.930037,85
1766015845.9300458,86
1766015845.930055,86
1766015845.930064,86
1766015845.9300742,85
1766015845.930082,86
1766015845.930092,87
1766015845.930101,85
1766015845.93011,87
1766015845.9301188,87
1766015845.9301279,87
1766015845.9301372,83
1766015845.930146,82
1766015845.930154,85
1766015845.930163,82
1766015845.930172,82
1766015845.930181,81
1766015845.93019,82
1766015845.930202,83
1766015845.930211,81
1766015845.930222,83
1766015845.930231,84
1766015845.93024,82
1766015845.930249,84
1766015845.930258,80
1766015845.9302669,83
1766015845.9302762,79
1766015845.930298,83
1766015845.9303071,80
1766015845.930316,83
1766015845.930325,79
1766015845.9303339,78
1766015845.930343,80
1766015845.9303522,81
1766015845.930361,82
1766015845.93037,84
1766015845.930379,81
1766015845.930388,80
1766015845.930397,82
1766015845.9304068,82
1766015845.930416,80
1766015845.930424,77
1766015845.930434,78
1766015845.930443,82
1766015845.9304519,82
1766015845.930461,80
1766015845.93047,81
1766015845.930479,79
1766015845.930488,78
1766015845.930497,83
1766015845.930506,82
1766015845.930515,81
1766015845.930532,87
1766015845.9305432,85
1766015845.930552,87
1766015845.930561,88
1766015845.93057,87
1766015845.930579,88
1766015845.930588,91
1766015845.930597,88
1766015845.9306061,87
1766015845.930615,90
1766015845.930624,88
1766015845.930633,87
1766015845.930642,85
1766015845.930651,86
1766015845.93066,84
1766015845.930669,85
1766015845.9306781,84
1766015845.930687,89
1766015845.930696,83
1766015845.930706,85
1766015845.9307158,87
1766015845.9307258,86
1766015845.930735,84
1766015845.9307451,84
1766015845.930754,86
1766015845.930763,83
1766015845.930773,83
1766015845.9307818,81
1766015845.930791,82
1766015845.930801,81
1766015845.9308102,81
1766015845.930819,78
1766015845.930829,80
1766015845.930841,78
1766015845.930851,77
1766015845.930861,75
1766015845.93087,76
1766015845.9308789,77
1766015845.930888,77
1766015845.930898,77
1766015845.930908,77
1766015845.930917,77
1766015845.930926,74
1766015845.9309351,73
1766015845.930944,72
1766015845.930953,74
1766015845.9309618,71
1766015845.9309719,74
1766015845.9309812,74
1766015845.93099,77
1766015845.930999,76
1766015845.931008,71
1766015845.931017,70
1766015845.931026,71
1766015845.9310348,72
1766015845.931044,74
1766015845.931054,71
1766015845.931063,73
1766015845.931072,69
1766015845.931081,67
1766015845.9310899,71
1766015845.931099,68
1766015845.931108,72
1766015845.931117,71
1766015845.931126,71
1766015845.931135,71
1766015845.931147,73
1766015845.93116,80
1766015845.931169,88
1766015845.931178,93
1766015845.931187,93
1766015845.931196,90
1766015845.931205,94
1766015845.931214,92
1766015845.931224,95
1766015845.931233,97
1766015845.931245,101
1766015845.931257,105
1766015845.9312692,105
1766015845.93128,107
1766015845.931322,105
1766015845.931336,108
1766015845.931348,105
1766015845.931359,103
1766015845.931371,103
1766015845.9313831,102
1766015845.931394,104
1766015845.931406,100
1766015845.931417,101
1766015845.931426,97
1766015845.931436,96
1766015845.931445,93
1766015845.931454,96
1766015845.931464,95
1766015845.9314728,96
1766015845.931482,94
1766015845.931495,95
1766015845.9315069,93
1766015845.931516,94
1766015845.9315252,88
1766015845.931534,89
1766015845.931543,89
1766015845.9315531,86
1766015845.931562,86
1766015845.931571,88
1766015845.9315798,87
1766015845.9315891,88
1766015845.9315982,90
1766015845.931607,93
1766015845.931616,95
1766015845.931626,98
1766015845.9316359,95
1766015845.931645,98
1766015845.931656,100
1766015845.931665,96
1766015845.931674,99
1766015845.931686,100
1766015845.931697,100
1766015845.9317062,98
1766015845.931715,98
1766015845.931724,95
1766015845.931733,94
1766015845.931743,95
1766015845.931752,94
1766015845.9317608,96
1766015845.93177,95
1766015845.9317791,96
1766015845.931788,94
1766015845.931797,96
1766015845.9318101,93
1766015845.931821,95
1766015845.93183,95
1766015845.931839,91
1766015845.931848,91
1766015845.9318569,90
1766015845.9318662,88
1766015845.931875,88
1766015845.931884,90
1766015845.931894,87
1766015845.931903,89
1766015845.931912,92
1766015845.931921,95
1766015845.93193,95
1766015845.9319391,92
1766015845.931948,94
1766015845.931957,94
1766015845.931966,96
1766015845.931975,96
1766015845.931984,95
1766015845.9319942,95
1766015845.932003,94
1766015845.932013,95
1766015845.932022,93
1766015845.932031,95
1766015845.93204,93
1766015845.9320488,91
1766015845.932058,89
1766015845.932068,86
1766015845.9320772,89
1766015845.932086,89
1766015845.932095,88
1766015845.9321039,89
1766015845.932116,86
1766015845.932129,86
1766015845.932138,86
1766015845.932147,92
1766015845.9321558,92
1766015845.9321651,89
1766015845.932174,92
1766015845.932183,91
1766015845.932192,93
1766015845.932201,92
1766015845.93221,90
1766015845.9322188,94
1766015845.932228,93
1766015845.9322371,93
1766015845.932246,90
1766015845.932255,92
1766015845.9322639,94
1766015845.932273,94
1766015845.9322822,97
1766015845.932291,94
1766015845.9323,98
1766015845.93231,98
1766015845.932318,94
1766015845.9323268,96
1766015845.932336,93
1766015845.9323452,94
1766015845.932354,92
1766015845.932363,93
1766015845.9323719,90
1766015845.932381,90
1766015845.93239,89
1766015845.932399,89
1766015845.932408,90
1766015845.93242,90
1766015845.93243,90
1766015845.93244,85
1766015845.932449,86
1766015845.932458,87
1766015845.932467,83
1766015845.9324758,85
1766015845.9324858,86
1766015845.932705,85
1766015845.932715,85
1766015845.932724,81
1766015845.932734,84
1766015845.9327428,83
1766015845.932752,81
1766015845.9327612,81
1766015845.93277,81
1766015845.93278,80
1766015845.932789,81
1766015845.932798,78
1766015845.932807,78
1766015845.9328158,75
1766015845.932826,76
1766015845.932835,78
1766015845.932844,78
1766015845.932853,76
1766015845.932862,76
1766015845.9328709,78
1766015845.9328809,78
1766015845.9328902,76
1766015845.932899,76
1766015845.932908,77
1766015845.9329169,73
1766015845.932927,77
1766015845.932936,73
1766015845.9329479,77
1766015845.93296,76
1766015845.9329689,75
1766015845.932978,75
1766015845.932987,75
1766015845.932996,77
1766015845.933005,79
1766015845.933015,81
1766015845.933024,84
1766015845.933033,87
1766015845.9330418,90
1766015845.9330518,88
1766015845.9330611,92
1766015845.9330702,91
1766015845.933079,90
1766015845.933089,94
1766015845.933098,95
1766015845.933107,94
1766015845.933116,95
1766015845.933125,97
1766015845.933135,95
1766015845.933144,93
1766015845.933153,97
1766015845.933162,92
1766015845.933171,93
1766015845.9331808,91
1766015845.9331899,92
1766015845.9331992,88
1766015845.933208,88
1766015845.933218,87
1766015845.933248,89
1766015845.9332569,86
1766015845.9332669,86
1766015845.933279,86
1766015845.9332922,88
1766015845.933301,86
1766015845.93331,85
1766015845.9333189,85
1766015845.933328,82
1766015845.9333382,84
1766015845.933347,84
1766015845.933356,79
1766015845.933365,83
1766015845.933374,81
1766015845.933384,79
1766015845.933393,79
1766015845.933402,78
1766015845.933412,77
1766015845.9334211,78
1766015845.93343,76
1766015845.93344,75
1766015845.933449,75
1766015845.9334579,75
1766015845.9334679,74
1766015845.9334772,75
1766015845.933486,75
1766015845.933496,71
1766015845.933505,70
1766015845.9335139,71
1766015845.933524,70
1766015845.933534,70
1766015845.933543,69
1766015845.933552,66
1766015845.933562,66
1766015845.933571,70
1766015845.93358,67
1766015845.933596,70
1766015845.9336052,70
1766015845.9336162,69
1766015845.933625,68
1766015845.933634,67
1766015845.933644,68
1766015845.9336529,68
1766015845.933662,67
1766015845.933671,69
1766015845.93368,70
1766015845.93369,70
1766015845.9336991,67
1766015845.933708,67
1766015845.933717,67
1766015845.933727,71
1766015845.9337358,67
1766015845.933745,71
1766015845.9337542,69
1766015845.933764,67
1766015845.933773,68
1766015845.933782,72
1766015845.933801,75
1766015845.93381,74
1766015845.93382,71
1766015845.933829,72
1766015845.9338381,72
1766015845.933847,72
1766015845.933857,76
1766015845.933866,77
1766015845.9338748,80
1766015845.933884,76
1766015845.933894,76
1766015845.9339032,80
1766015845.933912,79
1766015845.9339252,77
1766015845.9339368,76
1766015845.9339461,76
1766015845.933955,76
1766015845.933965,75
1766015845.933974,71
1766015845.933992,72
1766015845.934001,73
1766015845.934011,73
1766015845.93402,73
1766015845.934029,70
1766015845.934039,68
1766015845.934048,67
1766015845.934057,67
1766015845.9340658,69
1766015845.9340758,69
1766015845.9340851,69
1766015845.9340951,72
1766015845.934104,70
1766015845.934113,66
1766015845.934122,67
1766015845.9341319,66
1766015845.934141,65
1766015845.93415,67
1766015845.934159,63
1766015845.934169,63
1766015845.934178,65
1766015845.934187,65
1766015845.934196,66
1766015845.9342048,63
1766015845.9342148,66
1766015845.934224,63
1766015845.9342332,63
1766015845.934245,65
1766015845.934256,62
1766015845.9342651,62
1766015845.934274,59
1766015845.934283,59
1766015845.934292,59
1766015845.9343019,57
1766015845.934311,60
1766015845.9343202,59
1766015845.934329,58
1766015845.934338,56
1766015845.934348,58
1766015845.934357,56
1766015845.934366,58
1766015845.934376,57
1766015845.9343848,59
1766015845.9343941,63
1766015845.9344032,62
1766015845.934412,62
1766015845.934421,60
1766015845.934431,57
1766015845.93444,61
1766015845.934449,61
1766015845.934458,62
1766015845.934467,62
1766015845.9344761,61
1766015845.934486,64
1766015845.934495,60
1766015845.934504,64
1766015845.9345129,63
1766015845.9345222,60
1766015845.934531,61
1766015845.934541,61
1766015845.93456,61
1766015845.93457,63
1766015845.934581,58
1766015845.9345899,60
1766015845.934599,60
1766015845.934608,60
1766015845.934617,60
1766015845.934627,59
1766015845.934636,59
1766015845.934645,62
1766015845.934654,59
1766015845.9346628,59
1766015845.9346728,57
1766015845.9346821,60
1766015845.9346912,57
1766015845.9347,61
1766015845.934709,60
1766015845.934718,61
1766015845.934728,59
1766015845.9347358,55
1766015845.934746,58
1766015845.934755,56
1766015845.9347641,58
1766015845.934773,58
1766015845.934782,55
1766015845.9347908,59
1766015845.9348009,56
1766015845.9348102,55
1766015845.934819,59
1766015845.934828,59
1766015845.934837,57
1766015845.934846,57
1766015845.934855,58
1766015845.934865,59
1766015845.934877,56
1766015845.934889,57
1766015845.934898,57
1766015845.934907,58
1766015845.934918,57
1766015845.934928,57
1766015845.934937,55
1766015845.934947,57
1766015845.934956,55
1766015845.934965,53
1766015845.934974,54
1766015845.934983,52
1766015845.9349918,52
1766015845.935002,53
1766015845.9350111,55
1766015845.93502,53
1766015845.93503,52
1766015845.935039,52
1766015845.9350479,53
1766015845.935057,52
1766015845.9350688,56
1766015845.9350789,55
1766015845.9350882,53
1766015845.935097,50
1766015845.935106,52
1766015845.935116,51
1766015845.9351249,51
1766015845.935134,51
1766015845.935143,54
1766015845.935153,50
1766015845.935162,50
1766015845.9351711,51
1766015845.93518,51
1766015845.935194,54
1766015845.935203,55
1766015845.935213,50
1766015845.935222,53
1766015845.935232,49
1766015845.935241,51
1766015845.935251,51
1766015845.9352598,49
1766015845.935269,50
1766015845.9352782,50
1766015845.935288,51
1766015845.9353,53
1766015845.9353092,49
1766015845.9353228,50
1766015845.935333,49
1766015845.935342,49
1766015845.9353511,51
1766015845.93536,49
1766015845.93537,50
1766015845.935379,51
1766015845.9353878,50
1766015845.9353971,52
1766015845.935406,48
1766015845.935415,53
1766015845.935425,48
1766015845.935434,49
1766015845.935443,49
1766015845.935452,48
1766015845.935462,49
1766015845.935471,49
1766015845.93548,47
1766015845.935489,47
1766015845.935498,50
1766015845.935511,50
1766015845.93552,51
1766015845.93553,48
1766015845.935539,46
1766015845.9355478,48
1766015845.9355571,50
1766015845.9355662,48
1766015845.935576,50
1766015845.935585,48
1766015845.935594,48
1766015845.935603,46
1766015845.935613,48
1766015845.935622,45
1766015845.935631,48
1766015845.93564,49
1766015845.935649,49
1766015845.935658,49
1766015845.935668,49
1766015845.9356768,50
1766015845.9356859,49
1766015845.9356952,50
1766015845.9357052,54
1766015845.935714,54
1766015845.935723,57
1766015845.935732,53
1766015845.935741,55
1766015845.935751,54
1766015845.9357598,55
1766015845.935769,56
1766015845.9357781,57
1766015845.935787,55
1766015845.935796,56
1766015845.935806,57
1766015845.935818,54
1766015845.935827,58
1766015845.935843,57
1766015845.935858,54
1766015845.935873,54
1766015845.9358878,56
1766015845.935903,55
1766015845.935918,57
1766015845.9359329,56
1766015845.9359481,57
1766015845.935963,58
1766015845.935979,51
1766015845.9359941,52
1766015845.936009,55
1766015845.9360251,53
1766015845.93604,53
1766015845.936055,54
1766015845.93607,57
1766015845.936085,55
1766015845.9361,51
1766015845.936116,55
1766015845.936131,53
1766015845.936146,49
1766015845.936161,50
1766015845.936176,52
1766015845.936191,54
1766015845.936206,52
1766015845.936221,55
1766015845.9362361,54
1766015845.936251,52
1766015845.936266,52
1766015845.9362822,54
1766015845.936297,50
1766015845.936316,52
1766015845.936332,51
1766015845.9363468,50
1766015845.936363,50
1766015845.936378,52
1766015845.936393,52
1766015845.936408,50
1766015845.9364228,51
1766015845.936439,49
1766015845.9364538,52
1766015845.936469,48
1766015845.936484,52
1766015845.9364989,51
1766015845.9365141,50
1766015845.936529,50
1766015845.936544,49
1766015845.9365592,50
1766015845.936575,51
1766015845.9365902,50
1766015845.936605,51
1766015845.93662,48
1766015845.9366348,48
1766015845.93665,48
1766015845.936665,49
1766015845.9366798,48
1766015845.936696,51
1766015845.9367108,49
1766015845.936726,53
1766015845.936741,50
1766015845.936756,52
1766015845.936772,50
1766015845.936787,49
1766015845.936805,50
1766015845.936822,51
1766015845.9368372,49
1766015845.936852,49
1766015845.936867,50
1766015845.936882,48
1766015845.936898,48
1766015845.936913,46
1766015845.936928,49
1766015845.936943,48
1766015845.936959,50
1766015845.936974,48
1766015845.9369888,50
1766015845.937004,48
1766015845.9370189,50
1766015845.937034,46
1766015845.93705,46
1766015845.937065,47
1766015845.9370801,44
1766015845.937095,49
1766015845.9371111,47
1766015845.937126,49
1766015845.937141,47
1766015845.9371562,48
1766015845.937172,47
1766015845.937187,47
1766015845.937202,47
1766015845.937217,43
1766015845.937233,48
1766015845.937248,46
1766015845.937263,49
1766015845.937278,50
1766015845.937293,47
1766015845.937314,49
1766015845.937344,47
1766015845.937359,46
1766015845.9373739,48
1766015845.93739,49
1766015845.9374049,48
1766015845.9374201,45
1766015845.937435,47
1766015845.9374511,50
1766015845.9374661,49
1766015845.937481,47
1766015845.937496,49
1766015845.937511,48
1766015845.937526,48
1766015845.937542,49
1766015845.937557,50
1766015845.937572,48
1766015845.937587,47
1766015845.937602,50
1766015845.937618,49
1766015845.937633,53
1766015845.937648,51
1766015845.937663,49
1766015845.937679,55
1766015845.9376938,50
1766015845.937709,52
1766015845.9377248,53
1766015845.93774,51
1766015845.9377549,49
1766015845.93777,50
1766015845.937786,52
1766015845.937801,48
1766015845.9378161,48
1766015845.937835,48
1766015845.93785,48
1766015845.937866,53
1766015845.937881,51
1766015845.937897,52
1766015845.937912,48
1766015845.937927,53
1766015845.937942,52
1766015845.937958,50
1766015845.937973,49
1766015845.937988,50
1766015845.938004,49
1766015845.938019,48
1766015845.9380338,47
1766015845.938049,50
1766015845.9380648,47
1766015845.93808,53
1766015845.938095,47
1766015845.938111,47
1766015845.938126,48
1766015845.9381409,49
1766015845.938157,46
1766015845.9381719,44
1766015845.938188,47
1766015845.9382029,45
1766015845.9382179,46
1766015845.9382331,44
1766015845.938248,44
1766015845.938263,46
1766015845.938279,46
1766015845.938294,47
1766015845.9383092,44
1766015845.938324,47
1766015845.938349,49
1766015845.9383638,45
1766015845.93838,45
1766015845.9383948,46
1766015845.93841,48
1766015845.938425,47
1766015845.938441,49
1766015845.938456,46
1766015845.9384708,49
1766015845.938486,44
1766015845.9385018,48
1766015845.938517,47
1766015845.938532,45
1766015845.938547,44
1766015845.9385622,42
1766015845.938578,44
1766015845.938594,47
1766015845.938609,45
1766015845.938625,43
1766015845.9386399,48
1766015845.938656,46
1766015845.938671,47
1766015845.938687,47
1766015845.938702,45
1766015845.938717,47
1766015845.9387321,45
1766015845.938747,46
1766015845.938762,43
1766015845.938777,47
1766015845.938793,45
1766015845.938808,47
1766015845.938823,44
1766015845.938841,44
1766015845.938857,44
1766015845.938873,42
1766015845.9388878,42
1766015845.938903,44
1766015845.9389179,45
1766015845.938934,42
1766015845.938949,47
1766015845.938965,46
1766015845.93898,44
1766015845.938995,47
1766015845.939011,44
1766015845.9390259,45
1766015845.9390411,43
1766015845.9390562,45
1766015845.939071,42
1766015845.9390862,48
1766015845.939102,44
1766015845.939117,42
1766015845.939132,47
1766015845.939147,40
1766015845.939163,41
1766015845.939179,43
1766015845.9391942,43
1766015845.939209,44
1766015845.939224,45
1766015845.93924,46
1766015845.939255,49
1766015845.9392698,47
1766015845.939285,49
1766015845.939301,50
1766015845.939316,49
1766015845.939332,50
1766015845.9393501,46
1766015845.9393659,49
1766015845.939382,48
1766015845.939397,46
1766015845.9394119,48
1766015845.939428,48
1766015845.9394429,48
1766015845.9394581,46
1766015845.9394739,46
1766015845.9394891,45
1766015845.9395041,46
1766015845.93952,45
1766015845.9395351,46
1766015845.93955,47
1766015845.939565,44
1766015845.939581,45
1766015845.9395971,48
1766015845.939612,50
1766015845.939635,48
1766015845.939651,52
1766015845.939666,50
1766015845.939681,49
1766015845.939696,49
1766015845.939711,49
1766015845.939726,47
1766015845.939741,47
1766015845.939756,48
1766015845.939772,48
1766015845.939787,51
1766015845.9398022,48
1766015845.939817,49
1766015845.9398332,53
1766015845.939848,54
1766015845.939868,59
1766015845.939883,59
1766015845.939898,63
1766015845.939913,63
1766015845.939929,64
1766015845.939944,64
1766015845.93996,62
1766015845.939975,65
1766015845.93999,64
1766015845.940005,65
1766015845.94002,63
1766015845.940035,62
1766015845.9400508,63
1766015845.940066,61
1766015845.940081,64
1766015845.940096,65
1766015845.9401112,63
1766015845.940126,60
1766015845.940141,61
1766015845.940156,63
1766015845.940171,58
1766015845.940186,61
1766015845.940201,62
1766015845.940216,59
1766015845.9402308,59
1766015845.940246,58
1766015845.9402611,61
1766015845.940276,62
1766015845.9402912,62
1766015845.940307,59
1766015845.940321,62
1766015845.940337,64
1766015845.940355,65
1766015845.940371,63
1766015845.940387,63
1766015845.940402,68
1766015845.940417,64
1766015845.9404318,65
1766015845.940448,70
1766015845.940463,65
1766015845.9404778,63
1766015845.940493,65
1766015845.940508,66
1766015845.940523,67
1766015845.940539,68
1766015845.940554,68
1766015845.9405692,67
1766015845.940585,69
1766015845.9406002,68
1766015845.940615,69
1766015845.94063,71
1766015845.9406452,73
1766015845.940661,73
1766015845.9406762,77
1766015845.940691,74
1766015845.940706,75
1766015845.940722,76
1766015845.940737,79
1766015845.9407518,82
1766015845.940767,81
1766015845.940782,79
1766015845.940798,78
1766015845.940813,85
1766015845.9408278,87
1766015845.940843,89
1766015845.940863,94
1766015845.9408782,96
1766015845.940897,101
1766015845.940916,100
1766015845.940934,102
1766015845.94095,97
1766015845.9409652,99
1766015845.94098,94
1766015845.940995,96
1766015845.94101,93
1766015845.941025,93
1766015845.94104,88
1766015845.941055,90
1766015845.941071,94
1766015845.941086,92
1766015845.941101,95
1766015845.9411159,89
1766015845.941132,92
1766015845.9411469,93
1766015845.9411619,94
1766015845.9411771,92
1766015845.941192,94
1766015845.941207,96
1766015845.941222,92
1766015845.941237,94
1766015845.9412532,93
1766015845.941268,90
1766015845.941283,88
1766015845.941298,88
1766015845.941314,85
1766015845.941329,88
1766015845.941344,86
1766015845.9413629,86
1766015845.941378,88
1766015845.9413939,85
1766015845.941409,86
1766015845.9414241,83
1766015845.941439,83
1766015845.9414542,86
1766015845.94147,85
1766015845.9414852,85
1766015845.9415,84
1766015845.941515,84
1766015845.941531,84
1766015845.941546,83
1766015845.941561,81
1766015845.941576,83
1766015845.941592,83
1766015845.941609,82
1766015845.9416242,85
1766015845.941639,85
1766015845.941654,80
1766015845.94167,84
1766015845.941685,85
1766015845.9417,85
1766015845.941716,90
1766015845.941731,89
1766015845.941746,85
1766015845.9417632,87
1766015845.941778,86
1766015845.941793,85
1766015845.9418082,85
1766015845.941823,84
1766015845.941838,85
1766015845.941857,85
1766015845.941874,82
1766015845.941889,80
1766015845.9419038,86
1766015845.941919,81
1766015845.941934,84
1766015845.9419498,82
1766015845.941965,85
1766015845.94198,84
1766015845.941995,82
1766015845.9420102,84
1766015845.942025,81
1766015845.94204,82
1766015845.942056,84
1766015845.942071,84
1766015845.942086,82
1766015845.942102,85
1766015845.9421172,82
1766015845.942132,82
1766015845.942147,81
1766015845.942162,80
1766015845.942177,80
1766015845.9421928,80
1766015845.942208,81
1766015845.942223,80
1766015845.942239,80
1766015845.942254,81
1766015845.9422688,82
1766015845.942284,81
1766015845.9422998,78
1766015845.942315,79
1766015845.9423301,80
1766015845.942345,82
1766015845.942365,82
1766015845.94238,78
1766015845.942395,77
1766015845.94241,79
1766015845.942425,80
1766015845.94244,81
1766015845.942456,81
1766015845.942471,80
1766015845.942486,78
1766015845.942501,82
1766015845.9425159,77
1766015845.942531,81
1766015845.942546,78
1766015845.942561,77
1766015845.942577,76
1766015845.942592,77
1766015845.9426072,78
1766015845.942622,75
1766015845.942637,75
1766015845.942653,75
1766015845.942668,74
1766015845.942744,76
1766015845.942776,75
1766015845.9427881,73
1766015845.9427998,71
1766015845.9428108,73
1766015845.942822,75
1766015845.942834,74
1766015845.942846,74
1766015845.942859,72
1766015845.94287,72
1766015845.942882,69
1766015845.9428968,71
1766015845.942912,72
1766015845.942923,72
1766015845.942935,71
1766015845.942946,73
1766015845.942958,71
1766015845.942969,71
1766015845.942981,71
1766015845.942992,71
1766015845.943004,67
1766015845.9430149,70
1766015845.9430258,70
1766015845.943038,69
1766015845.943049,70
1766015845.9430609,65
1766015845.943072,67
1766015845.943084,68
1766015845.943095,65
1766015845.943106,66
1766015845.9431171,67
1766015845.943129,64
1766015845.94314,68
1766015845.943151,69
1766015845.943163,68
1766015845.943174,63
1766015845.943236,67
1766015845.9432478,69
1766015845.94326,64
1766015845.9432719,65
1766015845.9432828,68
1766015845.943295,65
1766015845.943306,68
1766015845.9433181,66
1766015845.943351,61
1766015845.9433632,64
1766015845.943375,63
1766015845.943386,63
1766015845.943398,67
1766015845.943409,67
1766015845.943421,63
1766015845.9434319,67
1766015845.943443,62
1766015845.943455,67
1766015845.943466,68
1766015845.9436119,64
1766015845.943627,65
1766015845.943638,65
1766015845.94365,62
1766015845.943661,66
1766015845.9436722,64
1766015845.943684,65
1766015845.943695,63
1766015845.943707,62
1766015845.943718,63
1766015845.943729,62
1766015845.94374,63
1766015845.943752,62
1766015845.943763,64
1766015845.943775,63
1766015845.943786,61
1766015845.9437969,62
1766015845.943809,63
1766015845.94382,65
1766015845.943875,62
1766015845.943889,58
1766015845.943913,62
1766015845.943924,60
1766015845.943936,61
1766015845.943947,61
1766015845.943959,60
1766015845.94397,60
1766015845.9439812,60
1766015845.943997,60
1766015845.944011,60
1766015845.9440231,60
1766015845.944034,59
1766015845.944045,60
1766015845.944057,60
1766015845.9440682,61
1766015845.9440792,59
1766015845.9440901,57
1766015845.9441018,57
1766015845.9441128,59
1766015845.944126,58
1766015845.9441369,57
1766015845.944149,55
1766015845.94416,55
1766015845.944171,55
1766015845.944182,59
1766015845.944194,59
1766015845.944205,55
1766015845.9442189,54
1766015845.9442298,58
1766015845.944242,55
1766015845.944253,54
1766015845.944265,55
1766015845.9442759,55
1766015845.944291,51
1766015845.944315,52
1766015845.944326,54
1766015845.944339,53
1766015845.944352,51
1766015845.944364,50
1766015845.9443772,52
1766015845.944389,52
1766015845.9444008,49
1766015845.944413,52
1766015845.944424,50
1766015845.944436,51
1766015845.944447,47
1766015845.944458,47
1766015845.944469,48
1766015845.9444811,49
1766015845.944492,48
1766015845.944503,48
1766015845.944515,44
1766015845.9445279,48
1766015845.9445398,47
1766015845.944551,46
1766015845.944562,45
1766015845.944573,46
1766015845.9445848,45
1766015845.944596,44
1766015845.944607,44
1766015845.944618,44
1766015845.94463,44
1766015845.944641,41
1766015845.944654,43
1766015845.9446661,46
1766015845.944677,45
1766015845.944691,42
1766015845.944705,43
1766015845.944716,41
1766015845.944727,40
1766015845.944739,42
1766015845.94475,42
1766015845.944761,42
1766015845.944772,41
1766015845.9447832,39
1766015845.9447942,39
1766015845.9448051,41
1766015845.944816,41
1766015845.9448278,37
1766015845.944839,39
1766015845.94485,40
1766015845.944861,41
1766015845.944872,39
1766015845.9448829,40
1766015845.944895,36
1766015845.944906,40
1766015845.944917,38
1766015845.944928,37
1766015845.94494,38
1766015845.944951,39
1766015845.944962,37
1766015845.944973,37
1766015845.944984,35
1766015845.9449952,35
1766015845.9450061,35
1766015845.945017,33
1766015845.945031,36
1766015845.945042,32
1766015845.945055,34
1766015845.945069,37
1766015845.9450839,35
1766015845.945097,36
1766015845.94511,34
1766015845.945123,31
1766015845.945135,35
1766015845.9451451,35
1766015845.9451551,31
1766015845.9451652,36
1766015845.945175,33
1766015845.945185,33
1766015845.945194,33
1766015845.945204,30
1766015845.945219,34
1766015845.945229,32
1766015845.945239,34
1766015845.945249,30
1766015845.945259,33
1766015845.945269,32
1766015845.945279,34
1766015845.945289,35
1766015845.945299,34
1766015845.945309,33
1766015845.9453208,29
1766015845.9453309,33
1766015845.9453409,34
1766015845.945351,33
1766015845.945361,29
1766015845.9453728,31
1766015845.945385,32
1766015845.945395,30
1766015845.945405,31
1766015845.945418,28
1766015845.94543,29
1766015845.945441,31
1766015845.945451,28
1766015845.94546,29
1766015845.945471,30
1766015845.945481,31
1766015845.9454908,28
1766015845.9455009,32
1766015845.9455109,30
1766015845.9455209,33
1766015845.9455318,29
1766015845.9455419,31
1766015845.9455519,29
1766015845.9455638,28
1766015845.9455738,28
1766015845.945584,29
1766015845.945594,29
1766015845.945604,29
1766015845.945614,31
1766015845.945625,28
1766015845.945635,28
1766015845.945645,29
1766015845.945655,28
1766015845.945667,29
1766015845.945717,29
1766015845.945732,27
1766015845.9457438,30
1766015845.9457579,27
1766015845.9457679,27
1766015845.9457788,29
1766015845.94579,28
1766015845.945802,27
1766015845.945813,27
1766015845.945823,25
1766015845.945834,27
1766015845.945844,24
1766015845.945854,27
1766015845.945865,24
1766015845.945876,27
1766015845.945888,23
1766015845.9459,29
1766015845.945911,25
1766015845.945921,25
1766015845.945931,27
1766015845.945942,27
1766015845.9459531,23
1766015845.945963,24
1766015845.945973,27
1766015845.945984,27
1766015845.945994,29
1766015845.946004,24
1766015845.946013,25
1766015845.946023,25
1766015845.946033,24
1766015845.946044,27
1766015845.946062,24
1766015845.946072,26
1766015845.946082,23
1766015845.9460921,23
1766015845.946101,27
1766015845.946111,23
1766015845.946121,24
1766015845.946131,26
1766015845.946141,28
1766015845.9461539,25
1766015845.946165,26
1766015845.946183,25
1766015845.946196,23
1766015845.946209,23
1766015845.946219,25
1766015845.946229,25
1766015845.946239,23
1766015845.946248,23
1766015845.9462578,24
1766015845.946274,23
1766015845.946291,26
1766015845.946301,21
1766015845.9463181,25
1766015845.9463282,26
1766015845.946338,22
1766015845.946348,25
1766015845.946358,23
1766015845.946369,24
1766015845.946378,23
1766015845.946391,26
1766015845.9464011,25
1766015845.946411,24
1766015845.94642,23
1766015845.94643,24
1766015845.946441,26
1766015845.94645,23
1766015845.94646,25
1766015845.946473,23
1766015845.946489,25
1766015845.946506,24
1766015845.946517,22
1766015845.946529,26
1766015845.946541,24
1766015845.946551,24
1766015845.946561,23
1766015845.946574,25
1766015845.9465852,22
1766015845.946595,24
1766015845.946605,23
1766015845.946615,23
1766015845.946626,24
1766015845.946636,25
1766015845.946646,25
1766015845.946656,24
1766015845.9466681,20
1766015845.946677,26
1766015845.946687,26
1766015845.946697,21
1766015845.946708,25
1766015845.946718,23
1766015845.946729,21
1766015845.946739,20
1766015845.94675,21
1766015845.94676,23
1766015845.94677,22
1766015845.946781,23
1766015845.9467928,23
1766015845.9468029,23
1766015845.9468129,23
1766015845.9468238,21
1766015845.946835,21
1766015845.9468448,22
1766015845.9468548,24
1766015845.9468648,24
1766015845.946877,22
1766015845.946887,23
1766015845.9468958,20
1766015845.946906,24
1766015845.946916,20
1766015845.946926,21
1766015845.9469361,22
1766015845.9469461,21
1766015845.946956,23
1766015845.946965,21
1766015845.946975,22
1766015845.946985,22
1766015845.946995,21
1766015845.947005,22
1766015845.9470148,21
1766015845.9470248,23
1766015845.9470348,22
1766015845.9470441,22
1766015845.9470541,20
1766015845.947089,20
1766015845.947117,25
1766015845.947129,22
1766015845.947142,24
1766015845.947155,23
1766015845.947168,24
1766015845.94718,23
1766015845.9471931,22
1766015845.947205,20
1766015845.947218,25
1766015845.947231,22
1766015845.947243,23
1766015845.947256,23
1766015845.9472692,24
1766015845.9472902,19
1766015845.9473028,20
1766015845.947327,23
1766015845.94734,22
1766015845.9473531,22
1766015845.947366,20
1766015845.947378,22
1766015845.947391,21
1766015845.9474041,21
1766015845.947416,23
1766015845.9474292,22
1766015845.9474418,21
1766015845.947454,22
1766015845.947467,23
1766015845.947479,22
1766015845.9474921,24
1766015845.947505,20
1766015845.9475179,23
1766015845.94753,21
1766015845.9475431,23
1766015845.947556,21
1766015845.947569,22
1766015845.9475808,23
1766015845.947597,23
1766015845.9476092,21
1766015845.9476218,21
1766015845.947635,25
1766015845.947647,23
1766015845.94766,22
1766015845.9476721,22
1766015845.947685,24
1766015845.9476979,24
1766015845.947718,25
1766015845.947733,25
1766015845.947746,23
1766015845.9477582,23
1766015845.9477708,24
1766015845.947784,21
1766015845.9477959,18
1766015845.947809,21
1766015845.947822,22
1766015845.947834,25
1766015845.947847,23
1766015845.947859,21
1766015845.947872,21
1766015845.947885,25
1766015845.9478981,24
1766015845.9479098,25
1766015845.947923,20
1766015845.947936,22
1766015845.9479492,22
1766015845.947961,25
1766015845.947974,24
1766015845.947988,24
1766015845.948001,24
1766015845.948024,23
1766015845.9480371,23
1766015845.94805,22
1766015845.948063,21
1766015845.948075,22
1766015845.9480882,22
1766015845.948101,22
1766015845.948114,26
1766015845.9481258,20
1766015845.948139,25
1766015845.948158,22
1766015845.948173,25
1766015845.9481862,23
1766015845.9481978,25
1766015845.948211,21
1766015845.948224,22
1766015845.948237,22
1766015845.94825,22
1766015845.948262,21
1766015845.9482749,25
1766015845.948288,23
1766015845.9483001,21
1766015845.948313,22
1766015845.948332,23
1766015845.948344,22
1766015845.948357,24
1766015845.94837,23
1766015845.948383,25
1766015845.948395,23
1766015845.9484081,23
1766015845.94842,24
1766015845.948433,23
1766015845.9484491,21
1766015845.948461,23
1766015845.9484742,21
1766015845.9484868,24
1766015845.948499,24
1766015845.948512,23
1766015845.948525,25
1766015845.948538,22
1766015845.948551,23
1766015845.9485629,26
1766015845.948576,25
1766015845.948595,24
1766015845.948609,25
1766015845.9486232,25
1766015845.9486358,26
1766015845.948648,24
1766015845.948661,27
1766015845.948673,26
1766015845.9486861,26
1766015845.948699,25
1766015845.948715,25
1766015845.9487271,25
1766015845.94874,26
1766015845.9487529,26
1766015845.948765,22
1766015845.948778,25
1766015845.9487932,24
1766015845.9488058,23
1766015845.948819,27
1766015845.948831,26
1766015845.948844,23
1766015845.948857,25
1766015845.9488692,26
1766015845.9488819,26
1766015845.948895,28
1766015845.948908,23
1766015845.94892,28
1766015845.9489331,26
1766015845.948946,27
1766015845.948958,24
1766015845.948971,23
1766015845.9489841,25
1766015845.948996,27
1766015845.949009,25
1766015845.949022,27
1766015845.949043,27
1766015845.949057,23
1766015845.94907,25
1766015845.9490829,25
1766015845.949095,25
1766015845.949108,27
1766015845.949121,27
1766015845.949134,24
1766015845.949147,28
1766015845.9491599,28
1766015845.949173,29
1766015845.949186,27
1766015845.9491992,26
1766015845.9492118,27
1766015845.949225,25
1766015845.949237,25
1766015845.94925,26
1766015845.949263,28
1766015845.949276,28
1766015845.949288,27
1766015845.949301,26
1766015845.949314,26
1766015845.9493382,25
1766015845.9493508,30
1766015845.949364,30
1766015845.949378,26
1766015845.9493902,26
1766015845.9494028,30
1766015845.949416,27
1766015845.949429,26
1766015845.9494421,31
1766015845.949454,26
1766015845.949467,24
1766015845.949484,26
1766015845.949499,27
1766015845.949512,28
1766015845.9495249,28
1766015845.949538,30
1766015845.949551,28
1766015845.949564,27
1766015845.949576,29
1766015845.949589,28
1766015845.9496021,26
1766015845.949615,27
1766015845.949627,27
1766015845.94964,29
1766015845.949653,29
1766015845.949665,31
1766015845.9496782,29
1766015845.9496908,30
1766015845.949704,26
1766015845.949717,28
1766015845.949729,31
1766015845.949742,31
1766015845.949755,27
1766015845.9497678,28
1766015845.949781,30
1766015845.949793,31
1766015845.949806,30
1766015845.9498188,28
1766015845.949832,30
1766015845.949845,30
1766015845.949857,27
1766015845.94987,28
1766015845.949883,30
1766015845.9498959,28
1766015845.949916,31
1766015845.949929,28
1766015845.949942,30
1766015845.949954,29
1766015845.9499671,27
1766015845.94998,30
1766015845.949992,30
1766015845.950005,29
1766015845.950017,28
1766015845.95003,29
1766015845.950043,27
1766015845.950058,29
1766015845.950071,27
1766015845.9500852,29
1766015845.950098,28
1766015845.950112,29
1766015845.950125,32
1766015845.9501371,29
1766015845.9501498,29
1766015845.950163,28
1766015845.950176,33
1766015845.950188,32
1766015845.950201,28
1766015845.950214,29
1766015845.9502258,28
1766015845.950239,29
1766015845.950252,31
1766015845.9502652,28
1766015845.950277,29
1766015845.95029,28
1766015845.950303,30
1766015845.950315,28
1766015845.950335,28
1766015845.95035,30
1766015845.9503622,27
1766015845.9503748,29
1766015845.950388,30
1766015845.950401,26
1766015845.9504142,28
1766015845.950426,28
1766015845.950439,29
1766015845.9504519,28
1766015845.9504662,27
1766015845.950478,29
1766015845.950491,30
1766015845.9505038,31
1766015845.950517,29
1766015845.950529,28
1766015845.950542,28
1766015845.9505548,27
1766015845.950567,29
1766015845.950581,28
1766015845.950594,28
1766015845.950607,28
1766015845.950619,29
1766015845.9506319,27
1766015845.950644,28
1766015845.9506571,29
1766015845.95067,28
1766015845.9506829,25
1766015845.950696,25
1766015845.950709,29
1766015845.950721,25
1766015845.9507341,25
1766015845.9507468,25
1766015845.950767,29
1766015845.950782,27
1766015845.950794,26
1766015845.950807,27
1766015845.950819,25
1766015845.9508321,27
1766015845.950845,28
1766015845.9508579,25
1766015845.950871,27
1766015845.950884,25
1766015845.950896,25
1766015845.950909,27
1766015845.950922,28
1766015845.9509351,25
1766015845.950947,27
1766015845.9509602,25
1766015845.9509718,28
1766015845.950985,26
1766015845.950998,25
1766015845.9510112,25
1766015845.951024,28
1766015845.951037,27
1766015845.95105,25
1766015845.9510632,26
1766015845.951075,27
1766015845.9510882,24
1766015845.9511008,27
1766015845.951112,26
1766015845.951123,25
1766015845.951134,27
1766015845.951144,26
1766015845.951155,26
1766015845.951166,26
1766015845.951177,23
1766015845.951187,26
1766015845.9511979,25
1766015845.951209,25
1766015845.95122,24
1766015845.95123,25
1766015845.951241,26
1766015845.951252,25
1766015845.951263,23
1766015845.951273,22
1766015845.951284,25
1766015845.951295,26
1766015845.9513059,25
1766015845.9513159,25
1766015845.951327,28
1766015845.95135,23
1766015845.95136,26
1766015845.951371,25
1766015845.951382,25
1766015845.9513931,26
1766015845.951404,26
1766015845.951416,26
1766015845.951426,25
1766015845.951437,25
1766015845.951448,23
1766015845.951458,25
1766015845.951469,26
1766015845.9514802,28
1766015845.951491,24
1766015845.9515011,24
1766015845.951512,25
1766015845.951523,26
1766015845.951533,25
1766015845.951544,25
1766015845.951555,26
1766015845.951566,27
1766015845.951576,26
1766015845.951587,28
1766015845.9515982,23
1766015845.9516082,25
1766015845.9516191,25
1766015845.95163,26
1766015845.9516401,28
1766015845.951651,27
1766015845.951661,23
1766015845.951672,26
1766015845.951683,27
1766015845.951693,25
1766015845.951704,24
1766015845.951715,23
1766015845.951725,26
1766015845.951736,26
1766015845.9517472,25
1766015845.951757,28
1766015845.9517682,27
1766015845.9517791,27
1766015845.9517891,27
1766015845.9518,27
1766015845.951811,26
1766015845.951822,25
1766015845.951832,26
1766015845.951843,26
1766015845.951854,28
1766015845.951864,27
1766015845.951875,28
1766015845.951885,24
1766015845.951896,27
1766015845.9519072,27
1766015845.9519172,27
1766015845.9519281,25
1766015845.951939,25
1766015845.95195,28
1766015845.95196,29
1766015845.951971,28
1766015845.951982,29
1766015845.951992,25
1766015845.952003,27
1766015845.952014,25
1766015845.952024,27
1766015845.9520352,25
1766015845.9520462,28
1766015845.9520562,26
1766015845.9520671,28
1766015845.952078,27
1766015845.952088,29
1766015845.952099,29
1766015845.95211,29
1766015845.95212,31
1766015845.952131,31
1766015845.952142,33
1766015845.952152,28
1766015845.952163,29
1766015845.9521742,32
1766015845.9521852,31
1766015845.9521952,29
1766015845.9522061,31
1766015845.952217,27
1766015845.952227,29
1766015845.952238,31
1766015845.952249,30
1766015845.952259,30
1766015845.95227,29
1766015845.952281,30
1766015845.952291,30
1766015845.952302,29
1766015845.952312,29
1766015845.952323,30
1766015845.9523342,31
1766015845.9523451,27
1766015845.952366,29
1766015845.9523761,30
1766015845.952387,33
1766015845.952398,28
1766015845.9524102,29
1766015845.95242,31
1766015845.9524312,30
1766015845.9524422,30
1766015845.9524522,29
1766015845.9524632,28
1766015845.9524732,30
1766015845.9524841,30
1766015845.952495,32
1766015845.952506,29
1766015845.952516,32
1766015845.952527,29
1766015845.952538,31
1766015845.952548,31
1766015845.952559,31
1766015845.952569,29
1766015845.9525802,29
1766015845.95259,26
1766015845.9526012,28
1766015845.9526122,30
1766015845.9526222,31
1766015845.9526331,29
1766015845.952644,28
1766015845.9526541,31
1766015845.952665,28
1766015845.952676,33
1766015845.952686,31
1766015845.952697,31
1766015845.952708,30
1766015845.952718,32
1766015845.9527318,30
1766015845.9527428,31
1766015845.9527528,31
1766015845.9527638,27
1766015845.9527738,27
1766015845.952785,30
1766015845.952796,31
1766015845.952807,30
1766015845.952817,31
1766015845.952828,32
1766015845.952839,31
1766015845.952855,28
1766015845.952866,30
1766015845.952877,30
1766015845.952887,31
1766015845.952898,30
1766015845.952909,30
1766015845.95292,31
1766015845.95293,32
1766015845.952941,33
1766015845.9529521,30
1766015845.952963,31
1766015845.9529731,29
1766015845.952984,30
1766015845.952995,30
1766015845.953005,30
1766015845.953016,30
1766015845.953027,31
1766015845.953038,31
1766015845.953048,31
1766015845.953059,33
1766015845.9530702,32
1766015845.9530811,33
1766015845.9530911,33
1766015845.953102,33
1766015845.953113,31
1766015845.953124,30
1766015845.953134,31
1766015845.9531462,33
1766015845.953156,33
1766015845.9531672,32
1766015845.953177,35
1766015845.9531882,34
1766015845.9531991,32
1766015845.9532092,32
1766015845.9532201,34
1766015845.953231,32
1766015845.953242,32
1766015845.953252,33
1766015845.953263,32
1766015845.953274,33
1766015845.953284,34
1766015845.953295,31
1766015845.9533062,30
1766015845.9533172,30
1766015845.9533272,33
1766015845.9533381,28
1766015845.953349,30
1766015845.9533591,32
1766015845.95337,30
1766015845.953381,33
1766015845.953392,30
1766015845.953403,29
1766015845.953414,32
1766015845.953424,33
1766015845.953435,28
1766015845.953446,32
1766015845.9534562,30
1766015845.953467,30
1766015845.9534779,33
1766015845.9534888,29
1766015845.9534988,30
1766015845.9535098,29
1766015845.953521,32
1766015845.9535308,30
1766015845.953542,31
1766015845.953553,32
1766015845.953563,29
1766015845.953574,29
1766015845.9535842,32
1766015845.953595,33
1766015845.954437,32
1766015845.955411,34
1766015845.9564018,33
1766015845.9574249,30
1766015845.958438,32
1766015845.9594429,32
1766015845.960448,30
1766015845.9614332,29
1766015845.962446,29
1766015845.963441,33
1766015845.964483,32
1766015845.9654222,32
1766015845.966509,31
1766015845.967478,34
1766015845.968485,30
1766015845.969474,34
1766015845.970458,34
1766015845.971478,35
1766015845.972511,31
1766015845.973442,34
1766015845.9744692,36
1766015845.9754848,32
1766015845.976491,36
1766015845.977481,33
1766015845.978534,33
1766015845.9795,34
1766015845.980509,35
1766015845.981503,32
1766015845.982524,34
1766015845.983507,34
1766015845.9845061,33
1766015845.985578,36
1766015845.986518,33
1766015845.987485,35
1766015845.9884741,35
1766015845.989464,36
1766015845.990494,35
1766015845.991501,35
1766015845.992498,35
1766015845.993503,33
1766015845.994498,35
1766015845.995538,33
1766015845.9965508,34
1766015845.9975622,31
1766015845.998507,34
1766015845.99953,34
1766015846.000586,33
1766015846.001575,35
1766015846.0025558,30
1766015846.00354,32
1766015846.004561,34
1766015846.005588,30
1766015846.006547,34
1766015846.0075378,35
1766015846.0086038,31
1766015846.00959,31
1766015846.010554,31
1766015846.0115619,31
1766015846.012577,34
1766015846.013599,31
1766015846.01458,33
1766015846.015573,33
1766015846.016611,30
1766015846.017641,31
1766015846.0185869,30
1766015846.0196311,31
1766015846.0206459,27
1766015846.02159,31
1766015846.022589,31
1766015846.023604,30
1766015846.024595,29
1766015846.025629,28
1766015846.026627,28
1766015846.02762,31
1766015846.028637,32
1766015846.029611,31
1766015846.030626,32
1766015846.031656,27
1766015846.0326269,26
1766015846.0336409,31
1766015846.034655,31
1766015846.035648,32
1766015846.0366652,32
1766015846.037676,30
1766015846.038631,31
1766015846.039689,30
1766015846.040679,28
1766015846.041697,29
1766015846.042689,29
1766015846.043692,29
1766015846.044697,32
1766015846.04569,28
1766015846.046696,28
1766015846.047691,27
1766015846.048695,28
1766015846.04969,28
1766015846.050692,30
1766015846.051709,28
1766015846.052705,27
1766015846.053696,30
1766015846.054698,28
1766015846.055708,30
1766015846.056703,26
1766015846.057719,31
1766015846.05872,26
1766015846.059721,26
1766015846.060726,26
1766015846.061719,27
1766015846.062731,28
1766015846.06374,28
1766015846.0647418,28
1766015846.0657458,26
1766015846.066748,29
1766015846.067749,28
1766015846.068747,27
1766015846.06975,26
1766015846.070755,25
1766015846.071766,27
1766015846.0727491,27
1766015846.073774,27
1766015846.074778,27
1766015846.075758,27
1766015846.076757,26
1766015846.077783,28
1766015846.078773,26
1766015846.079767,27
1766015846.08078,25
1766015846.081789,27
1766015846.08279,26
1766015846.083796,26
1766015846.0848,26
1766015846.085809,24
1766015846.086806,24
1766015846.087809,27
1766015846.088811,23
1766015846.089808,27
1766015846.090822,25
1766015846.09183,25
1766015846.09281,28
1766015846.093811,26
1766015846.094835,24
1766015846.0958238,28
1766015846.096819,24
1766015846.097833,23
1766015846.098839,23
1766015846.0998452,24
1766015846.100855,22
1766015846.10186,24
1766015846.102886,25
1766015846.103862,27
1766015846.104855,25
1766015846.105878,27
1766015846.106876,22
1766015846.1078799,27
1766015846.108881,24
1766015846.109878,26
1766015846.110864,27
1766015846.1118872,25
1766015846.112881,23
1766015846.113895,25
1766015846.1148841,24
1766015846.1159139,24
1766015846.1169071,26
1766015846.117915,22
1766015846.118921,27
1766015846.119914,26
1766015846.1209269,24
1766015846.121923,24
1766015846.122925,23
1766015846.123925,26
1766015846.124911,24
1766015846.125921,26
1766015846.12692,24
1766015846.127914,26
1766015846.128939,25
1766015846.129921,23
1766015846.130934,26
1766015846.131926,24
1766015846.132947,27
1766015846.13393,28
1766015846.134933,27
1766015846.1359549,24
1766015846.136943,23
1766015846.137944,24
1766015846.138956,24
1766015846.139956,26
1766015846.140961,24
1766015846.1419678,23
1766015846.142975,27
1766015846.14397,24
1766015846.144969,26
1766015846.145977,23
1766015846.14698,27
1766015846.147989,27
1766015846.148993,25
1766015846.150008,24
1766015846.1510148,28
1766015846.151985,26
1766015846.152992,24
1766015846.15401,24
1766015846.155007,25
1766015846.1560059,28
1766015846.1570141,25
1766015846.158016,26
1766015846.1590312,28
1766015846.1600199,23
1766015846.1610198,26
1766015846.162019,22
1766015846.163023,26
1766015846.164023,27
1766015846.165031,23
1766015846.166037,26
1766015846.167032,25
1766015846.168038,25
1766015846.169031,25
1766015846.1701372,28
1766015846.1711302,22
1766015846.172043,27
1766015846.173132,27
1766015846.17413,28
1766015846.175134,24
1766015846.176128,25
1766015846.1771379,24
1766015846.1781309,27
1766015846.1791291,23
1766015846.180129,26
1766015846.181128,26
1766015846.182139,23
1766015846.183135,24
1766015846.184142,24
1766015846.185138,27
1766015846.1861382,28
1766015846.187139,25
1766015846.188158,27
1766015846.189135,27
1766015846.190135,25
1766015846.1911318,25
1766015846.1921432,24
1766015846.1931388,25
1766015846.194137,25
1766015846.195137,25
1766015846.196144,27
1766015846.1971378,22
1766015846.198136,25
1766015846.199132,26
1766015846.200143,25
1766015846.20114,25
1766015846.202131,26
1766015846.203132,26
1766015846.20414,25
1766015846.2051358,26
1766015846.206132,26
1766015846.207168,26
1766015846.2081761,25
1766015846.209166,27
1766015846.210175,26
1766015846.211176,26
1766015846.212172,27
1766015846.2131789,23
1766015846.214197,25
1766015846.215203,26
1766015846.216193,22
1766015846.217217,25
1766015846.218187,26
1766015846.2192159,23
1766015846.220186,21
1766015846.221198,24
1766015846.2222111,26
1766015846.2232032,25
1766015846.224204,24
1766015846.225211,25
1766015846.226223,20
1766015846.2272158,25
1766015846.22821,25
1766015846.229216,24
1766015846.23022,27
1766015846.2312121,28
1766015846.232238,28
1766015846.233221,26
1766015846.23423,27
1766015846.2352378,25
1766015846.2362509,25
1766015846.237244,24
1766015846.238252,24
1766015846.2392561,26
1766015846.240261,26
1766015846.24125,27
1766015846.2422788,25
1766015846.243265,25
1766015846.244284,27
1766015846.245269,22
1766015846.246289,29
1766015846.247411,27
1766015846.24829,26
1766015846.249303,31
1766015846.250303,29
1766015846.2512991,28
1766015846.252286,29
1766015846.25329,26
1766015846.2542999,29
1766015846.255309,29
1766015846.2562969,25
1766015846.25731,26
1766015846.258307,28
1766015846.2593112,26
1766015846.260309,26
1766015846.261313,26
1766015846.262306,26
1766015846.2633312,28
1766015846.2643242,26
1766015846.265315,28
1766015846.266324,26
1766015846.267327,29
1766015846.2683342,28
1766015846.2693388,35
1766015846.2703419,34
1766015846.2713559,35
1766015846.272353,40
1766015846.273354,37
1766015846.274357,42
1766015846.275357,41
1766015846.276355,40
1766015846.2773492,43
1766015846.278354,40
1766015846.279349,43
1766015846.280374,45
1766015846.2813618,44
1766015846.282367,43
1766015846.283372,44
1766015846.284384,44
1766015846.285387,45
1766015846.28637,46
1766015846.287385,43
1766015846.288377,46
1766015846.2893922,52
1766015846.290389,54
1766015846.291393,57
1766015846.2923908,57
1766015846.2934148,63
1766015846.294404,65
1766015846.2954051,63
1766015846.2964108,63
1766015846.297409,60
1766015846.298423,61
1766015846.2994099,63
1766015846.300412,67
1766015846.3014,63
1766015846.302402,68
1766015846.303405,69
1766015846.3044171,69
1766015846.305409,69
1766015846.3064132,70
1766015846.307415,70
1766015846.308424,73
1766015846.309419,66
1766015846.3104188,68
1766015846.31142,69
1766015846.3124201,69
1766015846.313418,69
1766015846.31442,69
1766015846.315418,71
1766015846.316417,70
1766015846.317419,69
1766015846.318431,67
1766015846.3194199,69
1766015846.320439,66
1766015846.3214772,65
1766015846.322492,67
1766015846.323488,65
1766015846.3244858,64
1766015846.325495,65
1766015846.3264918,64
1766015846.327498,65
1766015846.328501,66
1766015846.3295019,70
1766015846.330501,68
1766015846.331518,68
1766015846.332513,67
1766015846.333508,69
1766015846.334523,70
1766015846.3355289,69
1766015846.3365262,69
1766015846.3375309,68
1766015846.3385222,64
1766015846.339515,66
1766015846.340524,69
1766015846.341532,73
1766015846.342526,81
1766015846.3435268,87
1766015846.3445508,89
1766015846.345545,93
1766015846.346551,92
1766015846.3475661,90
1766015846.348562,90
1766015846.349565,89
1766015846.3505669,89
1766015846.351578,88
1766015846.3525739,88
1766015846.3535638,88
1766015846.3545642,88
1766015846.355565,86
1766015846.356552,88
1766015846.357559,89
1766015846.358597,88
1766015846.359537,90
1766015846.3606021,86
1766015846.361601,85
1766015846.3625972,86
1766015846.363592,87
1766015846.364566,86
1766015846.365597,87
1766015846.366598,88
1766015846.367611,88
1766015846.3686259,88
1766015846.36962,87
1766015846.370616,87
1766015846.371616,87
1766015846.372618,87
1766015846.373621,89
1766015846.37462,89
1766015846.375648,88
1766015846.3766232,85
1766015846.3776262,89
1766015846.378635,89
1766015846.3796349,87
1766015846.380651,89
1766015846.381653,90
1766015846.382665,92
1766015846.383666,88
1766015846.384671,87
1766015846.38567,92
1766015846.386664,96
1766015846.3876648,96
1766015846.388762,100
1766015846.389774,104
1766015846.390794,107
1766015846.391791,110
1766015846.392767,111
1766015846.393771,114
1766015846.394779,114
1766015846.395782,114
1766015846.3967931,116
1766015846.3977869,124
1766015846.398796,132
1766015846.399812,139
1766015846.400791,142
1766015846.40179,137
1766015846.402793,141
1766015846.40382,141
1766015846.404798,141
1766015846.4058082,144
1766015846.406811,145
1766015846.407825,142
1766015846.408819,141
1766015846.4098141,144
1766015846.410816,140
1766015846.411817,142
1766015846.412831,143
1766015846.413826,143
1766015846.414836,146
1766015846.4158452,148
1766015846.4168289,147
1766015846.417829,148
1766015846.4188259,148
1766015846.419841,153
1766015846.420844,155
1766015846.421854,166
1766015846.422838,169
1766015846.423868,171
1766015846.4248588,170
1766015846.4258602,166
1766015846.426857,165
1766015846.427876,163
1766015846.428865,165
1766015846.429867,168
1766015846.4308858,170
1766015846.431884,166
1766015846.432863,168
1766015846.433891,169
1766015846.434884,169
1766015846.4358988,173
1766015846.436888,177
1766015846.437901,184
1766015846.4389062,191
1766015846.439919,189
1766015846.440913,187
1766015846.441927,188
1766015846.4429069,192
1766015846.443935,194
1766015846.444915,191
1766015846.445906,192
1766015846.446932,189
1766015846.447933,186
1766015846.4489348,188
1766015846.4499369,187
1766015846.450933,187
1766015846.451933,188
1766015846.452943,193
1766015846.4539268,202
1766015846.4549508,218
1766015846.455965,230
1766015846.45696,240
1766015846.457954,251
1766015846.458962,250
1766015846.459958,247
1766015846.460958,247
1766015846.461962,249
1766015846.4629571,247
1766015846.4639418,244
1766015846.464938,245
1766015846.465962,243
1766015846.466939,240
1766015846.467948,247
1766015846.4689522,246
1766015846.469951,244
1766015846.470958,241
1766015846.471955,239
1766015846.47297,238
1766015846.47397,236
1766015846.47497,233
1766015846.475958,232
1766015846.4769611,229
1766015846.478016,227
1766015846.479022,225
1766015846.480015,223
1766015846.48101,223
1766015846.482015,221
1766015846.483018,221
1766015846.484027,220
1766015846.4850318,218
1766015846.4860349,217
1766015846.48702,215
1766015846.4880068,215
1766015846.489001,216
1766015846.490009,212
1766015846.491005,211
1766015846.4920168,214
1766015846.493014,216
1766015846.494016,219
1766015846.495014,221
1766015846.4961011,217
1766015846.4970062,216
1766015846.498092,217
1766015846.4990919,214
1766015846.500096,212
1766015846.5010931,216
1766015846.502091,219
1766015846.50309,218
1766015846.504089,215
1766015846.505089,218
1766015846.50609,219
1766015846.507092,217
1766015846.508091,215
1766015846.509095,213
1766015846.5100942,217
1766015846.511094,221
1766015846.512241,228
1766015846.5131571,233
1766015846.51415,229
1766015846.515142,231
1766015846.51616,233
1766015846.5171578,234
1766015846.518156,233
1766015846.5191538,233
1766015846.520153,228
1766015846.5211442,224
1766015846.5221498,224
1766015846.523136,225
1766015846.524101,226
1766015846.525138,223
1766015846.526148,222
1766015846.527143,219
1766015846.528159,216
1766015846.529151,212
1766015846.530142,209
1766015846.5311449,204
1766015846.5321732,204
1766015846.533143,204
1766015846.534144,201
1766015846.535153,201
1766015846.5361679,199
1766015846.537142,198
1766015846.538178,196
1766015846.539178,195
1766015846.5401862,194
1766015846.5411992,196
1766015846.542201,192
1766015846.543207,190
1766015846.544201,190
1766015846.5452008,190
1766015846.5462022,188
1766015846.547233,188
1766015846.548227,185
1766015846.549217,185
1766015846.550217,183
1766015846.551224,181
1766015846.552234,183
1766015846.553233,180
1766015846.554223,178
1766015846.555228,175
1766015846.556237,177
1766015846.5572321,173
1766015846.558229,170
1766015846.559235,171
1766015846.560239,167
1766015846.5612411,168
1766015846.5622559,168
1766015846.563253,168
1766015846.564262,166
1766015846.565262,165
1766015846.566245,162
1766015846.567271,160
1766015846.568276,160
1766015846.569282,156
1766015846.570278,158
1766015846.5712771,157
1766015846.572277,160
1766015846.5733,159
1766015846.5742831,159
1766015846.575284,158
1766015846.576302,158
1766015846.577307,154
1766015846.578293,155
1766015846.579294,150
1766015846.580304,150
1766015846.581314,154
1766015846.582319,156
1766015846.583308,161
1766015846.584322,172
1766015846.585309,172
1766015846.58632,176
1766015846.587313,174
1766015846.588316,176
1766015846.589337,175
1766015846.590333,174
1766015846.5913339,180
1766015846.592341,175
1766015846.59334,177
1766015846.594343,180
1766015846.595351,175
1766015846.5963562,174
1766015846.597357,174
1766015846.598366,173
1766015846.5993652,169
1766015846.6003652,169
1766015846.601357,169
1766015846.602367,167
1766015846.603358,165
1766015846.6043892,164
1766015846.605373,162
1766015846.606385,164
1766015846.607362,161
1766015846.6083899,156
1766015846.60939,156
1766015846.610395,155
1766015846.611392,155
1766015846.612391,148
1766015846.613386,150
1766015846.614385,148
1766015846.6154501,146
1766015846.616409,144
1766015846.617397,143
1766015846.618401,146
1766015846.6194031,150
1766015846.620416,146
1766015846.621418,146
1766015846.622405,144
1766015846.6234381,140
1766015846.624427,142
1766015846.6254249,141
1766015846.626427,140
1766015846.627434,142
1766015846.628438,137
1766015846.629427,136
1766015846.6304278,135
1766015846.631443,139
1766015846.632437,132
1766015846.633446,135
1766015846.634463,131
1766015846.635475,131
1766015846.636468,129
1766015846.637471,130
1766015846.638446,134
1766015846.639476,131
1766015846.640477,131
1766015846.6414888,129
1766015846.6424892,129
1766015846.6434681,132
1766015846.644486,130
1766015846.6454809,130
1766015846.646494,126
1766015846.647488,128
1766015846.6485069,123
1766015846.649496,124
1766015846.650496,122
1766015846.651492,120
1766015846.652514,118
1766015846.6535091,118
1766015846.6545222,115
1766015846.655509,115
1766015846.6565208,112
1766015846.657526,112
1766015846.658527,111
1766015846.659541,109
1766015846.660543,106
1766015846.6615412,107
1766015846.662528,104
1766015846.6635442,103
1766015846.664551,103
1766015846.6655302,101
1766015846.6664472,98
1766015846.667546,100
1766015846.668451,98
1766015846.669454,97
1766015846.670454,99
1766015846.6714518,95
1766015846.672464,96
1766015846.67348,97
1766015846.6745641,103
1766015846.675573,108
1766015846.6765928,114
1766015846.6775832,134
1766015846.678574,149
1766015846.679595,169
1766015846.680598,185
1766015846.681599,196
1766015846.6825962,193
1766015846.6835892,192
1766015846.684594,196
1766015846.685599,209
1766015846.6866,214
1766015846.687597,218
1766015846.6886132,220
1766015846.689624,220
1766015846.690614,219
1766015846.691614,220
1766015846.69262,222
1766015846.693604,219
1766015846.694607,218
1766015846.6956081,219
1766015846.696615,215
1766015846.6976051,214
1766015846.698605,211
1766015846.6996312,210
1766015846.70064,204
1766015846.7016199,205
1766015846.702632,202
1766015846.7036421,199
1766015846.704656,198
1766015846.705665,195
1766015846.706642,191
1766015846.707677,192
1766015846.7086542,188
1766015846.709662,186
1766015846.710662,184
1766015846.711672,182
1766015846.712686,179
1766015846.713686,176
1766015846.714692,173
1766015846.715692,172
1766015846.716681,169
1766015846.717685,168
1766015846.718689,164
1766015846.719689,162
1766015846.720691,163
1766015846.721708,158
1766015846.722709,158
1766015846.723715,156
1766015846.724714,154
1766015846.725709,151
1766015846.726718,149
1766015846.727702,149
1766015846.728724,146
1766015846.729714,143
1766015846.730718,142
1766015846.7317219,143
1766015846.7327209,139
1766015846.733721,138
1766015846.734743,137
1766015846.73574,138
1766015846.736754,135
1766015846.737752,137
1766015846.7387462,137
1766015846.739746,141
1766015846.740764,145
1766015846.74176,151
1766015846.742753,152
1766015846.743763,154
1766015846.74476,157
1766015846.745763,157
1766015846.746764,156
1766015846.747757,155
1766015846.748775,154
1766015846.749759,152
1766015846.7507598,150
1766015846.751772,151
1766015846.752782,149
1766015846.753786,151
1766015846.754783,154
1766015846.755771,155
1766015846.7567942,155
1766015846.757781,150
1766015846.758785,150
1766015846.759783,151
1766015846.7607949,148
1766015846.7618,148
1766015846.762804,150
1766015846.7638028,150
1766015846.764811,150
1766015846.765816,146
1766015846.766815,147
1766015846.7678158,148
1766015846.768817,145
1766015846.769822,144
1766015846.770821,141
1766015846.771827,144
1766015846.772834,140
1766015846.773846,139
1766015846.774848,139
1766015846.7758489,137
1766015846.776844,139
1766015846.7778502,138
1766015846.778852,137
1766015846.779854,135
1766015846.780848,135
1766015846.781867,133
1766015846.7828522,130
1766015846.7838578,128
1766015846.784876,131
1766015846.785878,129
1766015846.786876,126
1766015846.787862,127
1766015846.788876,126
1766015846.789873,124
1766015846.790882,123
1766015846.7918952,119
1766015846.792887,120
1766015846.7939148,119
1766015846.794912,118
1766015846.795887,117
1766015846.796895,116
1766015846.7979121,116
1766015846.798908,113
1766015846.799894,111
1766015846.800902,113
1766015846.8019042,113
1766015846.802944,108
1766015846.803922,108
1766015846.8049102,113
1766015846.8059342,114
1766015846.806947,113
1766015846.807924,115
1766015846.808938,116
1766015846.8099468,118
1766015846.8109272,121
1766015846.811938,127
1766015846.812948,134
1766015846.8139572,138
1766015846.814955,138
1766015846.815962,142
1766015846.816939,147
1766015846.8179688,149
1766015846.818954,151
1766015846.8199549,148
1766015846.820961,150
1766015846.82196,149
1766015846.822966,144
1766015846.823976,144
1766015846.824991,141
1766015846.825984,142
1766015846.8269818,140
1766015846.8279822,138
1766015846.828979,136
1766015846.8299851,140
1766015846.83099,147
1766015846.83201,150
1766015846.83303,153
1766015846.834031,157
1766015846.835005,153
1766015846.83604,158
1766015846.8370318,156
1766015846.8380108,157
1766015846.8390138,156
1766015846.84002,152
1766015846.841027,151
1766015846.8420322,153
1766015846.843037,152
1766015846.84404,152
1766015846.84504,150
1766015846.846036,151
1766015846.8470411,148
1766015846.848053,146
1766015846.849053,146
1766015846.850035,143
1766015846.8510358,142
1766015846.8520498,139
1766015846.853045,142
1766015846.854044,137
1766015846.855146,137
1766015846.85615,139
1766015846.857057,137
1766015846.858145,137
1766015846.859071,138
1766015846.8601441,135
1766015846.861145,136
1766015846.862148,134
1766015846.8631501,135
1766015846.8641531,130
1766015846.865154,129
1766015846.8661451,132
1766015846.867143,129
1766015846.868146,127
1766015846.869141,127
1766015846.870143,125
1766015846.871149,125
1766015846.87214,125
1766015846.873138,125
1766015846.8741398,120
1766015846.875147,121
1766015846.8761458,123
1766015846.877141,123
1766015846.8781471,122
1766015846.879145,123
1766015846.880138,122
1766015846.8811488,119
1766015846.882137,121
1766015846.883147,119
1766015846.884139,118
1766015846.885149,116
1766015846.8861482,119
1766015846.8871691,118
1766015846.8881521,115
1766015846.8891609,116
1766015846.890154,114
1766015846.891171,116
1766015846.892164,117
1766015846.893163,119
1766015846.894204,117
1766015846.895181,118
1766015846.896178,116
1766015846.8971891,113
1766015846.898193,118
1766015846.899185,115
1766015846.9002,112
1766015846.901199,116
1766015846.9022038,116
1766015846.903223,110
1766015846.904211,113
1766015846.905209,115
1766015846.906216,115
1766015846.907236,114
1766015846.9082408,115
1766015846.909237,112
1766015846.9102159,112
1766015846.911211,113
1766015846.912224,112
1766015846.913226,107
1766015846.914239,108
1766015846.9152482,109
1766015846.9162502,105
1766015846.917232,107
1766015846.918228,106
1766015846.919206,106
1766015846.920227,103
1766015846.92125,104
1766015846.922251,107
1766015846.923244,107
1766015846.924238,112
1766015846.925272,118
1766015846.926274,124
1766015846.927247,125
1766015846.928253,126
1766015846.929263,125
