timestamp,emg_value
1766015839.595351,71
1766015839.5953841,72
1766015839.595411,74
1766015839.595438,75
1766015839.595465,74
1766015839.5954921,74
1766015839.5955179,76
1766015839.595544,70
1766015839.595571,71
1766015839.595597,72
1766015839.595636,73
1766015839.5956638,72
1766015839.59569,71
1766015839.595715,75
1766015839.595741,77
1766015839.595767,77
1766015839.595793,77
1766015839.595819,80
1766015839.5958452,83
1766015839.595871,82
1766015839.595903,80
1766015839.5959291,82
1766015839.595955,82
1766015839.5959811,84
1766015839.596006,83
1766015839.596033,85
1766015839.5960581,84
1766015839.5960839,83
1766015839.59611,82
1766015839.596135,81
1766015839.5961611,82
1766015839.5961862,80
1766015839.596226,81
1766015839.596253,81
1766015839.5962791,83
1766015839.596304,80
1766015839.596328,82
1766015839.596343,82
1766015839.5963578,82
1766015839.596373,81
1766015839.596388,82
1766015839.596403,84
1766015839.5964181,85
1766015839.596433,82
1766015839.596448,84
1766015839.5964632,82
1766015839.596478,83
1766015839.596492,83
1766015839.5965068,84
1766015839.596522,84
1766015839.596537,86
1766015839.596552,85
1766015839.5965672,85
1766015839.596582,83
1766015839.5966039,86
1766015839.59662,85
1766015839.596637,85
1766015839.596652,82
1766015839.5966668,81
1766015839.596682,82
1766015839.596697,81
1766015839.5967119,79
1766015839.596726,79
1766015839.5967412,80
1766015839.596759,79
1766015839.596802,82
1766015839.5968168,79
1766015839.596832,81
1766015839.596847,80
1766015839.596861,81
1766015839.5968761,88
1766015839.596891,95
1766015839.59691,102
1766015839.596931,107
1766015839.59695,112
1766015839.596968,110
1766015839.5969868,115
1766015839.597008,114
1766015839.597026,119
1766015839.597045,118
1766015839.5970628,121
1766015839.5970821,124
1766015839.5971,123
1766015839.597118,123
1766015839.597137,123
1766015839.597155,123
1766015839.597173,123
1766015839.597192,122
1766015839.5972102,117
1766015839.597229,119
1766015839.597247,116
1766015839.597266,116
1766015839.5972888,112
1766015839.5973089,115
1766015839.597334,117
1766015839.597353,118
1766015839.5973709,119
1766015839.597389,117
1766015839.597408,116
1766015839.597426,113
1766015839.597445,116
1766015839.597464,117
1766015839.597482,112
1766015839.597501,114
1766015839.5975199,111
1766015839.597538,117
1766015839.5975559,116
1766015839.597575,116
1766015839.597593,112
1766015839.597646,114
1766015839.597665,111
1766015839.597683,111
1766015839.597701,112
1766015839.5977201,109
1766015839.597738,109
1766015839.597756,109
1766015839.5977752,109
1766015839.597793,109
1766015839.5978172,107
1766015839.597836,106
1766015839.597854,108
1766015839.597873,105
1766015839.597891,104
1766015839.597909,104
1766015839.597928,103
1766015839.5979462,102
1766015839.597965,102
1766015839.597983,102
1766015839.598001,104
1766015839.598022,107
1766015839.59804,106
1766015839.598058,106
1766015839.5980768,109
1766015839.5980952,106
1766015839.598114,103
1766015839.598133,106
1766015839.598151,104
1766015839.59817,106
1766015839.598188,105
1766015839.598206,104
1766015839.598224,108
1766015839.59824,110
1766015839.598256,111
1766015839.598272,110
1766015839.5982919,110
1766015839.598309,108
1766015839.598325,110
1766015839.5983412,110
1766015839.598356,111
1766015839.598372,104
1766015839.598388,105
1766015839.5984042,107
1766015839.59842,105
1766015839.5984352,103
1766015839.598451,105
1766015839.598467,106
1766015839.5984828,107
1766015839.598499,106
1766015839.598515,104
1766015839.598531,105
1766015839.598547,101
1766015839.598563,100
1766015839.598578,100
1766015839.5985951,100
1766015839.5986161,102
1766015839.598635,102
1766015839.598652,103
1766015839.598668,101
1766015839.59868,99
1766015839.598696,100
1766015839.598716,102
1766015839.598733,102
1766015839.598746,98
1766015839.5987709,99
1766015839.598784,96
1766015839.5987961,97
1766015839.598809,95
1766015839.5988219,96
1766015839.598834,96
1766015839.598847,94
1766015839.59886,97
1766015839.5988731,97
1766015839.5988858,91
1766015839.598899,94
1766015839.598912,94
1766015839.598924,92
1766015839.598937,91
1766015839.59895,90
1766015839.598963,92
1766015839.598975,92
1766015839.598988,91
1766015839.5990012,94
1766015839.5990138,90
1766015839.599027,90
1766015839.599039,90
1766015839.599052,90
1766015839.599065,92
1766015839.599078,90
1766015839.5990899,89
1766015839.599104,90
1766015839.599116,91
1766015839.5991292,89
1766015839.599145,88
1766015839.59916,89
1766015839.599173,90
1766015839.599186,89
1766015839.5991979,87
1766015839.599211,90
1766015839.599224,87
1766015839.5992372,87
1766015839.5992498,86
1766015839.599263,85
1766015839.599275,87
1766015839.599288,85
1766015839.599301,86
1766015839.5993128,84
1766015839.599326,84
1766015839.599339,83
1766015839.5993521,84
1766015839.5993652,84
1766015839.5993779,82
1766015839.59939,81
1766015839.599403,80
1766015839.599416,82
1766015839.5994291,84
1766015839.599442,88
1766015839.5994549,86
1766015839.599468,88
1766015839.599481,87
1766015839.599493,87
1766015839.599506,84
1766015839.599519,86
1766015839.5995321,87
1766015839.5995462,85
1766015839.59956,84
1766015839.599576,88
1766015839.5995898,84
1766015839.599602,85
1766015839.59962,84
1766015839.599636,84
1766015839.5996501,81
1766015839.599663,81
1766015839.599676,79
1766015839.599689,80
1766015839.599701,78
1766015839.599714,80
1766015839.5997272,78
1766015839.5997398,78
1766015839.599753,78
1766015839.599765,81
1766015839.599778,78
1766015839.599791,80
1766015839.599804,78
1766015839.599817,81
1766015839.59983,78
1766015839.599843,82
1766015839.5998552,80
1766015839.599869,80
1766015839.599881,86
1766015839.599895,85
1766015839.5999072,81
1766015839.59992,84
1766015839.599933,84
1766015839.599946,87
1766015839.5999591,85
1766015839.599971,83
1766015839.5999842,86
1766015839.6,84
1766015839.6000152,85
1766015839.600029,86
1766015839.6000419,85
1766015839.600055,86
1766015839.6000671,86
1766015839.6000798,86
1766015839.600093,81
1766015839.600106,84
1766015839.600119,81
1766015839.600132,82
1766015839.6001449,81
1766015839.600157,78
1766015839.60017,77
1766015839.600183,77
1766015839.6001961,77
1766015839.6002078,75
1766015839.600221,76
1766015839.600234,76
1766015839.6002471,73
1766015839.60026,73
1766015839.600273,71
1766015839.600286,75
1766015839.600298,75
1766015839.600312,76
1766015839.6003242,78
1766015839.6003368,75
1766015839.60035,79
1766015839.600363,80
1766015839.600375,79
1766015839.600388,80
1766015839.600401,80
1766015839.600415,78
1766015839.6004312,80
1766015839.600445,83
1766015839.600457,78
1766015839.600474,81
1766015839.600487,82
1766015839.600499,81
1766015839.600512,78
1766015839.6005251,79
1766015839.600538,80
1766015839.600551,82
1766015839.600564,84
1766015839.600577,82
1766015839.60059,81
1766015839.6006029,83
1766015839.60062,82
1766015839.600634,84
1766015839.60065,85
1766015839.600663,82
1766015839.600676,85
1766015839.600689,83
1766015839.600702,87
1766015839.600715,86
1766015839.600727,86
1766015839.6007402,84
1766015839.6007528,87
1766015839.600766,88
1766015839.600779,86
1766015839.6007922,91
1766015839.600805,89
1766015839.600818,88
1766015839.6008298,86
1766015839.600843,86
1766015839.600859,88
1766015839.600874,87
1766015839.600887,89
1766015839.6009002,88
1766015839.6009128,85
1766015839.600925,87
1766015839.600938,84
1766015839.600951,84
1766015839.600964,83
1766015839.600977,81
1766015839.6009889,81
1766015839.601002,81
1766015839.601015,80
1766015839.6010282,82
1766015839.6010408,81
1766015839.601054,81
1766015839.6010659,82
1766015839.601079,79
1766015839.601092,80
1766015839.601105,78
1766015839.6011178,77
1766015839.601131,80
1766015839.601144,77
1766015839.6011572,79
1766015839.6011698,77
1766015839.601182,82
1766015839.601195,81
1766015839.601208,79
1766015839.601221,79
1766015839.601233,81
1766015839.6012459,78
1766015839.601259,78
1766015839.601273,78
1766015839.601289,82
1766015839.601303,79
1766015839.6013162,80
1766015839.6013288,78
1766015839.601344,80
1766015839.601356,79
1766015839.6013691,76
1766015839.601384,79
1766015839.601399,81
1766015839.601412,80
1766015839.601425,79
1766015839.6014369,76
1766015839.60145,79
1766015839.601463,77
1766015839.6014762,76
1766015839.6014888,77
1766015839.601502,76
1766015839.601514,78
1766015839.601527,81
1766015839.601541,81
1766015839.6015549,79
1766015839.601567,78
1766015839.601581,79
1766015839.601593,77
1766015839.6016068,76
1766015839.6016252,76
1766015839.6016378,75
1766015839.601651,74
1766015839.601665,74
1766015839.6016781,72
1766015839.6016908,70
1766015839.601704,71
1766015839.601721,78
1766015839.601734,76
1766015839.601747,78
1766015839.60176,80
1766015839.601774,80
1766015839.6017869,80
1766015839.6018,83
1766015839.601813,81
1766015839.601826,83
1766015839.601838,80
1766015839.601851,83
1766015839.6018639,85
1766015839.601877,84
1766015839.60189,87
1766015839.6019032,82
1766015839.6019158,82
1766015839.601929,84
1766015839.601942,86
1766015839.6019552,85
1766015839.601969,82
1766015839.601983,84
1766015839.601996,86
1766015839.602009,83
1766015839.602022,81
1766015839.602035,83
1766015839.602049,81
1766015839.602062,80
1766015839.6020741,82
1766015839.602087,80
1766015839.6021,78
1766015839.602113,80
1766015839.6021261,80
1766015839.602141,78
1766015839.602157,77
1766015839.602169,78
1766015839.602182,77
1766015839.602196,75
1766015839.602208,75
1766015839.602221,75
1766015839.6022341,74
1766015839.602247,75
1766015839.6022599,77
1766015839.602273,75
1766015839.602286,72
1766015839.602299,76
1766015839.602311,78
1766015839.602325,73
1766015839.6023371,77
1766015839.60235,77
1766015839.6023629,76
1766015839.602377,77
1766015839.60239,80
1766015839.602404,77
1766015839.602417,78
1766015839.6024299,76
1766015839.602443,80
1766015839.6024609,86
1766015839.602474,95
1766015839.6024902,103
1766015839.602506,102
1766015839.6025229,102
1766015839.602539,106
1766015839.6025548,109
1766015839.602572,109
1766015839.602591,116
1766015839.602607,116
1766015839.6026309,115
1766015839.602648,115
1766015839.602664,116
1766015839.602679,115
1766015839.602698,111
1766015839.602714,115
1766015839.60273,111
1766015839.602746,113
1766015839.602762,109
1766015839.6027782,110
1766015839.602794,107
1766015839.6028101,107
1766015839.6028259,107
1766015839.6028411,107
1766015839.602858,104
1766015839.602873,106
1766015839.602889,107
1766015839.602905,101
1766015839.602921,101
1766015839.602939,103
1766015839.602955,102
1766015839.602968,98
1766015839.602981,97
1766015839.602994,98
1766015839.60301,98
1766015839.603023,97
1766015839.603036,94
1766015839.603049,98
1766015839.603062,95
1766015839.603074,94
1766015839.603088,92
1766015839.603101,96
1766015839.603114,95
1766015839.603127,94
1766015839.60314,90
1766015839.603153,94
1766015839.603167,94
1766015839.60318,94
1766015839.603193,92
1766015839.603206,92
1766015839.603219,89
1766015839.603232,90
1766015839.603245,89
1766015839.6032572,89
1766015839.6032698,88
1766015839.603283,86
1766015839.603296,88
1766015839.6033092,89
1766015839.603322,86
1766015839.603335,84
1766015839.603347,82
1766015839.60336,84
1766015839.603373,83
1766015839.6033862,83
1766015839.6033988,81
1766015839.603412,80
1766015839.603425,83
1766015839.603441,84
1766015839.603456,84
1766015839.603468,90
1766015839.603481,87
1766015839.603494,92
1766015839.603507,92
1766015839.60352,92
1766015839.603533,91
1766015839.6035461,95
1766015839.603559,97
1766015839.603572,99
1766015839.603585,98
1766015839.603598,97
1766015839.603611,98
1766015839.603631,93
1766015839.603644,95
1766015839.603657,93
1766015839.6036701,94
1766015839.603683,93
1766015839.6036952,93
1766015839.6037078,93
1766015839.603721,93
1766015839.603734,90
1766015839.6037471,91
1766015839.6037602,92
1766015839.6037729,88
1766015839.603786,91
1766015839.603799,90
1766015839.603811,90
1766015839.6038249,90
1766015839.603838,90
1766015839.603851,89
1766015839.603866,87
1766015839.603881,87
1766015839.603894,92
1766015839.603907,90
1766015839.603919,92
1766015839.6039329,93
1766015839.603946,97
1766015839.603959,93
1766015839.6039722,94
1766015839.6039848,93
1766015839.603999,96
1766015839.604013,98
1766015839.6040268,96
1766015839.60404,99
1766015839.6040561,101
1766015839.6040719,101
1766015839.604088,100
1766015839.604104,102
1766015839.60412,101
1766015839.604136,100
1766015839.604152,100
1766015839.6041632,99
1766015839.604177,101
1766015839.604191,100
1766015839.604202,97
1766015839.604213,96
1766015839.604225,96
1766015839.6042361,95
1766015839.604248,95
1766015839.604259,93
1766015839.60427,95
1766015839.604285,97
1766015839.6042979,95
1766015839.60431,96
1766015839.604321,95
1766015839.604332,94
1766015839.604343,96
1766015839.604355,92
1766015839.604366,92
1766015839.6043782,91
1766015839.6043892,91
1766015839.6044002,90
1766015839.6044118,87
1766015839.6044228,86
1766015839.604434,87
1766015839.604445,88
1766015839.604457,89
1766015839.6044679,88
1766015839.604479,85
1766015839.60449,88
1766015839.604502,83
1766015839.604513,82
1766015839.6045241,86
1766015839.604535,90
1766015839.604547,87
1766015839.604558,89
1766015839.6045692,85
1766015839.6045802,88
1766015839.6045911,87
1766015839.604602,87
1766015839.604619,86
1766015839.6046321,91
1766015839.604644,91
1766015839.604657,92
1766015839.604671,91
1766015839.604683,91
1766015839.604695,94
1766015839.604706,97
1766015839.604717,98
1766015839.604728,99
1766015839.6047401,95
1766015839.604751,94
1766015839.604762,95
1766015839.604773,91
1766015839.604784,95
1766015839.604795,93
1766015839.604806,94
1766015839.6048179,97
1766015839.6048288,93
1766015839.60484,94
1766015839.604851,93
1766015839.604862,92
1766015839.604874,91
1766015839.604885,94
1766015839.604896,94
1766015839.604907,93
1766015839.604918,92
1766015839.604929,91
1766015839.60494,91
1766015839.6049511,91
1766015839.604963,88
1766015839.604974,91
1766015839.604985,89
1766015839.6049988,89
1766015839.60501,88
1766015839.605022,86
1766015839.605035,89
1766015839.605046,86
1766015839.605057,87
1766015839.6050692,85
1766015839.6050801,84
1766015839.605092,81
1766015839.605103,85
1766015839.605119,83
1766015839.605131,82
1766015839.605142,82
1766015839.605154,84
1766015839.605165,80
1766015839.605176,82
1766015839.6051872,81
1766015839.605199,83
1766015839.60521,79
1766015839.605221,79
1766015839.6052322,81
1766015839.605244,80
1766015839.605255,79
1766015839.6052659,84
1766015839.6052768,79
1766015839.605289,84
1766015839.6053,86
1766015839.605311,83
1766015839.605324,84
1766015839.605335,84
1766015839.6053472,85
1766015839.6053581,86
1766015839.605369,86
1766015839.60538,85
1766015839.605391,87
1766015839.605404,86
1766015839.605418,87
1766015839.605431,86
1766015839.605442,88
1766015839.605453,90
1766015839.6054652,88
1766015839.6054761,89
1766015839.605487,89
1766015839.605498,86
1766015839.605509,84
1766015839.6055198,84
1766015839.605532,84
1766015839.605543,83
1766015839.6055539,83
1766015839.605566,85
1766015839.605577,80
1766015839.605588,81
1766015839.605599,84
1766015839.605611,88
1766015839.605622,92
1766015839.605639,96
1766015839.6056519,93
1766015839.605664,92
1766015839.605675,93
1766015839.605686,96
1766015839.605697,94
1766015839.605709,94
1766015839.60572,92
1766015839.605731,91
1766015839.6057448,90
1766015839.605757,93
1766015839.605768,94
1766015839.605779,90
1766015839.605794,94
1766015839.605807,93
1766015839.605818,90
1766015839.60583,89
1766015839.6058419,89
1766015839.6058571,90
1766015839.605868,86
1766015839.60588,89
1766015839.6058922,87
1766015839.6059048,86
1766015839.6059158,87
1766015839.605927,86
1766015839.605938,85
1766015839.6059499,87
1766015839.6059608,86
1766015839.605972,82
1766015839.605983,81
1766015839.605995,85
1766015839.606006,84
1766015839.606017,83
1766015839.606028,86
1766015839.60604,82
1766015839.606051,84
1766015839.6060622,84
1766015839.606074,86
1766015839.606085,83
1766015839.6060958,86
1766015839.606107,87
1766015839.606119,90
1766015839.60613,90
1766015839.6061409,88
1766015839.606153,85
1766015839.606164,88
1766015839.606177,85
1766015839.606188,87
1766015839.6062,86
1766015839.6062112,85
1766015839.6062222,85
1766015839.6062331,84
1766015839.606245,83
1766015839.6062562,83
1766015839.606267,82
1766015839.606278,84
1766015839.6062899,82
1766015839.6063008,82
1766015839.606312,81
1766015839.606324,81
1766015839.606335,82
1766015839.6063511,79
1766015839.606362,81
1766015839.606373,81
1766015839.606384,80
1766015839.606397,79
1766015839.606409,76
1766015839.60642,77
1766015839.606432,77
1766015839.606443,77
1766015839.6064541,75
1766015839.606465,77
1766015839.606476,75
1766015839.606487,74
1766015839.606499,73
1766015839.6065102,72
1766015839.6065211,71
1766015839.606532,70
1766015839.606545,71
1766015839.606559,71
1766015839.606571,68
1766015839.606583,71
1766015839.606594,70
1766015839.606605,69
1766015839.606616,69
1766015839.606627,68
1766015839.606647,68
1766015839.6066592,67
1766015839.6066701,68
1766015839.606681,70
1766015839.606693,69
1766015839.6067042,65
1766015839.606715,67
1766015839.606726,63
1766015839.6067379,63
1766015839.60675,64
1766015839.606762,66
1766015839.606773,64
1766015839.606784,63
1766015839.606795,66
1766015839.606806,65
1766015839.606818,63
1766015839.6068292,65
1766015839.6068401,62
1766015839.606851,63
1766015839.606862,61
1766015839.606873,61
1766015839.6068852,62
1766015839.6068962,61
1766015839.606907,62
1766015839.6069179,60
1766015839.606932,62
1766015839.606946,61
1766015839.606957,58
1766015839.6069682,61
1766015839.6069791,61
1766015839.606991,60
1766015839.607002,59
1766015839.6070132,59
1766015839.6070242,61
1766015839.607038,58
1766015839.607049,61
1766015839.60706,59
1766015839.607071,59
1766015839.607083,60
1766015839.607094,61
1766015839.607105,57
1766015839.607117,62
1766015839.6071281,58
1766015839.607139,60
1766015839.607151,60
1766015839.607162,61
1766015839.6071732,59
1766015839.607184,59
1766015839.6071959,59
1766015839.6072068,59
1766015839.607219,57
1766015839.60723,57
1766015839.607241,57
1766015839.607252,57
1766015839.607264,58
1766015839.607275,59
1766015839.607286,56
1766015839.607297,55
1766015839.607311,57
1766015839.607324,57
1766015839.6073349,55
1766015839.607347,59
1766015839.607358,58
1766015839.607369,59
1766015839.60738,56
1766015839.6073909,56
1766015839.607402,56
1766015839.607414,55
1766015839.607425,56
1766015839.607436,55
1766015839.6074471,59
1766015839.607458,57
1766015839.607469,55
1766015839.60748,54
1766015839.607491,58
1766015839.6075032,56
1766015839.6075149,57
1766015839.6075258,56
1766015839.6075368,58
1766015839.607548,55
1766015839.607559,58
1766015839.60757,60
1766015839.607581,57
1766015839.6075919,58
1766015839.607604,56
1766015839.607615,59
1766015839.607626,55
1766015839.60764,53
1766015839.6076531,58
1766015839.607664,56
1766015839.607677,58
1766015839.607692,58
1766015839.6077042,56
1766015839.6077151,59
1766015839.607727,56
1766015839.607738,58
1766015839.6077492,58
1766015839.60776,57
1766015839.607771,55
1766015839.6077828,57
1766015839.6077938,56
1766015839.607805,54
1766015839.607816,55
1766015839.607828,55
1766015839.6078389,60
1766015839.60785,58
1766015839.607861,56
1766015839.607873,58
1766015839.607884,55
1766015839.6078951,58
1766015839.607906,58
1766015839.607917,58
1766015839.607928,60
1766015839.607939,57
1766015839.6079512,57
1766015839.6079621,57
1766015839.607973,58
1766015839.607984,56
1766015839.607996,58
1766015839.608007,56
1766015839.60802,57
1766015839.608031,58
1766015839.608042,57
1766015839.608056,55
1766015839.608068,56
1766015839.6080792,56
1766015839.6080902,56
1766015839.6081011,55
1766015839.608112,55
1766015839.6081228,59
1766015839.608135,58
1766015839.608146,58
1766015839.608157,55
1766015839.608168,56
1766015839.60818,56
1766015839.608191,57
1766015839.608202,58
1766015839.608213,57
1766015839.608225,56
1766015839.608236,59
1766015839.608247,57
1766015839.608258,59
1766015839.6082702,59
1766015839.6082811,58
1766015839.608292,61
1766015839.608303,59
1766015839.608314,60
1766015839.608327,58
1766015839.6083388,61
1766015839.60835,61
1766015839.608361,61
1766015839.608372,58
1766015839.608384,59
1766015839.608395,58
1766015839.608406,57
1766015839.6084192,58
1766015839.608433,58
1766015839.608444,57
1766015839.608456,58
1766015839.6084669,55
1766015839.608479,60
1766015839.60849,58
1766015839.608501,60
1766015839.608512,61
1766015839.608523,60
1766015839.608534,61
1766015839.608546,56
1766015839.608557,60
1766015839.608568,56
1766015839.6085792,58
1766015839.608591,58
1766015839.608602,59
1766015839.608613,55
1766015839.608625,56
1766015839.608636,58
1766015839.6086552,56
1766015839.6086662,56
1766015839.6086779,56
1766015839.6086888,55
1766015839.6086998,56
1766015839.608711,58
1766015839.608722,59
1766015839.608733,60
1766015839.6087449,57
1766015839.608762,56
1766015839.608774,57
1766015839.608785,58
1766015839.6088,54
1766015839.6088152,55
1766015839.6088278,59
1766015839.6088388,56
1766015839.60885,58
1766015839.608861,58
1766015839.608873,59
1766015839.6088839,56
1766015839.608895,58
1766015839.608906,57
1766015839.608917,56
1766015839.608928,57
1766015839.608939,55
1766015839.60895,58
1766015839.608961,57
1766015839.608972,57
1766015839.608983,55
1766015839.608994,54
1766015839.6090062,57
1766015839.6090171,60
1766015839.609028,56
1766015839.609039,58
1766015839.60905,57
1766015839.609062,58
1766015839.609073,55
1766015839.609084,57
1766015839.6090949,55
1766015839.6091058,54
1766015839.609117,52
1766015839.609128,54
1766015839.609139,53
1766015839.60915,54
1766015839.609161,53
1766015839.609174,55
1766015839.609188,54
1766015839.6092002,50
1766015839.609211,54
1766015839.609222,50
1766015839.609233,56
1766015839.6092439,58
1766015839.6092548,59
1766015839.6092658,56
1766015839.609277,52
1766015839.609289,55
1766015839.6093,56
1766015839.6093109,52
1766015839.609341,53
1766015839.609353,54
1766015839.609364,55
1766015839.609498,55
1766015839.609515,52
1766015839.609527,54
1766015839.609539,54
1766015839.60955,51
1766015839.6095622,51
1766015839.6095731,50
1766015839.6095848,53
1766015839.609596,52
1766015839.609607,54
1766015839.609619,55
1766015839.6096299,51
1766015839.609641,50
1766015839.609652,55
1766015839.609663,53
1766015839.609675,55
1766015839.609686,52
1766015839.6097019,50
1766015839.6097128,52
1766015839.609725,50
1766015839.609736,50
1766015839.609747,52
1766015839.609758,54
1766015839.6097689,56
1766015839.60978,55
1766015839.609791,54
1766015839.609802,56
1766015839.609813,53
1766015839.6098251,53
1766015839.609836,51
1766015839.609847,55
1766015839.609858,52
1766015839.609869,54
1766015839.6098812,52
1766015839.6098921,51
1766015839.609903,51
1766015839.609914,52
1766015839.609926,50
1766015839.609937,51
1766015839.609948,48
1766015839.609959,49
1766015839.609971,51
1766015839.609982,48
1766015839.609993,50
1766015839.610004,51
1766015839.610016,49
1766015839.610027,49
1766015839.6101,52
1766015839.610136,48
1766015839.6101491,47
1766015839.6101708,50
1766015839.610184,49
1766015839.610197,49
1766015839.61021,51
1766015839.610223,49
1766015839.610235,52
1766015839.6102479,49
1766015839.610261,48
1766015839.610274,50
1766015839.610286,51
1766015839.6102989,52
1766015839.610312,51
1766015839.610325,49
1766015839.610338,49
1766015839.6103501,52
1766015839.6103628,51
1766015839.610376,53
1766015839.610389,53
1766015839.610401,49
1766015839.610414,50
1766015839.6104262,49
1766015839.61044,51
1766015839.610453,48
1766015839.610465,47
1766015839.6104782,47
1766015839.61049,52
1766015839.610503,48
1766015839.610516,51
1766015839.610529,48
1766015839.610545,50
1766015839.610558,50
1766015839.61057,48
1766015839.610585,46
1766015839.610658,48
1766015839.610677,47
1766015839.610733,50
1766015839.61075,50
1766015839.6107872,54
1766015839.6107981,49
1766015839.610809,51
1766015839.610819,52
1766015839.610829,50
1766015839.6108391,53
1766015839.6108491,51
1766015839.610861,53
1766015839.6109078,51
1766015839.6109319,53
1766015839.610977,54
1766015839.610995,54
1766015839.611008,51
1766015839.611021,55
1766015839.6110342,55
1766015839.611047,54
1766015839.61106,57
1766015839.611073,59
1766015839.6111271,56
1766015839.6111841,57
1766015839.611223,56
1766015839.611238,57
1766015839.6112509,55
1766015839.611264,59
1766015839.61133,55
1766015839.6113431,57
1766015839.611356,55
1766015839.611369,57
1766015839.6113868,57
1766015839.6114008,61
1766015839.611414,59
1766015839.6114502,60
1766015839.611477,63
1766015839.611489,61
1766015839.611499,62
1766015839.61151,62
1766015839.61152,63
1766015839.61153,62
1766015839.61154,66
1766015839.611552,64
1766015839.611563,68
1766015839.611574,65
1766015839.611584,69
1766015839.611594,70
1766015839.611604,63
1766015839.611615,67
1766015839.611625,68
1766015839.611635,69
1766015839.611673,67
1766015839.611685,68
1766015839.6116962,67
1766015839.611746,67
1766015839.611757,69
1766015839.611767,69
1766015839.611777,70
1766015839.611787,73
1766015839.611797,73
1766015839.611806,75
1766015839.611816,69
1766015839.611829,71
1766015839.611849,73
1766015839.611865,70
1766015839.611876,71
1766015839.611886,72
1766015839.611897,68
1766015839.6119092,71
1766015839.6119199,68
1766015839.6119301,69
1766015839.6119401,69
1766015839.611951,70
1766015839.611962,71
1766015839.611972,72
1766015839.612006,72
1766015839.612022,70
1766015839.612034,72
1766015839.6120472,68
1766015839.6120598,73
1766015839.612073,76
1766015839.612109,74
1766015839.612134,79
1766015839.612152,81
1766015839.6121652,80
1766015839.6121778,87
1766015839.612191,85
1766015839.612204,82
1766015839.612216,84
1766015839.612229,83
1766015839.612242,84
1766015839.612254,83
1766015839.612267,85
1766015839.6122801,83
1766015839.612292,82
1766015839.612305,81
1766015839.6123211,83
1766015839.6123362,81
1766015839.6123478,85
1766015839.612361,86
1766015839.6123729,86
1766015839.612386,84
1766015839.6123981,88
1766015839.61241,88
1766015839.612423,89
1766015839.6124349,89
1766015839.612448,92
1766015839.6124601,93
1766015839.612472,90
1766015839.612484,88
1766015839.6124969,88
1766015839.612509,87
1766015839.612521,88
1766015839.612533,90
1766015839.612546,91
1766015839.6125581,88
1766015839.61257,90
1766015839.612583,88
1766015839.6125948,87
1766015839.612612,88
1766015839.612624,87
1766015839.612637,87
1766015839.612649,86
1766015839.612662,87
1766015839.612674,87
1766015839.612687,85
1766015839.6126988,84
1766015839.612711,85
1766015839.612724,83
1766015839.612742,82
1766015839.612756,82
1766015839.612768,80
1766015839.61278,83
1766015839.6127932,86
1766015839.6128051,85
1766015839.612818,89
1766015839.6128309,90
1766015839.612843,94
1766015839.6128561,92
1766015839.612871,94
1766015839.6128829,94
1766015839.612896,92
1766015839.6129081,93
1766015839.61292,96
1766015839.6129332,92
1766015839.6129448,94
1766015839.612957,88
1766015839.612969,91
1766015839.612982,88
1766015839.612994,86
1766015839.613006,88
1766015839.613019,86
1766015839.613031,90
1766015839.613044,87
1766015839.613056,90
1766015839.613069,90
1766015839.613081,89
1766015839.6130939,90
1766015839.613106,88
1766015839.613118,87
1766015839.613131,87
1766015839.613143,87
1766015839.613159,87
1766015839.613174,86
1766015839.6131861,90
1766015839.613198,90
1766015839.613211,93
1766015839.6132228,96
1766015839.613235,99
1766015839.613251,101
1766015839.613266,104
1766015839.613281,103
1766015839.613296,105
1766015839.613312,104
1766015839.613327,103
1766015839.613342,100
1766015839.613357,102
1766015839.6133718,106
1766015839.613387,104
1766015839.6134028,103
1766015839.613418,104
1766015839.6134331,102
1766015839.613448,104
1766015839.613464,100
1766015839.613479,100
1766015839.613491,98
1766015839.613507,101
1766015839.6135218,100
1766015839.613534,96
1766015839.613546,97
1766015839.613559,98
1766015839.613575,95
1766015839.61359,98
1766015839.6136022,98
1766015839.613615,95
1766015839.613627,96
1766015839.6136389,96
1766015839.613651,96
1766015839.613664,94
1766015839.613676,96
1766015839.6136892,94
1766015839.613701,94
1766015839.6137128,93
1766015839.613725,96
1766015839.613738,94
1766015839.61375,95
1766015839.6137621,95
1766015839.613775,92
1766015839.613787,93
1766015839.6137989,92
1766015839.613812,94
1766015839.613824,97
1766015839.613836,99
1766015839.613848,99
1766015839.613861,99
1766015839.613873,98
1766015839.613885,93
1766015839.613898,97
1766015839.61391,97
1766015839.613922,96
1766015839.613935,96
1766015839.613947,95
1766015839.6139588,98
1766015839.613975,100
1766015839.614,102
1766015839.6140149,102
1766015839.614031,102
1766015839.6140459,104
1766015839.614059,103
1766015839.6140711,103
1766015839.6140852,101
1766015839.6140978,102
1766015839.6141078,97
1766015839.6141179,99
1766015839.6141288,97
1766015839.6141388,97
1766015839.614149,97
1766015839.6141598,94
1766015839.61417,97
1766015839.614181,94
1766015839.614191,93
1766015839.614201,95
1766015839.614212,92
1766015839.614222,93
1766015839.614232,93
1766015839.614243,92
1766015839.614253,88
1766015839.614263,91
1766015839.614274,89
1766015839.614284,88
1766015839.614295,87
1766015839.614305,89
1766015839.614316,93
1766015839.614326,90
1766015839.61434,92
1766015839.61435,92
1766015839.614362,94
1766015839.6143732,94
1766015839.6143832,95
1766015839.6143942,93
1766015839.6144042,94
1766015839.6144152,92
1766015839.6144252,92
1766015839.6144361,95
1766015839.6144462,91
1766015839.6144562,92
1766015839.614466,92
1766015839.6144772,90
1766015839.614487,92
1766015839.614497,91
1766015839.614508,89
1766015839.614518,91
1766015839.614528,92
1766015839.614539,92
1766015839.614549,89
1766015839.61456,89
1766015839.61457,89
1766015839.61458,88
1766015839.614591,89
1766015839.614601,90
1766015839.614611,91
1766015839.6146219,86
1766015839.614632,87
1766015839.6146429,87
1766015839.6146529,88
1766015839.6146638,85
1766015839.6146739,85
1766015839.6146848,88
1766015839.6146991,85
1766015839.614711,87
1766015839.614722,86
1766015839.614732,87
1766015839.614742,89
1766015839.614753,85
1766015839.614764,86
1766015839.614774,86
1766015839.614785,85
1766015839.614795,85
1766015839.614805,85
1766015839.6148171,84
1766015839.614827,84
1766015839.6148381,82
1766015839.614848,81
1766015839.614859,83
1766015839.6148689,82
1766015839.61488,82
1766015839.61489,79
1766015839.614901,82
1766015839.614911,82
1766015839.614922,82
1766015839.614932,81
1766015839.614943,82
1766015839.614953,84
1766015839.614964,82
1766015839.614974,84
1766015839.614985,83
1766015839.614995,85
1766015839.615005,81
1766015839.615016,84
1766015839.615026,80
1766015839.615037,83
1766015839.61505,80
1766015839.615061,81
1766015839.6150742,82
1766015839.615084,82
1766015839.6150951,81
1766015839.615105,83
1766015839.615115,83
1766015839.6151261,84
1766015839.615136,81
1766015839.615146,82
1766015839.615157,83
1766015839.615167,83
1766015839.615177,80
1766015839.615188,83
1766015839.615198,82
1766015839.615208,81
1766015839.615218,85
1766015839.615229,79
1766015839.615239,79
1766015839.6152499,81
1766015839.61526,80
1766015839.61527,79
1766015839.6152809,82
1766015839.6152909,82
1766015839.6153011,82
1766015839.6153111,80
1766015839.615322,76
1766015839.6153321,78
1766015839.6153421,79
1766015839.615353,79
1766015839.6153631,76
1766015839.615374,79
1766015839.615384,79
1766015839.615395,79
1766015839.615409,78
1766015839.6154208,77
1766015839.6154308,76
1766015839.615442,79
1766015839.6154518,77
1766015839.6154618,77
1766015839.6154728,76
1766015839.6154828,76
1766015839.615493,77
1766015839.6155038,77
1766015839.615514,73
1766015839.615525,77
1766015839.615535,77
1766015839.6155462,79
1766015839.615558,76
1766015839.6155698,74
1766015839.6155798,73
1766015839.6155899,73
1766015839.6156008,73
1766015839.6156108,74
1766015839.6156218,75
1766015839.6156318,77
1766015839.6156428,75
1766015839.615653,74
1766015839.6156642,76
1766015839.615674,75
1766015839.615684,76
1766015839.615695,71
1766015839.615705,73
1766015839.615716,72
1766015839.615726,74
1766015839.615736,74
1766015839.615747,73
1766015839.6157608,73
1766015839.615774,75
1766015839.615785,72
1766015839.615795,73
1766015839.615805,73
1766015839.615815,75
1766015839.615826,76
1766015839.6158369,75
1766015839.6158469,73
1766015839.6158578,74
1766015839.6158679,73
1766015839.6158779,72
1766015839.6158888,72
1766015839.6158988,72
1766015839.6159098,71
1766015839.61592,72
1766015839.61593,72
1766015839.615941,71
1766015839.615951,71
1766015839.615961,70
1766015839.615972,72
1766015839.615982,70
1766015839.615993,72
1766015839.616003,71
1766015839.616013,73
1766015839.616024,73
1766015839.616034,71
1766015839.616044,72
1766015839.616054,74
1766015839.616089,72
1766015839.6161,69
1766015839.616111,71
1766015839.616121,67
1766015839.616135,69
1766015839.616148,69
1766015839.616159,74
1766015839.616169,72
1766015839.61618,69
1766015839.61619,71
1766015839.616215,72
1766015839.6162271,75
1766015839.616238,69
1766015839.6162481,72
1766015839.616259,70
1766015839.616271,71
1766015839.6162822,70
1766015839.616292,68
1766015839.6163032,67
1766015839.6163142,69
1766015839.6163251,70
1766015839.6163359,72
1766015839.6163468,70
1766015839.6163578,70
1766015839.616369,66
1766015839.61638,72
1766015839.616391,68
1766015839.616402,70
1766015839.6164129,68
1766015839.6164238,69
1766015839.616435,68
1766015839.616446,69
1766015839.616457,67
1766015839.616468,68
1766015839.616478,68
1766015839.616489,67
1766015839.6165,67
1766015839.6165152,70
1766015839.616527,67
1766015839.6165388,68
1766015839.616549,66
1766015839.6165602,69
1766015839.616571,66
1766015839.616582,67
1766015839.616593,68
1766015839.6166039,66
1766015839.6166148,67
1766015839.6166248,66
1766015839.6166358,66
1766015839.616647,68
1766015839.6166568,64
1766015839.616668,63
1766015839.616679,62
1766015839.61669,64
1766015839.616701,66
1766015839.6167119,63
1766015839.616723,67
1766015839.616734,66
1766015839.616745,66
1766015839.616756,65
1766015839.616767,62
1766015839.616778,65
1766015839.616791,64
1766015839.616802,62
1766015839.616812,63
1766015839.6168242,65
1766015839.6168342,61
1766015839.6168451,61
1766015839.616856,61
1766015839.616867,60
1766015839.616878,63
1766015839.6168919,62
1766015839.616905,60
1766015839.616916,59
1766015839.616927,62
1766015839.616937,60
1766015839.616948,60
1766015839.616959,62
1766015839.61697,59
1766015839.61698,58
1766015839.616991,61
1766015839.617002,62
1766015839.617013,57
1766015839.617024,59
1766015839.617035,59
1766015839.617046,62
1766015839.617056,59
1766015839.617067,60
1766015839.617078,62
1766015839.617089,60
1766015839.617099,61
1766015839.61711,59
1766015839.617121,58
1766015839.617132,59
1766015839.6171432,58
1766015839.617155,57
1766015839.617166,60
1766015839.617177,57
1766015839.617188,57
1766015839.6171992,59
1766015839.6172101,57
1766015839.6172202,58
1766015839.6172318,55
1766015839.617242,56
1766015839.617259,57
1766015839.6172721,59
1766015839.617283,57
1766015839.617294,56
1766015839.617306,57
1766015839.6173172,58
1766015839.6173282,56
1766015839.617339,58
1766015839.6173508,56
1766015839.6173608,55
1766015839.617373,56
1766015839.617384,56
1766015839.617395,53
1766015839.617406,53
1766015839.6174169,53
1766015839.617428,53
1766015839.617439,52
1766015839.61745,51
1766015839.61746,51
1766015839.617472,51
1766015839.617483,53
1766015839.617493,55
1766015839.617504,51
1766015839.617516,49
1766015839.617526,52
1766015839.617537,52
1766015839.617548,55
1766015839.617559,50
1766015839.6175702,54
1766015839.61758,51
1766015839.6175911,52
1766015839.617602,49
1766015839.617614,49
1766015839.6176288,50
1766015839.617644,50
1766015839.617655,52
1766015839.617666,51
1766015839.617677,52
1766015839.617687,49
1766015839.617698,50
1766015839.6177092,52
1766015839.6177201,50
1766015839.617731,53
1766015839.617742,51
1766015839.617752,51
1766015839.617763,50
1766015839.617774,48
1766015839.617785,52
1766015839.6177962,50
1766015839.6178071,50
1766015839.617818,46
1766015839.617829,51
1766015839.61784,52
1766015839.6178508,52
1766015839.617862,48
1766015839.6178718,51
1766015839.617883,47
1766015839.617894,48
1766015839.617905,48
1766015839.6179159,48
1766015839.6179268,51
1766015839.6179368,45
1766015839.6179478,49
1766015839.61796,49
1766015839.617971,49
1766015839.617982,47
1766015839.617996,50
1766015839.618009,50
1766015839.61802,49
1766015839.618031,48
1766015839.6180422,49
1766015839.6180532,46
1766015839.618064,47
1766015839.618075,47
1766015839.6180851,46
1766015839.6180968,46
1766015839.6181068,47
1766015839.6181178,51
1766015839.618129,43
1766015839.61814,47
1766015839.618151,49
1766015839.618161,43
1766015839.618172,49
1766015839.618183,48
1766015839.6181939,47
1766015839.6182048,46
1766015839.618216,49
1766015839.618227,48
1766015839.618238,49
1766015839.618249,46
1766015839.61826,47
1766015839.6182709,50
1766015839.618281,46
1766015839.6182919,45
1766015839.618303,46
1766015839.618314,46
1766015839.618324,44
1766015839.618336,46
1766015839.618347,47
1766015839.618363,46
1766015839.618377,46
1766015839.618387,45
1766015839.618398,46
1766015839.618412,45
1766015839.618423,43
1766015839.618434,43
1766015839.6184452,44
1766015839.6184561,42
1766015839.618467,46
1766015839.618478,43
1766015839.618489,45
1766015839.618499,47
1766015839.61851,46
1766015839.618521,44
1766015839.6185322,45
1766015839.6185431,43
1766015839.618554,46
1766015839.6185658,44
1766015839.6185758,45
1766015839.6185868,46
1766015839.618598,44
1766015839.618609,46
1766015839.61862,45
1766015839.618631,44
1766015839.6186419,42
1766015839.6186528,47
1766015839.6186628,46
1766015839.6186738,46
1766015839.618685,42
1766015839.618696,45
1766015839.618707,46
1766015839.618718,44
1766015839.618735,43
1766015839.618748,42
1766015839.618759,43
1766015839.618769,46
1766015839.6187809,43
1766015839.6187909,43
1766015839.6188018,47
1766015839.618813,41
1766015839.618824,42
1766015839.618835,41
1766015839.618846,43
1766015839.618857,42
1766015839.6188679,43
1766015839.618879,41
1766015839.61889,41
1766015839.618901,39
1766015839.618912,41
1766015839.618923,39
1766015839.618934,44
1766015839.6189451,42
1766015839.618956,37
1766015839.618967,42
1766015839.618978,41
1766015839.618988,41
1766015839.618999,42
1766015839.61901,41
1766015839.619021,42
1766015839.6190321,37
1766015839.619043,42
1766015839.6190531,41
1766015839.6190689,42
1766015839.6190789,40
1766015839.6190898,37
1766015839.619104,39
1766015839.619115,40
1766015839.619127,42
1766015839.619138,41
1766015839.619149,37
1766015839.6191602,41
1766015839.61917,39
1766015839.6191812,39
1766015839.6191921,39
1766015839.619203,39
1766015839.619214,37
1766015839.6192262,40
1766015839.6192372,40
1766015839.6192482,39
1766015839.6192589,37
1766015839.6192698,42
1766015839.6192808,39
1766015839.6192908,38
1766015839.6193018,38
1766015839.619313,36
1766015839.619324,39
1766015839.619334,41
1766015839.619345,38
1766015839.619356,38
1766015839.619367,39
1766015839.6193779,38
1766015839.6193888,40
1766015839.6194,37
1766015839.619411,38
1766015839.619422,35
1766015839.619432,39
1766015839.619443,36
1766015839.619454,38
1766015839.6194649,38
1766015839.619479,34
1766015839.619492,38
1766015839.619503,35
1766015839.6195142,39
1766015839.6195252,36
1766015839.619536,37
1766015839.619547,38
1766015839.6195579,40
1766015839.619568,38
1766015839.6195798,39
1766015839.6195898,34
1766015839.619601,38
1766015839.619612,36
1766015839.619623,37
1766015839.619634,37
1766015839.6196449,38
1766015839.619657,37
1766015839.619668,37
1766015839.619684,35
1766015839.6196952,38
1766015839.6197062,36
1766015839.6197171,39
1766015839.6197278,34
1766015839.6197388,37
1766015839.6197498,38
1766015839.619761,34
1766015839.619772,36
1766015839.619783,38
1766015839.619794,37
1766015839.6198049,38
1766015839.6198158,36
1766015839.619827,37
1766015839.619838,35
1766015839.619852,37
1766015839.6198661,36
1766015839.619877,36
1766015839.619888,38
1766015839.6198988,37
1766015839.619909,35
1766015839.6199198,35
1766015839.61993,34
1766015839.619942,37
1766015839.6199522,34
1766015839.619963,35
1766015839.619974,34
1766015839.6199849,32
1766015839.6199949,34
1766015839.6200058,34
1766015839.6200168,35
1766015839.6200268,35
1766015839.6200361,37
1766015839.620045,36
1766015839.620055,36
1766015839.620064,32
1766015839.6200728,35
1766015839.620082,35
1766015839.620092,34
1766015839.6201012,37
1766015839.62011,37
1766015839.62012,32
1766015839.620129,33
1766015839.620138,33
1766015839.620147,35
1766015839.620157,32
1766015839.6201658,34
1766015839.6201751,32
1766015839.6201868,32
1766015839.6201978,33
1766015839.620208,32
1766015839.620217,30
1766015839.620227,33
1766015839.620236,34
1766015839.620245,35
1766015839.620254,34
1766015839.620264,31
1766015839.6202729,33
1766015839.6202822,33
1766015839.620291,37
1766015839.6203,34
1766015839.62031,31
1766015839.620319,30
1766015839.620328,32
1766015839.620338,32
1766015839.6203468,33
1766015839.620356,32
1766015839.620366,32
1766015839.6203752,32
1766015839.620385,33
1766015839.620394,35
1766015839.620404,33
1766015839.6204128,32
1766015839.620422,33
1766015839.620432,31
1766015839.6204412,33
1766015839.620451,30
1766015839.62046,33
1766015839.62047,30
1766015839.6204789,34
1766015839.620489,33
1766015839.620498,32
1766015839.620511,33
1766015839.620522,33
1766015839.620532,33
1766015839.6205409,31
1766015839.6205509,34
1766015839.620561,32
1766015839.6205702,31
1766015839.6205802,35
1766015839.620589,32
1766015839.620599,35
1766015839.620608,33
1766015839.6206179,31
1766015839.620627,34
1766015839.620636,31
1766015839.620646,30
1766015839.620655,31
1766015839.6206641,32
1766015839.6206741,30
1766015839.620683,30
1766015839.620692,33
1766015839.620702,30
1766015839.6207108,31
1766015839.6207209,30
1766015839.6207302,32
1766015839.6207402,30
1766015839.620749,32
1766015839.620759,30
1766015839.620768,31
1766015839.620778,31
1766015839.620787,31
1766015839.620797,31
1766015839.620806,30
1766015839.620815,32
1766015839.620827,32
1766015839.6208372,32
1766015839.620847,30
1766015839.620857,30
1766015839.620866,31
1766015839.620876,34
1766015839.620886,30
1766015839.620895,32
1766015839.620904,30
1766015839.620914,34
1766015839.6209228,30
1766015839.620933,30
1766015839.620942,29
1766015839.6209521,31
1766015839.620961,30
1766015839.62097,28
1766015839.6209788,29
1766015839.620988,29
1766015839.620998,31
1766015839.621008,31
1766015839.621017,29
1766015839.621026,34
1766015839.621037,30
1766015839.621047,33
1766015839.621058,32
1766015839.621067,31
1766015839.621077,29
1766015839.621086,33
1766015839.621095,33
1766015839.6211042,32
1766015839.621114,30
1766015839.6211278,29
1766015839.6211379,28
1766015839.621147,32
1766015839.62116,30
1766015839.621171,33
1766015839.6211798,29
1766015839.6211898,33
1766015839.6211991,31
1766015839.621208,31
1766015839.621217,31
1766015839.621227,33
1766015839.621236,31
1766015839.6212459,28
1766015839.6212559,31
1766015839.621265,32
1766015839.621275,29
1766015839.6212852,30
1766015839.621294,29
1766015839.621303,33
1766015839.621313,31
1766015839.621322,29
1766015839.621332,32
1766015839.621341,33
1766015839.6213498,28
1766015839.62136,33
1766015839.6213691,30
1766015839.6213791,30
1766015839.6213892,30
1766015839.621398,29
1766015839.621408,32
1766015839.621418,29
1766015839.621427,29
1766015839.6214368,30
1766015839.621446,30
1766015839.621456,32
1766015839.6214652,32
1766015839.6214778,29
1766015839.6214888,31
1766015839.6214988,31
1766015839.6215081,31
1766015839.6215181,30
1766015839.621527,29
1766015839.621536,31
1766015839.621545,29
1766015839.621554,31
1766015839.621564,28
1766015839.621574,33
1766015839.621583,29
1766015839.621593,28
1766015839.621602,31
1766015839.621611,28
1766015839.621621,31
1766015839.62163,32
1766015839.62164,31
1766015839.6216488,29
1766015839.621658,28
1766015839.621668,30
1766015839.621678,31
1766015839.621687,32
1766015839.621696,29
1766015839.621706,32
1766015839.6217148,31
1766015839.621724,32
1766015839.6217332,32
1766015839.6217432,30
1766015839.621753,30
1766015839.621762,30
1766015839.621772,32
1766015839.621781,34
1766015839.621793,31
1766015839.621803,30
1766015839.621814,30
1766015839.621823,31
1766015839.621832,34
1766015839.621842,31
1766015839.621851,30
1766015839.62186,32
1766015839.62187,30
1766015839.621879,33
1766015839.621888,32
1766015839.621898,29
1766015839.621907,28
1766015839.622002,30
1766015839.622012,31
1766015839.6220212,29
1766015839.6220312,31
1766015839.62204,30
1766015839.62205,27
1766015839.622059,32
1766015839.622069,32
1766015839.622078,31
1766015839.622087,28
1766015839.6220968,33
1766015839.622106,29
1766015839.6221151,33
1766015839.6221251,32
1766015839.622134,28
1766015839.622143,29
1766015839.622153,27
1766015839.6221619,29
1766015839.6221719,30
1766015839.6221812,30
1766015839.62219,33
1766015839.6222022,31
1766015839.6222131,33
1766015839.6222222,33
1766015839.622232,32
1766015839.622241,32
1766015839.622251,30
1766015839.6222599,30
1766015839.6222699,29
1766015839.622279,28
1766015839.622289,31
1766015839.622298,34
1766015839.622308,32
1766015839.622317,31
1766015839.622327,33
1766015839.622336,27
1766015839.622345,29
1766015839.622355,33
1766015839.6223638,30
1766015839.6223738,31
1766015839.622383,31
1766015839.6223931,32
1766015839.6224031,29
1766015839.6224132,30
1766015839.622422,31
1766015839.622432,32
1766015839.622441,30
1766015839.6224508,32
1766015839.62246,27
1766015839.62247,30
1766015839.6224792,30
1766015839.622489,30
1766015839.622498,29
1766015839.622508,28
1766015839.62252,27
1766015839.6225321,29
1766015839.6225421,29
1766015839.622551,29
1766015839.622561,28
1766015839.622571,29
1766015839.62258,29
1766015839.6225889,30
1766015839.622599,31
1766015839.622609,28
1766015839.6226182,26
1766015839.622627,29
1766015839.622636,29
1766015839.622646,29
1766015839.622655,32
1766015839.622665,29
1766015839.622675,30
1766015839.622684,28
1766015839.6226938,30
1766015839.622703,26
1766015839.622713,29
1766015839.6227221,31
1766015839.622732,26
1766015839.622742,27
1766015839.622751,28
1766015839.622761,28
1766015839.6227698,28
1766015839.6227798,28
1766015839.6227891,31
1766015839.6227992,28
1766015839.622808,30
1766015839.622817,28
1766015839.622827,27
1766015839.622839,28
1766015839.6228511,28
1766015839.6228611,25
1766015839.62287,29
1766015839.622879,27
1766015839.6228878,27
1766015839.6228979,30
1766015839.622907,27
1766015839.622916,26
1766015839.622925,27
1766015839.622935,27
1766015839.622944,27
1766015839.622954,25
1766015839.622963,29
1766015839.622973,28
1766015839.6229818,26
1766015839.6229918,28
1766015839.623002,27
1766015839.623011,28
1766015839.6230211,28
1766015839.62303,28
1766015839.623039,27
1766015839.623049,27
1766015839.6230578,27
1766015839.6230679,28
1766015839.6230772,26
1766015839.6230872,26
1766015839.623096,26
1766015839.623106,27
1766015839.623115,26
1766015839.623125,27
1766015839.623134,29
1766015839.623144,26
1766015839.623156,27
1766015839.623167,27
1766015839.623177,25
1766015839.6231859,28
1766015839.623195,27
1766015839.6232052,23
1766015839.623214,27
1766015839.623224,27
1766015839.623234,25
1766015839.623243,23
1766015839.623253,29
1766015839.623262,26
1766015839.623272,25
1766015839.623281,26
1766015839.6232908,24
1766015839.6233,23
1766015839.62331,28
1766015839.6233191,29
1766015839.623328,26
1766015839.623337,27
1766015839.623347,28
1766015839.6233559,26
1766015839.6233659,27
1766015839.6233752,26
1766015839.6233852,26
1766015839.623394,23
1766015839.623404,25
1766015839.623413,26
1766015839.623422,25
1766015839.623432,28
1766015839.623442,26
1766015839.623451,24
1766015839.62346,26
1766015839.623473,24
1766015839.623484,27
1766015839.6234932,27
1766015839.6235032,24
1766015839.623512,25
1766015839.623522,26
1766015839.623531,27
1766015839.6235409,24
1766015839.623551,24
1766015839.62356,27
1766015839.623569,25
1766015839.6235788,28
1766015839.623588,27
1766015839.623598,27
1766015839.6236072,24
1766015839.6236181,28
1766015839.6236281,25
1766015839.623638,26
1766015839.623647,24
1766015839.623656,25
1766015839.6236658,27
1766015839.6236749,24
1766015839.6236851,25
1766015839.6236942,27
1766015839.623704,27
1766015839.623713,29
1766015839.623723,26
1766015839.6237319,23
1766015839.6237419,27
1766015839.6237519,25
1766015839.623761,25
1766015839.623771,27
1766015839.62378,25
1766015839.6237922,23
1766015839.6238039,28
1766015839.6238132,27
1766015839.623822,25
1766015839.623832,25
1766015839.623842,26
1766015839.623851,26
1766015839.623861,27
1766015839.62387,27
1766015839.62388,26
1766015839.623889,26
1766015839.623898,26
1766015839.623908,24
1766015839.623918,27
1766015839.623927,25
1766015839.6239371,27
1766015839.623947,25
1766015839.623957,28
1766015839.623966,23
1766015839.6239748,27
1766015839.6239848,26
1766015839.623994,29
1766015839.6240032,29
1766015839.624013,26
1766015839.624022,28
1766015839.624031,27
1766015839.6240408,27
1766015839.62405,27
1766015839.624059,30
1766015839.6240692,27
1766015839.624078,29
1766015839.624088,29
1766015839.624097,28
1766015839.62411,26
1766015839.6241212,28
1766015839.62413,31
1766015839.62414,29
1766015839.624149,27
1766015839.6241589,25
1766015839.624168,26
1766015839.624178,28
1766015839.624187,25
1766015839.624197,27
1766015839.624206,29
1766015839.6242151,26
1766015839.6242251,25
1766015839.624234,26
1766015839.624243,30
1766015839.624253,29
1766015839.6242619,26
1766015839.6242712,27
1766015839.62428,28
1766015839.62429,29
1766015839.624299,27
1766015839.6243079,29
1766015839.624318,27
1766015839.624327,26
1766015839.6243358,28
1766015839.624345,26
1766015839.624355,27
1766015839.6243641,28
1766015839.624373,29
1766015839.624383,25
1766015839.624392,24
1766015839.6244009,27
1766015839.6244109,27
1766015839.624423,29
1766015839.6244328,27
1766015839.6244428,25
1766015839.624453,29
1766015839.6244621,29
1766015839.624471,28
1766015839.62448,29
1766015839.62449,29
1766015839.6244988,27
1766015839.624508,25
1766015839.6245172,28
1766015839.6245272,26
1766015839.624536,27
1766015839.624545,24
1766015839.624555,27
1766015839.624564,25
1766015839.624573,28
1766015839.624583,28
1766015839.6245918,28
1766015839.6246011,27
1766015839.62461,29
1766015839.624619,28
1766015839.624629,31
1766015839.6246378,26
1766015839.624647,26
1766015839.624657,28
1766015839.6246662,28
1766015839.624675,28
1766015839.624685,27
1766015839.624695,26
1766015839.624704,27
1766015839.624713,28
1766015839.624723,29
1766015839.624732,30
1766015839.624744,29
1766015839.624755,26
1766015839.624764,29
1766015839.624773,29
1766015839.624782,27
1766015839.624792,28
1766015839.624801,29
1766015839.62481,29
1766015839.624819,30
1766015839.6248279,27
1766015839.6248379,29
1766015839.6248472,30
1766015839.624856,27
1766015839.624866,31
1766015839.624875,30
1766015839.624884,30
1766015839.624893,28
1766015839.6249018,31
1766015839.6249118,26
1766015839.624921,31
1766015839.6249301,32
1766015839.624939,27
1766015839.624949,28
1766015839.624958,30
1766015839.6249669,29
1766015839.6249769,29
1766015839.6249862,30
1766015839.624995,30
1766015839.625004,31
1766015839.6250129,29
1766015839.625023,28
1766015839.625032,29
1766015839.625041,30
1766015839.625054,32
1766015839.6250648,30
1766015839.6250749,27
1766015839.625084,30
1766015839.6250932,29
1766015839.625102,30
1766015839.625111,29
1766015839.62512,32
1766015839.62513,32
1766015839.625139,33
1766015839.6251478,29
1766015839.6251578,32
1766015839.6251671,29
1766015839.625176,30
1766015839.625186,30
1766015839.625195,33
1766015839.625204,30
1766015839.625213,30
1766015839.625223,28
1766015839.625232,34
1766015839.625241,31
1766015839.62525,30
1766015839.625259,31
1766015839.625268,29
1766015839.625278,34
1766015839.6252868,32
1766015839.6252959,30
1766015839.6253052,33
1766015839.625314,32
1766015839.625323,30
1766015839.625333,32
1766015839.625342,31
1766015839.625351,27
1766015839.6253629,32
1766015839.625375,31
1766015839.6253839,30
1766015839.6253939,29
1766015839.625403,34
1766015839.625412,34
1766015839.625421,33
1766015839.62543,31
1766015839.625439,34
1766015839.625448,31
1766015839.6254568,34
1766015839.6254668,33
1766015839.6254761,33
1766015839.625485,31
1766015839.625495,32
1766015839.625504,28
1766015839.625513,34
1766015839.625522,34
1766015839.625532,32
1766015839.6255412,33
1766015839.62555,35
1766015839.625559,35
1766015839.625569,34
1766015839.625578,35
1766015839.625587,33
1766015839.6255958,32
1766015839.625605,34
1766015839.6256151,34
1766015839.6256242,33
1766015839.625633,36
1766015839.625642,34
1766015839.625651,31
1766015839.62566,32
1766015839.6256719,33
1766015839.6256828,37
1766015839.6256928,31
1766015839.625702,35
1766015839.6257122,34
1766015839.625721,34
1766015839.6257322,37
1766015839.625741,33
1766015839.625751,35
1766015839.62576,32
1766015839.625769,31
1766015839.625777,36
1766015839.625785,35
1766015839.625793,35
1766015839.625802,36
1766015839.62581,35
1766015839.625818,36
1766015839.625827,37
1766015839.625835,36
1766015839.625844,36
1766015839.6258519,36
1766015839.6258602,36
1766015839.625868,37
1766015839.625877,38
1766015839.625885,36
1766015839.625893,34
1766015839.625901,36
1766015839.625909,35
1766015839.625918,35
1766015839.6259258,32
1766015839.6259341,34
1766015839.625942,36
1766015839.625951,36
1766015839.625959,34
1766015839.6259682,34
1766015839.625976,38
1766015839.625984,36
1766015839.625993,36
1766015839.626001,35
1766015839.6260102,36
1766015839.626018,37
1766015839.626027,39
1766015839.626035,37
1766015839.6260428,38
1766015839.6260521,35
1766015839.62606,36
1766015839.6260679,34
1766015839.626077,38
1766015839.626085,34
1766015839.6260931,38
1766015839.626101,34
1766015839.6261098,39
1766015839.626118,38
1766015839.626126,39
1766015839.626135,39
1766015839.626143,39
1766015839.6261508,37
1766015839.6261609,35
1766015839.6261692,39
1766015839.626177,39
1766015839.626185,39
1766015839.626194,40
1766015839.626202,40
1766015839.62621,38
1766015839.626218,38
1766015839.626226,38
1766015839.6262348,37
1766015839.626243,39
1766015839.626251,39
1766015839.6262589,37
1766015839.626267,37
1766015839.626276,39
1766015839.6262841,39
1766015839.626292,40
1766015839.6263008,40
1766015839.6263092,39
1766015839.626318,39
1766015839.626326,37
1766015839.626335,40
1766015839.626343,38
1766015839.626352,41
1766015839.6263602,38
1766015839.626368,39
1766015839.626376,39
1766015839.6263838,39
1766015839.626393,41
1766015839.626401,39
1766015839.62641,42
1766015839.6264179,41
1766015839.6264262,41
1766015839.626434,39
1766015839.626442,41
1766015839.626451,43
1766015839.626459,41
1766015839.626467,41
1766015839.626475,43
1766015839.626484,40
1766015839.6264918,39
1766015839.6265001,39
1766015839.626508,42
1766015839.626517,40
1766015839.626525,41
1766015839.626533,44
1766015839.6265411,42
1766015839.62655,40
1766015839.626559,45
1766015839.626567,43
1766015839.626575,43
1766015839.626584,42
1766015839.626592,42
1766015839.626601,42
1766015839.6266088,40
1766015839.6266172,42
1766015839.626626,41
1766015839.626634,42
1766015839.626642,42
1766015839.6266508,43
1766015839.6266592,44
1766015839.626667,42
1766015839.626675,42
1766015839.626683,45
1766015839.626692,40
1766015839.6267,41
1766015839.626709,41
1766015839.6267169,43
1766015839.6267252,44
1766015839.626734,46
1766015839.6267421,43
1766015839.626751,44
1766015839.6267588,40
1766015839.6267679,44
1766015839.626776,40
1766015839.626784,42
1766015839.626792,41
1766015839.626801,42
1766015839.6268091,46
1766015839.626817,44
1766015839.626826,41
1766015839.626834,45
1766015839.626842,42
1766015839.6268501,42
1766015839.626859,43
1766015839.626867,47
1766015839.626875,45
1766015839.626884,45
1766015839.626892,45
1766015839.626901,44
1766015839.626909,44
1766015839.6269171,45
1766015839.626925,44
1766015839.626934,45
1766015839.626942,42
1766015839.626951,45
1766015839.626959,45
1766015839.6269681,46
1766015839.626976,46
1766015839.626984,46
1766015839.626993,46
1766015839.627001,43
1766015839.62701,46
1766015839.627018,44
1766015839.6270258,44
1766015839.6270342,47
1766015839.627043,46
1766015839.627051,46
1766015839.627059,47
1766015839.6270678,47
1766015839.6270761,44
1766015839.627084,48
1766015839.627093,44
1766015839.627101,46
1766015839.627109,47
1766015839.6271172,46
1766015839.627125,48
1766015839.6271338,46
1766015839.627142,44
1766015839.62715,45
1766015839.627159,42
1766015839.627167,43
1766015839.6271749,46
1766015839.6271832,44
1766015839.627192,45
1766015839.6272,44
1766015839.627208,47
1766015839.6272168,45
1766015839.6272252,45
1766015839.627233,45
1766015839.627241,46
1766015839.62725,47
1766015839.627258,46
1766015839.6272671,44
1766015839.627275,44
1766015839.627284,47
1766015839.627292,45
1766015839.6273,44
1766015839.6273081,41
1766015839.627317,43
1766015839.6273248,46
1766015839.6273332,42
1766015839.627342,42
1766015839.62735,44
1766015839.627358,42
1766015839.627367,43
1766015839.6273751,41
1766015839.627384,39
1766015839.627392,40
1766015839.6274009,42
1766015839.627409,43
1766015839.627417,43
1766015839.6274261,41
1766015839.627434,40
1766015839.627442,42
1766015839.6274502,39
1766015839.627458,40
1766015839.627466,43
1766015839.627475,43
1766015839.627483,37
1766015839.627491,41
1766015839.6275,41
1766015839.627508,41
1766015839.6275158,40
1766015839.627525,41
1766015839.627533,42
1766015839.627541,40
1766015839.627549,39
1766015839.627558,39
1766015839.627566,37
1766015839.6275752,41
1766015839.627583,42
1766015839.6275918,41
1766015839.6276,39
1766015839.627609,41
1766015839.6277518,38
1766015839.628747,40
1766015839.629756,38
1766015839.6308322,41
1766015839.63181,41
1766015839.632816,40
1766015839.6337972,39
1766015839.634815,41
1766015839.635805,41
1766015839.63682,38
1766015839.6378188,41
1766015839.638829,37
1766015839.639803,39
1766015839.640859,40
1766015839.6418052,39
1766015839.6428359,40
1766015839.643805,38
1766015839.644829,41
1766015839.645836,38
1766015839.6468449,41
1766015839.647845,41
1766015839.6488478,39
1766015839.6498408,42
1766015839.650829,41
1766015839.651829,38
1766015839.652838,40
1766015839.653839,40
1766015839.6548219,40
1766015839.65584,41
1766015839.656833,39
1766015839.6578171,40
1766015839.658852,39
1766015839.659862,37
1766015839.6608682,37
1766015839.661848,39
1766015839.662861,37
1766015839.663883,42
1766015839.66485,40
1766015839.665882,39
1766015839.666854,42
1766015839.667882,40
1766015839.6688929,42
1766015839.669902,40
1766015839.670879,38
1766015839.671886,39
1766015839.672887,38
1766015839.673888,36
1766015839.674891,38
1766015839.6758988,39
1766015839.676896,38
1766015839.677902,38
1766015839.678897,37
1766015839.679934,39
1766015839.6809149,36
1766015839.6819232,38
1766015839.6829069,37
1766015839.683912,38
1766015839.684927,36
1766015839.6859698,39
1766015839.686904,38
1766015839.687934,37
1766015839.6889238,38
1766015839.689932,36
1766015839.6909282,38
1766015839.691946,38
1766015839.692924,35
1766015839.6939268,37
1766015839.694937,36
1766015839.695937,36
1766015839.696933,37
1766015839.6979442,38
1766015839.699015,39
1766015839.699977,36
1766015839.700982,39
1766015839.701971,37
1766015839.702946,33
1766015839.703945,36
1766015839.7049768,36
1766015839.705947,36
1766015839.706971,35
1766015839.707978,36
1766015839.712186,34
1766015839.712202,36
1766015839.712213,35
1766015839.712223,35
1766015839.712977,34
1766015839.713984,35
1766015839.7149901,35
1766015839.715977,36
1766015839.717002,35
1766015839.717978,35
1766015839.719035,37
1766015839.720028,34
1766015839.7209852,34
1766015839.722037,35
1766015839.7229922,34
1766015839.724011,34
1766015839.725027,33
1766015839.725999,30
1766015839.7270021,36
1766015839.72804,34
1766015839.729048,34
1766015839.730025,34
1766015839.7310798,33
1766015839.732033,33
1766015839.733035,34
1766015839.7340841,32
1766015839.73509,32
1766015839.736171,34
1766015839.737163,30
1766015839.738158,31
1766015839.739155,31
1766015839.7400699,34
1766015839.74112,33
1766015839.742136,30
1766015839.743147,30
1766015839.744129,31
1766015839.745151,35
1766015839.7461681,33
1766015839.747156,30
1766015839.748171,30
1766015839.74915,32
1766015839.750162,31
1766015839.7511292,33
1766015839.7521532,29
1766015839.753149,30
1766015839.754171,34
1766015839.7551732,33
1766015839.75615,34
1766015839.7571478,30
1766015839.758137,28
1766015839.759168,29
1766015839.7601511,31
1766015839.761153,29
1766015839.762149,29
1766015839.763149,30
1766015839.7641559,30
1766015839.765145,29
1766015839.766144,31
1766015839.767145,28
1766015839.768146,33
1766015839.7691572,30
1766015839.770151,29
1766015839.7711658,28
1766015839.7721689,27
1766015839.773178,28
1766015839.774164,30
1766015839.7751691,28
1766015839.776178,32
1766015839.777174,30
1766015839.778174,28
1766015839.779189,30
1766015839.7801862,31
1766015839.7811918,28
1766015839.782187,31
1766015839.783197,29
1766015839.7841961,27
1766015839.785203,29
1766015839.786207,32
1766015839.7872,30
1766015839.788198,26
1766015839.7891998,28
1766015839.790229,29
1766015839.791245,29
1766015839.792226,26
1766015839.793259,29
1766015839.7942321,28
1766015839.79526,29
1766015839.796196,29
1766015839.797258,27
1766015839.798246,26
1766015839.799242,27
1766015839.80024,26
1766015839.801239,27
1766015839.802274,27
1766015839.803255,26
1766015839.804262,25
1766015839.805263,28
1766015839.806274,27
1766015839.807286,29
1766015839.808321,25
1766015839.809292,30
1766015839.810266,27
1766015839.811269,26
1766015839.812287,27
1766015839.813292,30
1766015839.814246,26
1766015839.81526,27
1766015839.816333,28
1766015839.817297,26
1766015839.818284,26
1766015839.819328,28
1766015839.820333,23
1766015839.8213,28
1766015839.8222988,28
1766015839.823325,28
1766015839.8243341,25
1766015839.825322,23
1766015839.8263402,24
1766015839.827324,23
1766015839.828327,26
1766015839.829329,25
1766015839.830325,27
1766015839.831337,26
1766015839.832351,24
1766015839.8333461,24
1766015839.834346,27
1766015839.83535,25
1766015839.8363378,24
1766015839.837343,21
1766015839.838345,26
1766015839.839356,25
1766015839.8403578,23
1766015839.841357,25
1766015839.842408,22
1766015839.843393,22
1766015839.8443909,25
1766015839.845403,25
1766015839.846383,26
1766015839.847401,26
1766015839.8483999,24
1766015839.84941,23
1766015839.850372,24
1766015839.851424,24
1766015839.852397,22
1766015839.853398,22
1766015839.854409,24
1766015839.855413,22
1766015839.85641,25
1766015839.857426,22
1766015839.858423,25
1766015839.859408,23
1766015839.860424,24
1766015839.861428,24
1766015839.8624299,26
1766015839.863422,24
1766015839.864445,25
1766015839.865427,25
1766015839.8664289,22
1766015839.867452,23
1766015839.868448,25
1766015839.869453,23
1766015839.8704488,26
1766015839.871455,23
1766015839.872452,26
1766015839.8734531,23
1766015839.87447,24
1766015839.8754718,23
1766015839.876467,21
1766015839.877475,24
1766015839.878478,24
1766015839.879484,21
1766015839.88049,20
1766015839.881491,22
1766015839.882495,20
1766015839.8834949,24
1766015839.884491,23
1766015839.885493,26
1766015839.886496,21
1766015839.8875022,25
1766015839.888503,22
1766015839.889496,24
1766015839.890506,22
1766015839.8915,23
1766015839.892523,24
1766015839.893523,22
1766015839.894521,20
1766015839.895522,23
1766015839.89652,24
1766015839.897522,24
1766015839.898529,24
1766015839.899522,22
1766015839.900521,25
1766015839.9015172,22
1766015839.902532,24
1766015839.90353,25
1766015839.9045582,22
1766015839.905555,25
1766015839.9065542,25
1766015839.9075751,24
1766015839.908566,25
1766015839.909576,25
1766015839.9105651,24
1766015839.9115698,23
1766015839.912582,25
1766015839.9135869,25
1766015839.914596,26
1766015839.9155872,25
1766015839.9165819,22
1766015839.9176059,21
1766015839.918605,27
1766015839.919604,24
1766015839.9206011,25
1766015839.921608,21
1766015839.9226182,24
1766015839.9236171,24
1766015839.924623,23
1766015839.9256299,22
1766015839.926632,25
1766015839.9276328,24
1766015839.92863,25
1766015839.929645,24
1766015839.930633,26
1766015839.9316401,21
1766015839.932609,23
1766015839.93362,27
1766015839.9346318,26
1766015839.935636,24
1766015839.9366488,23
1766015839.937655,26
1766015839.9386618,25
1766015839.9396522,29
1766015839.940654,28
1766015839.9416409,31
1766015839.942647,31
1766015839.943677,31
1766015839.944659,32
1766015839.945664,32
1766015839.946676,30
1766015839.94768,31
1766015839.948676,27
1766015839.949687,32
1766015839.950721,29
1766015839.951704,31
1766015839.952676,32
1766015839.953687,33
1766015839.954688,31
1766015839.9556942,34
1766015839.956703,32
1766015839.9577081,31
1766015839.958713,33
1766015839.9597068,30
1766015839.9607182,30
1766015839.961707,30
1766015839.9627252,34
1766015839.9637141,32
1766015839.964719,31
1766015839.965726,33
1766015839.966727,31
1766015839.967744,29
1766015839.9687521,32
1766015839.9697568,26
1766015839.970749,31
1766015839.971755,31
1766015839.972756,34
1766015839.973747,31
1766015839.97475,28
1766015839.97577,31
1766015839.976761,31
1766015839.977768,30
1766015839.9787788,32
1766015839.979755,30
1766015839.980778,31
1766015839.981805,30
1766015839.9828029,31
1766015839.983808,31
1766015839.9848042,35
1766015839.9857972,32
1766015839.986787,38
1766015839.987808,38
1766015839.988801,40
1766015839.989805,40
1766015839.9908009,43
1766015839.9918132,40
1766015839.992812,41
1766015839.993821,40
1766015839.994814,43
1766015839.995824,43
1766015839.996824,40
1766015839.997838,42
1766015839.998831,40
1766015839.999825,42
1766015840.0008478,41
1766015840.0018299,40
1766015840.0028338,42
1766015840.003842,41
1766015840.0048482,43
1766015840.005853,40
1766015840.0068438,45
1766015840.0078669,43
1766015840.008853,43
1766015840.009859,44
1766015840.010868,44
1766015840.011868,46
1766015840.012875,45
1766015840.013879,45
1766015840.0148869,48
1766015840.015892,46
1766015840.016875,46
1766015840.017875,50
1766015840.0188942,48
1766015840.019903,48
1766015840.020896,46
1766015840.0219,47
1766015840.022897,51
1766015840.0238981,51
1766015840.024907,52
1766015840.02591,52
1766015840.026925,55
1766015840.0279171,59
1766015840.0289311,61
1766015840.0299342,63
1766015840.0309289,66
1766015840.0319328,68
1766015840.032931,68
1766015840.033938,67
1766015840.03494,68
1766015840.035936,71
1766015840.036948,74
1766015840.0379431,79
1766015840.038947,84
1766015840.039951,93
1766015840.04096,93
1766015840.041952,93
1766015840.042948,98
1766015840.04396,98
1766015840.044964,96
1766015840.045967,99
1766015840.046975,96
1766015840.047976,96
1766015840.048979,99
1766015840.0499709,95
1766015840.050972,94
1766015840.052151,103
1766015840.05315,106
1766015840.054153,113
1766015840.0551522,118
1766015840.056154,127
1766015840.057152,135
1766015840.058153,140
1766015840.0591512,137
1766015840.06015,137
1766015840.061152,136
1766015840.062152,137
1766015840.063155,141
1766015840.064152,141
1766015840.06516,141
1766015840.06615,142
1766015840.067151,142
1766015840.068151,141
1766015840.06915,141
1766015840.070157,142
1766015840.071157,139
1766015840.0721521,138
1766015840.07315,137
1766015840.074165,135
1766015840.0751529,132
1766015840.0761678,133
1766015840.0771708,131
1766015840.078165,132
1766015840.079166,130
1766015840.0801642,128
1766015840.081176,127
1766015840.082162,125
1766015840.083166,126
1766015840.084167,130
1766015840.085183,131
1766015840.086177,137
1766015840.0871968,142
1766015840.088175,145
1766015840.089188,146
1766015840.090188,144
1766015840.0911942,143
1766015840.092204,140
1766015840.093241,142
1766015840.094223,142
1766015840.095211,140
1766015840.096229,140
1766015840.097214,141
1766015840.0982158,139
1766015840.09921,136
1766015840.100207,137
1766015840.1012402,139
1766015840.102255,141
1766015840.103225,140
1766015840.104234,140
1766015840.1052318,139
1766015840.106242,140
1766015840.107241,140
1766015840.108259,142
1766015840.1092532,137
1766015840.110261,141
1766015840.111239,143
1766015840.112244,147
1766015840.113261,153
1766015840.11426,158
1766015840.115276,169
1766015840.116262,182
1766015840.117283,185
1766015840.11829,183
1766015840.119267,188
1766015840.120269,186
1766015840.1212852,184
1766015840.122283,183
1766015840.123281,180
1766015840.124288,179
1766015840.125282,180
1766015840.126286,177
1766015840.1273,179
1766015840.128286,175
1766015840.1292968,174
1766015840.1303082,176
1766015840.131298,173
1766015840.13231,173
1766015840.133312,172
1766015840.13431,171
1766015840.135317,169
1766015840.136329,168
1766015840.137322,169
1766015840.1383228,169
1766015840.139332,169
1766015840.140341,166
1766015840.141344,163
1766015840.142344,168
1766015840.143351,167
1766015840.144356,164
1766015840.1453462,162
1766015840.146343,161
1766015840.1473548,159
1766015840.148361,158
1766015840.1493618,155
1766015840.150375,152
1766015840.1513548,153
1766015840.1523762,153
1766015840.153373,150
1766015840.1543748,153
1766015840.155363,152
1766015840.1563709,154
1766015840.157377,152
1766015840.158376,154
1766015840.1593778,153
1766015840.160404,155
1766015840.161389,153
1766015840.162389,153
1766015840.1633868,153
1766015840.164412,157
1766015840.165406,156
1766015840.166413,155
1766015840.167404,159
1766015840.1684349,154
1766015840.169416,156
1766015840.170429,156
1766015840.171415,156
1766015840.172435,154
1766015840.173418,153
1766015840.174421,155
1766015840.1754282,155
1766015840.176425,159
1766015840.177439,158
1766015840.1784298,156
1766015840.1794298,156
1766015840.180436,155
1766015840.181449,157
1766015840.182453,158
1766015840.1834502,156
1766015840.184447,155
1766015840.1854541,153
1766015840.186462,152
1766015840.187467,150
1766015840.188475,152
1766015840.189461,151
1766015840.190481,149
1766015840.191479,149
1766015840.192481,147
1766015840.1934772,150
1766015840.194478,150
1766015840.195494,153
1766015840.196485,157
1766015840.1974862,160
1766015840.198493,160
1766015840.199502,158
1766015840.200511,156
1766015840.201515,155
1766015840.202527,155
1766015840.203512,155
1766015840.204515,152
1766015840.205518,151
1766015840.206524,149
1766015840.207526,149
1766015840.2085419,148
1766015840.209537,146
1766015840.210525,143
1766015840.211522,144
1766015840.212543,146
1766015840.213558,142
1766015840.214599,143
1766015840.2155688,144
1766015840.216579,141
1766015840.21755,140
1766015840.2185779,140
1766015840.219587,139
1766015840.220592,136
1766015840.221566,136
1766015840.222574,134
1766015840.223948,132
1766015840.224637,135
1766015840.225589,133
1766015840.226635,136
1766015840.227672,137
1766015840.228568,136
1766015840.229792,132
1766015840.230577,132
1766015840.231585,133
1766015840.232596,134
1766015840.2335958,132
1766015840.2345731,136
1766015840.235588,131
1766015840.236717,133
1766015840.237588,131
1766015840.23859,135
1766015840.239593,136
1766015840.240584,137
1766015840.2415879,140
1766015840.2425978,136
1766015840.243597,135
1766015840.2446249,133
1766015840.245597,134
1766015840.246589,133
1766015840.247596,133
1766015840.2486022,134
1766015840.249599,130
1766015840.250605,130
1766015840.2516139,129
1766015840.252619,129
1766015840.253632,128
1766015840.254643,127
1766015840.255625,128
1766015840.256619,126
1766015840.257641,124
1766015840.258632,122
1766015840.259679,121
1766015840.260685,121
1766015840.261684,116
1766015840.262697,117
1766015840.263683,117
1766015840.264703,112
1766015840.265683,112
1766015840.2666938,113
1766015840.267657,111
1766015840.268672,109
1766015840.269664,112
1766015840.270674,109
1766015840.271667,110
1766015840.2726662,111
1766015840.273677,115
1766015840.274682,109
1766015840.2756858,113
1766015840.276693,110
1766015840.2777019,110
1766015840.2787058,107
1766015840.279755,107
1766015840.2807438,107
1766015840.281735,104
1766015840.282698,104
1766015840.283724,103
1766015840.284729,101
1766015840.2857192,102
1766015840.2867048,102
1766015840.287712,101
1766015840.28872,101
1766015840.289738,103
1766015840.2907488,103
1766015840.291682,99
1766015840.292684,99
1766015840.2937741,100
1766015840.294695,99
1766015840.295688,99
1766015840.2967832,106
1766015840.2978182,107
1766015840.298799,107
1766015840.2998028,108
1766015840.300834,109
1766015840.301812,109
1766015840.302814,105
1766015840.303829,104
1766015840.304821,105
1766015840.30583,105
1766015840.3068311,107
1766015840.307849,108
1766015840.308838,105
1766015840.3098502,105
1766015840.3108559,108
1766015840.3118389,104
1766015840.312832,107
1766015840.3138292,106
1766015840.3148532,104
1766015840.315858,103
1766015840.3168352,103
1766015840.317846,101
1766015840.3187578,99
1766015840.319836,100
1766015840.320745,99
1766015840.321748,97
1766015840.322755,97
1766015840.3238552,101
1766015840.324853,108
1766015840.325858,107
1766015840.32686,109
1766015840.327874,107
1766015840.328856,110
1766015840.3298602,108
1766015840.330873,112
1766015840.331863,112
1766015840.3328798,110
1766015840.3338728,112
1766015840.3348842,111
1766015840.3358872,109
1766015840.336889,106
1766015840.337889,108
1766015840.338909,107
1766015840.3398888,107
1766015840.340895,106
1766015840.3419049,107
1766015840.3429,103
1766015840.3439062,102
1766015840.344906,102
1766015840.3458161,97
1766015840.346826,98
1766015840.347919,100
1766015840.348812,97
1766015840.349816,98
1766015840.3508391,97
1766015840.3518322,95
1766015840.352843,99
1766015840.353838,98
1766015840.354857,99
1766015840.3558369,97
1766015840.356839,97
1766015840.357864,94
1766015840.3588428,97
1766015840.359853,93
1766015840.360849,95
1766015840.361869,97
1766015840.362866,95
1766015840.363883,95
1766015840.364872,94
1766015840.365891,95
1766015840.366868,95
1766015840.367873,98
1766015840.3689659,101
1766015840.3699698,104
1766015840.370985,106
1766015840.371983,107
1766015840.372979,111
1766015840.374012,115
1766015840.3749928,117
1766015840.375999,119
1766015840.377003,120
1766015840.377992,122
1766015840.379013,126
1766015840.380013,126
1766015840.381016,122
1766015840.382014,124
1766015840.3830268,122
1766015840.3840158,120
1766015840.385024,123
1766015840.3860202,120
1766015840.3870232,119
1766015840.388021,118
1766015840.3890402,117
1766015840.390035,119
1766015840.3910341,118
1766015840.3920472,113
1766015840.393038,115
1766015840.39404,116
1766015840.395055,115
1766015840.396062,112
1766015840.397048,110
1766015840.398054,107
1766015840.399061,111
1766015840.400057,109
1766015840.401063,106
1766015840.4020638,106
1766015840.403162,110
1766015840.404154,108
1766015840.405159,112
1766015840.406066,112
1766015840.4071622,110
1766015840.408158,110
1766015840.409156,110
1766015840.410155,109
1766015840.4111612,106
1766015840.412168,106
1766015840.4131699,104
1766015840.414169,103
1766015840.415156,103
1766015840.4161751,104
1766015840.417168,102
1766015840.418157,103
1766015840.419154,101
1766015840.4201548,102
1766015840.421164,100
1766015840.4221592,106
1766015840.423163,106
1766015840.424154,103
1766015840.425157,105
1766015840.4261692,105
1766015840.4271739,105
1766015840.4281542,102
1766015840.429156,104
1766015840.430156,103
1766015840.431177,104
1766015840.432157,109
1766015840.433165,105
1766015840.434176,103
1766015840.435172,106
1766015840.4362109,103
1766015840.437165,103
1766015840.438166,101
1766015840.4391549,103
1766015840.44015,98
1766015840.441184,100
1766015840.4421508,96
1766015840.44315,98
1766015840.444145,97
1766015840.445152,94
1766015840.446146,91
1766015840.4471521,92
1766015840.4481459,92
1766015840.4491541,93
1766015840.450152,95
1766015840.451147,95
1766015840.4521449,95
1766015840.453152,96
1766015840.4541519,93
1766015840.4551492,93
1766015840.456151,96
1766015840.457145,92
1766015840.458156,93
1766015840.4591548,93
1766015840.4601548,92
1766015840.4611468,94
1766015840.462145,91
1766015840.4631512,90
1766015840.464154,92
1766015840.46516,89
1766015840.466157,90
1766015840.4671519,91
1766015840.468152,92
1766015840.469159,89
1766015840.470167,90
1766015840.471175,88
1766015840.4721851,85
1766015840.473184,86
1766015840.474187,89
1766015840.4751801,87
1766015840.4761841,87
1766015840.477175,89
1766015840.478184,91
1766015840.4792,90
1766015840.480196,92
1766015840.481197,89
1766015840.482181,91
1766015840.4832058,94
1766015840.4842181,93
1766015840.485217,93
1766015840.486214,89
1766015840.487206,89
1766015840.488221,93
1766015840.489227,88
1766015840.49021,91
1766015840.491235,95
1766015840.492237,93
1766015840.4932249,92
1766015840.494227,95
1766015840.4952471,94
1766015840.4962392,96
1766015840.497236,94
1766015840.498246,92
1766015840.499251,94
1766015840.500252,91
1766015840.501248,94
1766015840.502254,94
1766015840.5032609,99
1766015840.504253,97
1766015840.50526,93
1766015840.506253,96
1766015840.507262,92
1766015840.508266,93
1766015840.5092669,92
1766015840.5102699,94
1766015840.511269,95
1766015840.512265,95
1766015840.5132868,95
1766015840.5142899,97
1766015840.515285,98
1766015840.516285,93
1766015840.517285,94
1766015840.518288,93
1766015840.519298,96
1766015840.520319,94
1766015840.5213199,96
1766015840.522325,96
1766015840.5233312,95
1766015840.5243158,91
1766015840.525311,93
1766015840.52631,93
1766015840.5273159,91
1766015840.5283232,89
1766015840.5293372,90
1766015840.530328,88
1766015840.5313458,87
1766015840.5323331,92
1766015840.533333,90
1766015840.5343292,88
1766015840.535338,89
1766015840.536341,87
1766015840.5373409,88
1766015840.5383449,88
1766015840.5393522,88
1766015840.540351,86
1766015840.541352,84
1766015840.5423539,83
1766015840.5433521,84
1766015840.544371,85
1766015840.545365,84
1766015840.54637,81
1766015840.547371,83
1766015840.54837,85
1766015840.549372,85
1766015840.5503712,84
1766015840.551394,81
1766015840.552376,81
1766015840.5533838,81
1766015840.554388,81
1766015840.555407,79
1766015840.5564039,81
1766015840.5574028,77
1766015840.5584261,79
1766015840.559407,80
1766015840.560431,81
1766015840.561416,79
1766015840.562418,83
1766015840.563421,88
1766015840.564436,89
1766015840.565431,97
1766015840.5665228,100
1766015840.567432,97
1766015840.568434,99
1766015840.569441,99
1766015840.570434,99
1766015840.5715399,105
1766015840.572533,106
1766015840.5735402,107
1766015840.574573,106
1766015840.575535,105
1766015840.576533,104
1766015840.577547,103
1766015840.5785558,104
1766015840.579545,100
1766015840.58055,100
1766015840.581555,101
1766015840.58247,99
1766015840.583476,98
1766015840.584478,98
1766015840.585475,98
1766015840.586477,97
1766015840.587475,97
1766015840.58848,95
1766015840.589491,95
1766015840.590493,96
1766015840.591496,94
1766015840.5924978,98
1766015840.593484,98
1766015840.59451,96
1766015840.595517,99
