timestamp,emg_value
1766015814.334342,92
1766015814.334375,93
1766015814.334403,91
1766015814.334429,91
1766015814.334455,91
1766015814.334482,91
1766015814.334508,88
1766015814.334535,85
1766015814.334561,86
1766015814.3345878,85
1766015814.334615,87
1766015814.334641,85
1766015814.334667,85
1766015814.3346932,84
1766015814.334719,85
1766015814.3347452,85
1766015814.334771,83
1766015814.334799,84
1766015814.3348238,84
1766015814.33485,84
1766015814.3348758,83
1766015814.334901,87
1766015814.334927,81
1766015814.334953,83
1766015814.334978,82
1766015814.335005,83
1766015814.335031,90
1766015814.3350568,91
1766015814.335082,90
1766015814.335108,92
1766015814.335145,92
1766015814.335171,96
1766015814.335209,96
1766015814.335236,95
1766015814.3352609,93
1766015814.335287,94
1766015814.335312,91
1766015814.3353379,93
1766015814.335364,90
1766015814.3353899,88
1766015814.3354151,92
1766015814.3354418,92
1766015814.335468,92
1766015814.335493,93
1766015814.335519,92
1766015814.335544,92
1766015814.3355699,89
1766015814.335595,88
1766015814.335621,89
1766015814.335646,88
1766015814.3356721,89
1766015814.335697,94
1766015814.335723,95
1766015814.3357499,98
1766015814.335783,102
1766015814.335815,103
1766015814.335853,107
1766015814.335885,104
1766015814.335917,102
1766015814.335945,100
1766015814.3359628,100
1766015814.3359811,102
1766015814.335998,99
1766015814.336013,98
1766015814.3360279,99
1766015814.3360472,99
1766015814.336062,98
1766015814.336077,99
1766015814.336093,97
1766015814.336108,98
1766015814.336128,95
1766015814.336143,97
1766015814.336158,94
1766015814.336174,92
1766015814.33619,91
1766015814.336205,92
1766015814.336221,92
1766015814.336239,89
1766015814.336255,91
1766015814.33627,90
1766015814.3362849,91
1766015814.336301,91
1766015814.3363159,89
1766015814.336332,90
1766015814.3363461,92
1766015814.336361,93
1766015814.336376,94
1766015814.336391,92
1766015814.336406,93
1766015814.336421,93
1766015814.336436,91
1766015814.336451,91
1766015814.3364658,90
1766015814.336481,92
1766015814.3364968,87
1766015814.3365152,91
1766015814.33653,88
1766015814.336545,90
1766015814.33656,85
1766015814.336575,84
1766015814.336591,84
1766015814.336606,81
1766015814.336622,80
1766015814.336637,83
1766015814.336652,86
1766015814.3366668,86
1766015814.336683,85
1766015814.336698,84
1766015814.336713,84
1766015814.336732,84
1766015814.3367481,86
1766015814.336763,85
1766015814.336778,85
1766015814.3367932,83
1766015814.336808,86
1766015814.336823,85
1766015814.336838,79
1766015814.336852,81
1766015814.336867,84
1766015814.3368819,83
1766015814.3368971,82
1766015814.336912,81
1766015814.336927,82
1766015814.3369422,82
1766015814.3369558,78
1766015814.336971,81
1766015814.336986,77
1766015814.337003,81
1766015814.337018,79
1766015814.337035,81
1766015814.3370502,83
1766015814.337065,84
1766015814.33708,87
1766015814.337095,86
1766015814.33711,85
1766015814.33713,84
1766015814.337145,85
1766015814.3371599,84
1766015814.3371751,83
1766015814.33719,83
1766015814.337205,84
1766015814.3372202,83
1766015814.337235,81
1766015814.33725,81
1766015814.337264,77
1766015814.337279,81
1766015814.337294,78
1766015814.337309,77
1766015814.3373241,80
1766015814.337339,76
1766015814.337354,80
1766015814.337368,78
1766015814.3373828,75
1766015814.337398,76
1766015814.337413,77
1766015814.3374279,79
1766015814.3374422,87
1766015814.337457,91
1766015814.337473,90
1766015814.337488,93
1766015814.337504,93
1766015814.3375192,91
1766015814.337534,96
1766015814.337549,92
1766015814.337564,96
1766015814.337579,94
1766015814.337594,92
1766015814.337609,89
1766015814.337624,88
1766015814.3376389,89
1766015814.337654,89
1766015814.3376682,86
1766015814.337683,86
1766015814.3377018,84
1766015814.337717,87
1766015814.3377311,87
1766015814.337746,87
1766015814.337761,84
1766015814.3377762,90
1766015814.337791,84
1766015814.337806,82
1766015814.337821,85
1766015814.337836,83
1766015814.3378508,82
1766015814.3378649,81
1766015814.337877,83
1766015814.3378901,80
1766015814.337903,82
1766015814.337916,80
1766015814.337929,81
1766015814.3379421,79
1766015814.337955,77
1766015814.3379688,81
1766015814.337983,76
1766015814.337996,79
1766015814.3380082,77
1766015814.338021,76
1766015814.338034,78
1766015814.338047,78
1766015814.338059,78
1766015814.338072,81
1766015814.338086,82
1766015814.3380978,83
1766015814.338111,81
1766015814.3381288,80
1766015814.3381429,80
1766015814.338155,83
1766015814.3381681,83
1766015814.338181,83
1766015814.338194,83
1766015814.338206,76
1766015814.338219,79
1766015814.338232,78
1766015814.3382452,80
1766015814.338258,79
1766015814.338271,80
1766015814.338283,84
1766015814.3382962,91
1766015814.338309,88
1766015814.338322,91
1766015814.338335,88
1766015814.338347,94
1766015814.33836,94
1766015814.3383732,96
1766015814.3383858,96
1766015814.3384042,96
1766015814.338416,98
1766015814.338432,101
1766015814.3384478,105
1766015814.338464,105
1766015814.3384802,108
1766015814.3385139,108
1766015814.33853,103
1766015814.338546,105
1766015814.338562,103
1766015814.3385768,103
1766015814.33859,99
1766015814.338606,100
1766015814.3386219,102
1766015814.338638,102
1766015814.3386528,104
1766015814.338669,106
1766015814.338685,106
1766015814.338701,107
1766015814.3387158,108
1766015814.338733,110
1766015814.338749,107
1766015814.3387651,111
1766015814.3387809,109
1766015814.338797,108
1766015814.3388119,107
1766015814.3388312,107
1766015814.338847,107
1766015814.338864,104
1766015814.33888,107
1766015814.3388958,108
1766015814.338912,104
1766015814.3389282,107
1766015814.338944,103
1766015814.338961,106
1766015814.338976,101
1766015814.33899,99
1766015814.339006,100
1766015814.3390222,102
1766015814.339038,100
1766015814.339051,96
1766015814.339063,96
1766015814.3390772,95
1766015814.3390899,93
1766015814.339103,93
1766015814.3391209,93
1766015814.339135,90
1766015814.339148,92
1766015814.3391612,92
1766015814.3391738,88
1766015814.3391879,87
1766015814.339201,88
1766015814.339214,86
1766015814.339226,87
1766015814.3392398,88
1766015814.339252,84
1766015814.339267,86
1766015814.33928,86
1766015814.339294,83
1766015814.339307,83
1766015814.3393202,81
1766015814.339332,80
1766015814.339346,78
1766015814.3393579,85
1766015814.339371,84
1766015814.339384,80
1766015814.339398,81
1766015814.339411,84
1766015814.339423,83
1766015814.339436,82
1766015814.3394492,83
1766015814.3394618,84
1766015814.339475,84
1766015814.339488,79
1766015814.3395011,82
1766015814.339514,83
1766015814.339527,81
1766015814.339539,82
1766015814.339552,82
1766015814.339565,84
1766015814.3395782,86
1766015814.339591,88
1766015814.339605,88
1766015814.339617,88
1766015814.3396301,87
1766015814.3396428,90
1766015814.3396559,90
1766015814.339669,90
1766015814.339683,90
1766015814.3396962,86
1766015814.339709,88
1766015814.339722,85
1766015814.339735,86
1766015814.3397481,88
1766015814.3397608,89
1766015814.339774,94
1766015814.339787,90
1766015814.3398001,91
1766015814.3398132,92
1766015814.339827,92
1766015814.339839,90
1766015814.339853,93
1766015814.339865,90
1766015814.3398788,97
1766015814.339891,94
1766015814.339905,93
1766015814.3399181,91
1766015814.3399308,93
1766015814.339944,90
1766015814.339958,90
1766015814.33997,91
1766015814.339984,89
1766015814.3399959,87
1766015814.340014,85
1766015814.3400269,89
1766015814.34004,86
1766015814.340053,89
1766015814.340066,85
1766015814.34008,85
1766015814.340093,85
1766015814.340106,85
1766015814.340127,87
1766015814.340142,89
1766015814.340155,91
1766015814.340168,97
1766015814.34018,92
1766015814.340193,91
1766015814.3402061,92
1766015814.3402188,94
1766015814.340232,95
1766015814.340245,95
1766015814.3402581,94
1766015814.340271,91
1766015814.340283,94
1766015814.340296,92
1766015814.340309,93
1766015814.340322,92
1766015814.3403351,90
1766015814.340348,92
1766015814.3403609,93
1766015814.340374,87
1766015814.340387,87
1766015814.3404002,88
1766015814.3404129,85
1766015814.340426,85
1766015814.340439,87
1766015814.3404522,85
1766015814.340466,83
1766015814.340479,80
1766015814.340492,84
1766015814.3405051,78
1766015814.340518,79
1766015814.3405309,81
1766015814.3405461,74
1766015814.340559,77
1766015814.3405728,78
1766015814.340585,75
1766015814.340599,78
1766015814.3406122,75
1766015814.3406239,74
1766015814.340637,76
1766015814.34065,76
1766015814.340663,73
1766015814.340676,70
1766015814.340689,76
1766015814.340702,74
1766015814.340714,72
1766015814.340727,69
1766015814.3407412,69
1766015814.3407528,70
1766015814.340767,66
1766015814.340779,71
1766015814.3407922,68
1766015814.340805,67
1766015814.340818,64
1766015814.340832,68
1766015814.340845,65
1766015814.340859,63
1766015814.340872,63
1766015814.340885,63
1766015814.340899,64
1766015814.3409111,61
1766015814.3409238,63
1766015814.340937,61
1766015814.34095,65
1766015814.340964,64
1766015814.34098,63
1766015814.340993,62
1766015814.341006,59
1766015814.341019,60
1766015814.341032,62
1766015814.341047,61
1766015814.3410602,57
1766015814.341075,58
1766015814.341089,62
1766015814.3411021,60
1766015814.341121,61
1766015814.341134,60
1766015814.341148,58
1766015814.3411598,58
1766015814.341173,60
1766015814.341186,65
1766015814.3411992,66
1766015814.3412118,63
1766015814.341225,64
1766015814.341238,63
1766015814.3412511,64
1766015814.341265,65
1766015814.341279,65
1766015814.341316,64
1766015814.341331,67
1766015814.341344,67
1766015814.341357,62
1766015814.34137,63
1766015814.341384,63
1766015814.341397,63
1766015814.3414102,64
1766015814.341423,63
1766015814.341438,62
1766015814.341453,63
1766015814.3414679,58
1766015814.341483,59
1766015814.341496,61
1766015814.341509,63
1766015814.341522,59
1766015814.341534,59
1766015814.341548,61
1766015814.341561,58
1766015814.341574,60
1766015814.3415868,60
1766015814.3416,61
1766015814.341613,60
1766015814.341629,65
1766015814.341642,59
1766015814.341656,63
1766015814.3416698,59
1766015814.341683,59
1766015814.341696,59
1766015814.34171,57
1766015814.341723,59
1766015814.341735,64
1766015814.341748,58
1766015814.341762,58
1766015814.3417752,58
1766015814.3417878,57
1766015814.341801,57
1766015814.341814,54
1766015814.3418272,60
1766015814.3418398,58
1766015814.341853,54
1766015814.341866,52
1766015814.341884,55
1766015814.341898,57
1766015814.3419101,56
1766015814.341923,56
1766015814.341936,53
1766015814.341951,52
1766015814.341964,53
1766015814.3419771,52
1766015814.341989,54
1766015814.342002,51
1766015814.342015,57
1766015814.3420281,57
1766015814.342041,54
1766015814.342054,57
1766015814.3420658,58
1766015814.342079,57
1766015814.342092,62
1766015814.3421052,59
1766015814.3421178,61
1766015814.342131,61
1766015814.342154,60
1766015814.342168,62
1766015814.3421829,59
1766015814.342196,62
1766015814.342209,62
1766015814.342222,61
1766015814.3422348,63
1766015814.342248,63
1766015814.34226,63
1766015814.342273,61
1766015814.342286,62
1766015814.342299,62
1766015814.3423119,60
1766015814.342328,63
1766015814.3423429,62
1766015814.342356,60
1766015814.342368,59
1766015814.342381,58
1766015814.342394,58
1766015814.342407,60
1766015814.3424199,57
1766015814.342432,59
1766015814.3424451,56
1766015814.342458,54
1766015814.342471,56
1766015814.342485,56
1766015814.342497,51
1766015814.3425112,54
1766015814.3425229,55
1766015814.342536,52
1766015814.342549,52
1766015814.342562,51
1766015814.342575,54
1766015814.342588,52
1766015814.3425999,49
1766015814.342614,53
1766015814.342627,50
1766015814.3426392,50
1766015814.3426518,47
1766015814.342665,47
1766015814.342678,50
1766015814.3426912,46
1766015814.342704,48
1766015814.342717,47
1766015814.34273,49
1766015814.342744,48
1766015814.342761,48
1766015814.342775,48
1766015814.342788,47
1766015814.3428,45
1766015814.342813,47
1766015814.342826,42
1766015814.342839,46
1766015814.342852,47
1766015814.342865,43
1766015814.342877,42
1766015814.34289,44
1766015814.3429031,45
1766015814.342916,40
1766015814.342929,44
1766015814.342942,42
1766015814.342955,41
1766015814.342967,43
1766015814.342981,42
1766015814.3429928,43
1766015814.343006,38
1766015814.343019,43
1766015814.3430321,44
1766015814.3430452,39
1766015814.3430579,39
1766015814.343071,38
1766015814.343083,39
1766015814.343096,41
1766015814.3431091,38
1766015814.343122,38
1766015814.3431349,38
1766015814.3431501,40
1766015814.343165,39
1766015814.3431811,43
1766015814.3431969,40
1766015814.343209,38
1766015814.343222,39
1766015814.343235,39
1766015814.3432488,37
1766015814.343262,39
1766015814.343277,36
1766015814.3432908,39
1766015814.343304,34
1766015814.343318,37
1766015814.343332,33
1766015814.343345,33
1766015814.343358,37
1766015814.343371,34
1766015814.343384,36
1766015814.3433971,32
1766015814.34341,34
1766015814.343423,35
1766015814.343437,33
1766015814.34345,35
1766015814.343463,33
1766015814.343476,32
1766015814.343489,31
1766015814.343502,33
1766015814.343515,34
1766015814.343528,33
1766015814.343541,31
1766015814.343554,32
1766015814.3435671,29
1766015814.34358,34
1766015814.343592,31
1766015814.343607,31
1766015814.343623,29
1766015814.343637,35
1766015814.343649,33
1766015814.343662,29
1766015814.343675,35
1766015814.343688,29
1766015814.343701,32
1766015814.343714,32
1766015814.343727,33
1766015814.34374,33
1766015814.343752,30
1766015814.343765,31
1766015814.3437781,33
1766015814.343791,31
1766015814.343804,30
1766015814.343817,29
1766015814.34383,33
1766015814.343842,32
1766015814.3438551,33
1766015814.343868,35
1766015814.343881,33
1766015814.343894,32
1766015814.343907,32
1766015814.3439202,34
1766015814.343932,33
1766015814.343945,34
1766015814.343958,31
1766015814.343971,36
1766015814.3439841,32
1766015814.343997,32
1766015814.344009,35
1766015814.344022,36
1766015814.3440378,31
1766015814.344053,34
1766015814.3440661,32
1766015814.344079,30
1766015814.344092,31
1766015814.344105,29
1766015814.344118,34
1766015814.3441439,33
1766015814.344158,33
1766015814.344176,36
1766015814.344191,34
1766015814.3442051,33
1766015814.34422,34
1766015814.344234,35
1766015814.344247,31
1766015814.34426,32
1766015814.3442729,36
1766015814.344285,31
1766015814.344298,33
1766015814.344311,35
1766015814.344324,35
1766015814.344337,31
1766015814.3443499,32
1766015814.344363,34
1766015814.3443751,33
1766015814.344388,31
1766015814.344401,30
1766015814.344415,30
1766015814.344428,31
1766015814.3444412,34
1766015814.344453,31
1766015814.344466,32
1766015814.344481,27
1766015814.344496,32
1766015814.344511,32
1766015814.3445241,30
1766015814.344537,32
1766015814.3445492,32
1766015814.3445618,32
1766015814.344575,33
1766015814.344588,29
1766015814.3446,30
1766015814.344613,28
1766015814.344626,30
1766015814.344639,29
1766015814.344652,30
1766015814.344665,30
1766015814.3446772,30
1766015814.3446898,30
1766015814.344703,29
1766015814.344715,28
1766015814.344728,28
1766015814.344741,29
1766015814.344754,28
1766015814.344767,31
1766015814.34478,28
1766015814.3447921,31
1766015814.344805,27
1766015814.3448179,30
1766015814.344831,28
1766015814.344844,28
1766015814.344857,26
1766015814.3448691,29
1766015814.344882,29
1766015814.344895,29
1766015814.344911,29
1766015814.3449259,26
1766015814.344939,28
1766015814.344952,26
1766015814.3449652,28
1766015814.3449779,26
1766015814.344991,26
1766015814.345004,28
1766015814.3450172,29
1766015814.3450298,29
1766015814.345043,29
1766015814.345056,29
1766015814.345068,29
1766015814.345081,27
1766015814.345094,26
1766015814.3451068,28
1766015814.34512,30
1766015814.345132,29
1766015814.345151,26
1766015814.3451672,30
1766015814.345181,28
1766015814.345194,30
1766015814.345207,31
1766015814.34522,27
1766015814.345233,29
1766015814.3452458,27
1766015814.345259,29
1766015814.345272,26
1766015814.3452852,27
1766015814.3452978,26
1766015814.34531,28
1766015814.345323,30
1766015814.3453372,28
1766015814.345353,26
1766015814.345367,25
1766015814.34538,29
1766015814.345393,26
1766015814.345406,29
1766015814.345418,30
1766015814.345431,27
1766015814.3454442,24
1766015814.3454561,26
1766015814.345469,31
1766015814.3454819,26
1766015814.345495,29
1766015814.345508,26
1766015814.34552,30
1766015814.345533,28
1766015814.345546,26
1766015814.3455591,27
1766015814.345571,26
1766015814.3455849,28
1766015814.345598,28
1766015814.345611,26
1766015814.345623,31
1766015814.3456361,26
1766015814.345649,25
1766015814.345666,27
1766015814.345679,30
1766015814.345692,26
1766015814.345705,29
1766015814.345718,27
1766015814.34573,26
1766015814.3457432,32
1766015814.3457558,29
1766015814.345772,34
1766015814.3457851,32
1766015814.345797,32
1766015814.3458078,35
1766015814.34582,32
1766015814.345831,32
1766015814.345842,32
1766015814.3458529,29
1766015814.3458638,30
1766015814.345875,32
1766015814.345886,29
1766015814.345897,28
1766015814.345908,33
1766015814.345919,31
1766015814.34593,30
1766015814.345941,34
1766015814.345952,31
1766015814.345963,31
1766015814.345975,30
1766015814.3459861,30
1766015814.345997,29
1766015814.346008,32
1766015814.346019,35
1766015814.34603,33
1766015814.3460412,33
1766015814.3460522,33
1766015814.3460639,29
1766015814.3460748,31
1766015814.3460858,34
1766015814.346097,29
1766015814.346108,32
1766015814.346119,29
1766015814.3461308,30
1766015814.3461509,31
1766015814.346165,34
1766015814.346178,30
1766015814.346189,33
1766015814.3462,31
1766015814.3462121,32
1766015814.346223,32
1766015814.346234,32
1766015814.346245,31
1766015814.3462558,31
1766015814.346267,32
1766015814.346278,33
1766015814.346289,32
1766015814.3463,32
1766015814.3463109,33
1766015814.3463218,30
1766015814.346333,33
1766015814.346345,36
1766015814.346356,31
1766015814.346367,35
1766015814.346378,35
1766015814.346389,36
1766015814.3464,36
1766015814.346411,36
1766015814.346422,34
1766015814.346434,36
1766015814.346445,36
1766015814.346456,37
1766015814.346467,35
1766015814.346478,35
1766015814.3464892,35
1766015814.346501,35
1766015814.346515,35
1766015814.346529,35
1766015814.34654,36
1766015814.346551,39
1766015814.3465621,35
1766015814.346573,36
1766015814.346584,34
1766015814.346595,36
1766015814.346606,34
1766015814.346617,37
1766015814.3466282,34
1766015814.3466399,36
1766015814.3466508,37
1766015814.3466618,36
1766015814.346673,36
1766015814.346684,35
1766015814.346695,35
1766015814.3467069,39
1766015814.346719,40
1766015814.34673,35
1766015814.346741,33
1766015814.346752,36
1766015814.346763,34
1766015814.346775,39
1766015814.346786,37
1766015814.346797,34
1766015814.346808,36
1766015814.346821,36
1766015814.3468318,36
1766015814.3468428,35
1766015814.346854,36
1766015814.346865,34
1766015814.3468769,32
1766015814.346891,36
1766015814.346903,33
1766015814.346915,35
1766015814.346926,35
1766015814.3469372,34
1766015814.3469481,36
1766015814.3469598,35
1766015814.3469708,33
1766015814.346982,35
1766015814.346993,34
1766015814.347005,33
1766015814.3470159,32
1766015814.3470268,35
1766015814.347038,36
1766015814.34705,35
1766015814.347061,37
1766015814.347072,35
1766015814.347083,34
1766015814.347095,37
1766015814.347106,37
1766015814.347117,36
1766015814.3471282,36
1766015814.3471391,35
1766015814.347154,40
1766015814.347167,33
1766015814.3471801,36
1766015814.347191,35
1766015814.347202,38
1766015814.347213,37
1766015814.347224,36
1766015814.3472362,39
1766015814.3472471,39
1766015814.347261,37
1766015814.347275,39
1766015814.347287,38
1766015814.3472981,39
1766015814.347309,37
1766015814.347321,37
1766015814.347332,36
1766015814.3473432,38
1766015814.3473542,39
1766015814.3473651,37
1766015814.347376,34
1766015814.3473868,37
1766015814.3473978,37
1766015814.347409,37
1766015814.347421,38
1766015814.347432,34
1766015814.347444,38
1766015814.347455,35
1766015814.347467,38
1766015814.347478,38
1766015814.347489,40
1766015814.3475032,39
1766015814.3475149,38
1766015814.3475258,39
1766015814.347538,41
1766015814.347549,40
1766015814.347561,39
1766015814.3475718,36
1766015814.347583,38
1766015814.347594,36
1766015814.347606,39
1766015814.347617,41
1766015814.34763,42
1766015814.3476439,38
1766015814.347657,40
1766015814.347668,41
1766015814.347679,38
1766015814.3476899,38
1766015814.347701,40
1766015814.347712,39
1766015814.347724,41
1766015814.347735,39
1766015814.3477461,38
1766015814.347757,36
1766015814.347768,39
1766015814.347779,40
1766015814.34779,43
1766015814.347801,40
1766015814.3478131,41
1766015814.347824,43
1766015814.3478348,38
1766015814.3478458,38
1766015814.347857,41
1766015814.347868,39
1766015814.347879,40
1766015814.34789,42
1766015814.347902,40
1766015814.347915,38
1766015814.347928,42
1766015814.347939,41
1766015814.34795,43
1766015814.3479612,38
1766015814.3479722,42
1766015814.3479831,38
1766015814.3479948,41
1766015814.3480089,38
1766015814.348022,42
1766015814.3480341,41
1766015814.348045,41
1766015814.348056,40
1766015814.348067,42
1766015814.3480792,44
1766015814.348091,41
1766015814.3481019,40
1766015814.3481169,41
1766015814.348128,42
1766015814.348145,40
1766015814.348158,41
1766015814.348171,41
1766015814.348182,42
1766015814.348193,41
1766015814.348205,43
1766015814.348216,40
1766015814.348227,43
1766015814.348238,45
1766015814.3482502,44
1766015814.348263,39
1766015814.348276,43
1766015814.348289,42
1766015814.3483012,44
1766015814.348313,40
1766015814.348324,43
1766015814.348335,43
1766015814.3483489,45
1766015814.3483598,48
1766015814.348372,46
1766015814.348383,44
1766015814.348398,44
1766015814.3484101,46
1766015814.348421,43
1766015814.348434,45
1766015814.348446,46
1766015814.3484569,44
1766015814.348468,45
1766015814.348479,44
1766015814.348491,46
1766015814.348503,45
1766015814.348514,44
1766015814.348526,48
1766015814.3485382,47
1766015814.3485498,48
1766015814.3485608,46
1766015814.348572,50
1766015814.348584,47
1766015814.348595,51
1766015814.348607,48
1766015814.348657,48
1766015814.34868,49
1766015814.348692,48
1766015814.348704,45
1766015814.348715,48
1766015814.348727,46
1766015814.3487391,47
1766015814.34875,48
1766015814.348762,47
1766015814.348773,48
1766015814.348785,48
1766015814.348796,50
1766015814.3488069,46
1766015814.348819,47
1766015814.348834,47
1766015814.3488462,47
1766015814.3488572,49
1766015814.3488681,47
1766015814.3488798,47
1766015814.348892,47
1766015814.348903,46
1766015814.3489149,48
1766015814.3490171,48
1766015814.3490329,50
1766015814.349045,46
1766015814.349057,50
1766015814.349069,49
1766015814.349081,49
1766015814.349092,53
1766015814.3491042,53
1766015814.349115,57
1766015814.3491268,54
1766015814.349138,55
1766015814.34915,57
1766015814.349162,54
1766015814.349174,55
1766015814.349185,55
1766015814.349196,57
1766015814.349208,52
1766015814.349219,54
1766015814.349231,54
1766015814.3492422,51
1766015814.349254,54
1766015814.3492649,53
1766015814.3492758,53
1766015814.349288,55
1766015814.349301,54
1766015814.349325,51
1766015814.349337,52
1766015814.349349,54
1766015814.3493602,52
1766015814.349372,54
1766015814.3493838,54
1766015814.349396,57
1766015814.349407,55
1766015814.349418,52
1766015814.34943,53
1766015814.349441,53
1766015814.349453,55
1766015814.3494642,57
1766015814.349476,54
1766015814.349488,53
1766015814.349499,57
1766015814.349511,55
1766015814.3495219,53
1766015814.3495328,57
1766015814.349545,60
1766015814.349556,58
1766015814.349567,57
1766015814.349579,58
1766015814.34959,58
1766015814.349601,61
1766015814.349613,58
1766015814.3496242,59
1766015814.349636,63
1766015814.349647,61
1766015814.349659,61
1766015814.34967,61
1766015814.3496819,61
1766015814.349716,67
1766015814.349728,66
1766015814.349739,63
1766015814.349749,60
1766015814.34976,65
1766015814.34977,62
1766015814.34978,65
1766015814.349795,67
1766015814.349806,65
1766015814.349816,64
1766015814.349826,63
1766015814.349836,62
1766015814.3498461,64
1766015814.349856,64
1766015814.350629,59
1766015814.350642,62
1766015814.350653,61
1766015814.350663,60
1766015814.350673,60
1766015814.350684,65
1766015814.350694,60
1766015814.3507042,59
1766015814.3507142,62
1766015814.350724,62
1766015814.3507352,58
1766015814.3507469,59
1766015814.3507578,58
1766015814.350768,58
1766015814.350778,58
1766015814.350788,55
1766015814.3507981,57
1766015814.3508081,55
1766015814.350821,57
1766015814.350833,54
1766015814.350844,57
1766015814.350854,58
1766015814.350864,58
1766015814.3508742,58
1766015814.3508842,56
1766015814.350894,55
1766015814.350904,57
1766015814.350914,56
1766015814.350924,58
1766015814.350934,54
1766015814.350944,55
1766015814.350954,54
1766015814.350964,57
1766015814.3509738,57
1766015814.3509839,54
1766015814.3509939,55
1766015814.351004,56
1766015814.351014,58
1766015814.3510258,53
1766015814.3510358,57
1766015814.3510458,54
1766015814.3510559,55
1766015814.351066,55
1766015814.3510761,56
1766015814.3510861,59
1766015814.3510962,58
1766015814.3511062,56
1766015814.351116,53
1766015814.351126,53
1766015814.351136,54
1766015814.351146,57
1766015814.351158,54
1766015814.351169,56
1766015814.3511791,53
1766015814.351189,57
1766015814.351199,54
1766015814.351209,53
1766015814.351219,53
1766015814.351229,57
1766015814.3512378,56
1766015814.351249,56
1766015814.351259,57
1766015814.351268,55
1766015814.351278,53
1766015814.351288,58
1766015814.351298,60
1766015814.351308,55
1766015814.3513181,58
1766015814.351328,57
1766015814.351338,54
1766015814.351348,57
1766015814.351358,58
1766015814.351368,55
1766015814.351378,56
1766015814.351389,54
1766015814.351398,54
1766015814.3514082,57
1766015814.351418,53
1766015814.351428,55
1766015814.351438,57
1766015814.351448,54
1766015814.351459,55
1766015814.35147,54
1766015814.35149,54
1766015814.3515022,56
1766015814.351512,54
1766015814.351522,54
1766015814.351532,51
1766015814.351542,55
1766015814.351552,55
1766015814.351562,52
1766015814.351572,53
1766015814.351583,53
1766015814.351593,53
1766015814.351603,53
1766015814.3516119,51
1766015814.3516219,53
1766015814.3516319,50
1766015814.3516438,51
1766015814.351737,52
1766015814.351752,54
1766015814.351765,50
1766015814.351778,51
1766015814.3517911,54
1766015814.3518531,49
1766015814.351866,50
1766015814.351879,52
1766015814.351892,52
1766015814.351905,52
1766015814.351917,51
1766015814.3519301,52
1766015814.3519418,49
1766015814.351955,47
1766015814.351968,50
1766015814.3519812,52
1766015814.352034,50
1766015814.352057,50
1766015814.3520708,49
1766015814.352084,48
1766015814.352097,49
1766015814.3521101,51
1766015814.3521228,49
1766015814.352135,52
1766015814.352148,47
1766015814.35217,51
1766015814.352183,46
1766015814.352196,48
1766015814.3522089,49
1766015814.352222,47
1766015814.352235,50
1766015814.352247,48
1766015814.35226,49
1766015814.352273,50
1766015814.352285,50
1766015814.352298,51
1766015814.35231,47
1766015814.352323,52
1766015814.3523378,51
1766015814.352351,50
1766015814.352363,49
1766015814.352376,50
1766015814.3523881,52
1766015814.3524008,49
1766015814.352414,47
1766015814.352427,51
1766015814.352439,49
1766015814.352452,49
1766015814.352464,49
1766015814.35248,48
1766015814.352494,49
1766015814.3525069,46
1766015814.3525188,49
1766015814.352532,46
1766015814.352545,48
1766015814.352557,50
1766015814.35257,48
1766015814.352583,44
1766015814.3525949,48
1766015814.352608,47
1766015814.352621,49
1766015814.3526342,46
1766015814.3526459,44
1766015814.352659,48
1766015814.352671,42
1766015814.352684,44
1766015814.3526971,47
1766015814.352709,47
1766015814.352722,44
1766015814.3527339,46
1766015814.352747,46
1766015814.35276,45
1766015814.352772,44
1766015814.3527849,42
1766015814.352798,46
1766015814.352811,44
1766015814.352823,43
1766015814.3528361,42
1766015814.352849,43
1766015814.352861,43
1766015814.352874,47
1766015814.3528872,42
1766015814.352903,42
1766015814.352917,44
1766015814.35293,43
1766015814.352942,43
1766015814.3529549,43
1766015814.352967,43
1766015814.35298,43
1766015814.352993,45
1766015814.3530052,46
1766015814.353018,43
1766015814.35303,44
1766015814.3530428,44
1766015814.353056,42
1766015814.353069,43
1766015814.353081,43
1766015814.3530939,42
1766015814.353107,44
1766015814.35312,42
1766015814.353132,39
1766015814.3531451,41
1766015814.353158,42
1766015814.35317,41
1766015814.353183,42
1766015814.3531961,42
1766015814.353208,40
1766015814.3532212,42
1766015814.3532338,41
1766015814.353247,38
1766015814.353259,39
1766015814.353272,42
1766015814.3532841,41
1766015814.353297,40
1766015814.353309,42
1766015814.353326,41
1766015814.35334,40
1766015814.3533518,42
1766015814.353365,39
1766015814.353378,44
1766015814.35339,37
1766015814.3534029,39
1766015814.353415,37
1766015814.353428,40
1766015814.353441,42
1766015814.3534532,39
1766015814.353466,39
1766015814.353478,42
1766015814.3534908,40
1766015814.353503,41
1766015814.353516,40
1766015814.353528,37
1766015814.3535411,39
1766015814.3535528,40
1766015814.353566,39
1766015814.353578,40
1766015814.353591,39
1766015814.3536031,37
1766015814.3536158,39
1766015814.3536289,38
1766015814.353642,38
1766015814.353655,40
1766015814.3536682,37
1766015814.3536808,37
1766015814.353694,34
1766015814.353706,39
1766015814.353719,34
1766015814.353732,38
1766015814.353748,38
1766015814.353763,37
1766015814.3537762,33
1766015814.353788,37
1766015814.353801,39
1766015814.353813,37
1766015814.353826,35
1766015814.353838,37
1766015814.3538508,38
1766015814.353864,35
1766015814.353877,37
1766015814.353889,36
1766015814.353902,36
1766015814.353914,39
1766015814.353926,37
1766015814.353939,35
1766015814.353952,36
1766015814.353964,34
1766015814.3539772,34
1766015814.3539898,35
1766015814.354002,34
1766015814.3540149,33
1766015814.354028,36
1766015814.3540401,34
1766015814.354053,34
1766015814.354065,36
1766015814.354078,33
1766015814.354091,35
1766015814.354103,35
1766015814.3541162,32
1766015814.354128,35
1766015814.354141,35
1766015814.354153,34
1766015814.3541691,34
1766015814.354184,33
1766015814.354196,35
1766015814.354209,35
1766015814.354222,34
1766015814.3542342,32
1766015814.3542469,33
1766015814.354259,35
1766015814.354272,31
1766015814.354285,34
1766015814.3542972,33
1766015814.3543098,30
1766015814.354322,33
1766015814.354335,31
1766015814.354348,36
1766015814.35436,33
1766015814.3543732,29
1766015814.3543859,33
1766015814.354399,31
1766015814.354412,35
1766015814.354424,31
1766015814.354437,34
1766015814.3544488,35
1766015814.354462,34
1766015814.354475,33
1766015814.3544881,34
1766015814.3545,34
1766015814.354513,33
1766015814.354526,34
1766015814.354538,33
1766015814.354551,33
1766015814.354563,32
1766015814.3545759,32
1766015814.3545961,33
1766015814.35461,32
1766015814.354623,34
1766015814.354636,35
1766015814.354648,31
1766015814.3546612,34
1766015814.354673,35
1766015814.354686,35
1766015814.354699,33
1766015814.354711,30
1766015814.3547242,30
1766015814.354736,33
1766015814.354749,34
1766015814.354762,31
1766015814.354774,35
1766015814.354787,33
1766015814.354799,31
1766015814.354812,30
1766015814.354825,30
1766015814.3548381,32
1766015814.35485,32
1766015814.3548632,31
1766015814.3548758,34
1766015814.354888,32
1766015814.354901,31
1766015814.354913,33
1766015814.354926,31
1766015814.354938,32
1766015814.354951,30
1766015814.354964,31
1766015814.3549771,29
1766015814.35499,32
1766015814.3550022,31
1766015814.355019,29
1766015814.3550332,30
1766015814.3550458,32
1766015814.355058,29
1766015814.355071,28
1766015814.355083,32
1766015814.355096,32
1766015814.355108,31
1766015814.355121,31
1766015814.3551328,31
1766015814.355146,35
1766015814.355159,32
1766015814.355171,31
1766015814.355184,31
1766015814.355196,33
1766015814.3552089,31
1766015814.355222,32
1766015814.3552341,32
1766015814.355247,31
1766015814.355259,31
1766015814.355272,33
1766015814.355284,29
1766015814.355297,32
1766015814.355309,31
1766015814.3553221,30
1766015814.3553338,33
1766015814.355347,35
1766015814.35536,32
1766015814.355372,30
1766015814.355385,35
1766015814.3553972,31
1766015814.3554099,32
1766015814.355423,30
1766015814.3554392,29
1766015814.355453,30
1766015814.355466,28
1766015814.355478,33
1766015814.35549,30
1766015814.355503,30
1766015814.355516,34
1766015814.3555279,33
1766015814.355541,28
1766015814.355554,31
1766015814.355566,35
1766015814.355579,31
1766015814.3555908,35
1766015814.355604,32
1766015814.355617,29
1766015814.3556302,28
1766015814.355642,29
1766015814.355715,32
1766015814.3557389,31
1766015814.3557498,29
1766015814.3557608,32
1766015814.355772,32
1766015814.3557818,34
1766015814.355793,31
1766015814.355804,33
1766015814.355815,32
1766015814.355825,32
1766015814.355836,31
1766015814.355847,30
1766015814.355857,31
1766015814.3558679,29
1766015814.3558788,28
1766015814.35589,29
1766015814.355904,32
1766015814.355915,32
1766015814.355926,32
1766015814.355936,31
1766015814.355947,30
1766015814.355958,32
1766015814.355968,32
1766015814.355979,33
1766015814.35599,30
1766015814.356,32
1766015814.356011,35
1766015814.3560221,29
1766015814.356032,29
1766015814.356051,29
1766015814.356062,29
1766015814.356072,33
1766015814.356083,29
1766015814.356094,29
1766015814.3561049,34
1766015814.3561149,31
1766015814.356126,32
1766015814.356137,28
1766015814.356148,31
1766015814.356158,33
1766015814.356169,31
1766015814.35618,33
1766015814.35619,30
1766015814.356201,32
1766015814.356211,31
1766015814.356222,30
1766015814.356232,33
1766015814.356243,31
1766015814.356253,31
1766015814.356267,29
1766015814.3562791,30
1766015814.356289,29
1766015814.3563,28
1766015814.3563101,30
1766015814.356321,27
1766015814.356331,29
1766015814.356342,31
1766015814.356352,31
1766015814.356363,32
1766015814.356374,29
1766015814.356385,29
1766015814.356395,29
1766015814.356406,30
1766015814.356417,27
1766015814.356427,25
1766015814.356438,29
1766015814.356448,26
1766015814.356459,30
1766015814.356469,31
1766015814.35648,29
1766015814.356491,28
1766015814.356501,27
1766015814.356512,32
1766015814.356523,29
1766015814.356533,29
1766015814.356544,33
1766015814.356555,28
1766015814.356565,28
1766015814.356576,26
1766015814.356586,31
1766015814.356597,30
1766015814.356609,31
1766015814.3566248,28
1766015814.3566358,30
1766015814.356647,29
1766015814.3566568,28
1766015814.356668,31
1766015814.356679,27
1766015814.35669,29
1766015814.356701,27
1766015814.356711,28
1766015814.3567219,30
1766015814.356732,30
1766015814.3567429,28
1766015814.3567538,28
1766015814.3567638,29
1766015814.3567748,28
1766015814.3567848,26
1766015814.3567958,29
1766015814.356807,27
1766015814.356817,27
1766015814.356828,29
1766015814.356838,25
1766015814.356849,26
1766015814.356874,26
1766015814.356885,27
1766015814.356896,28
1766015814.356907,29
1766015814.356917,26
1766015814.356928,27
1766015814.356939,26
1766015814.35695,27
1766015814.35696,27
1766015814.356971,26
1766015814.356985,26
1766015814.356996,27
1766015814.357006,26
1766015814.357019,27
1766015814.3570292,30
1766015814.3570402,27
1766015814.357051,24
1766015814.3570611,26
1766015814.3570719,27
1766015814.357096,23
1766015814.357106,25
1766015814.357117,25
1766015814.357127,26
1766015814.357138,24
1766015814.357149,24
1766015814.3571599,27
1766015814.3571699,23
1766015814.3571808,23
1766015814.357192,23
1766015814.357203,25
1766015814.357213,25
1766015814.357224,25
1766015814.357234,26
1766015814.357245,26
1766015814.357256,28
1766015814.357267,23
1766015814.357288,23
1766015814.3572989,27
1766015814.3573089,23
1766015814.3573198,24
1766015814.3573298,26
1766015814.3573408,23
1766015814.3573508,26
1766015814.357362,20
1766015814.357373,23
1766015814.3573902,25
1766015814.357402,25
1766015814.357413,23
1766015814.357423,25
1766015814.357434,25
1766015814.357445,25
1766015814.357455,25
1766015814.3574662,23
1766015814.357476,25
1766015814.3574872,24
1766015814.357497,23
1766015814.3575082,24
1766015814.3575191,24
1766015814.3575292,20
1766015814.3575401,21
1766015814.3575501,25
1766015814.357561,25
1766015814.3575711,20
1766015814.357582,22
1766015814.357592,24
1766015814.357603,25
1766015814.357614,22
1766015814.357625,20
1766015814.3576362,24
1766015814.357646,24
1766015814.3576572,23
1766015814.3576682,23
1766015814.3576782,22
1766015814.3576891,22
1766015814.3577,25
1766015814.3577101,20
1766015814.357721,23
1766015814.357731,23
1766015814.357745,24
1766015814.357758,24
1766015814.357769,21
1766015814.35778,23
1766015814.357791,22
1766015814.357801,21
1766015814.357812,25
1766015814.357823,21
1766015814.357833,26
1766015814.357843,22
1766015814.357854,23
1766015814.3578649,22
1766015814.3578749,22
1766015814.3578858,23
1766015814.357897,22
1766015814.357907,19
1766015814.357918,21
1766015814.357928,24
1766015814.357939,23
1766015814.357949,23
1766015814.35796,25
1766015814.35797,24
1766015814.357981,19
1766015814.357991,22
1766015814.358002,20
1766015814.358012,19
1766015814.358023,23
1766015814.358033,23
1766015814.358044,25
1766015814.3580549,19
1766015814.358065,22
1766015814.3580759,22
1766015814.3580859,23
1766015814.358103,22
1766015814.358115,24
1766015814.3581262,21
1766015814.3581371,23
1766015814.3581471,21
1766015814.358158,22
1766015814.3581681,26
1766015814.35819,22
1766015814.358201,22
1766015814.358211,23
1766015814.358222,24
1766015814.358233,22
1766015814.3582442,21
1766015814.3582542,21
1766015814.3582652,22
1766015814.3582752,23
1766015814.3582861,23
1766015814.3582962,18
1766015814.3583071,19
1766015814.358318,22
1766015814.358329,22
1766015814.35834,21
1766015814.35835,24
1766015814.358361,23
1766015814.358371,23
1766015814.358382,24
1766015814.358392,24
1766015814.3584042,23
1766015814.3584142,25
1766015814.3584251,22
1766015814.3584352,25
1766015814.3584461,21
1766015814.3584561,23
1766015814.358467,23
1766015814.358484,22
1766015814.358498,21
1766015814.358508,21
1766015814.358519,23
1766015814.358529,21
1766015814.35854,22
1766015814.35855,20
1766015814.358561,22
1766015814.358571,23
1766015814.358581,23
1766015814.358592,23
1766015814.358602,19
1766015814.358613,23
1766015814.358623,23
1766015814.358634,23
1766015814.358644,20
1766015814.358655,23
1766015814.358666,22
1766015814.358676,23
1766015814.358687,23
1766015814.358697,21
1766015814.358708,22
1766015814.358718,22
1766015814.35873,19
1766015814.3587399,21
1766015814.358751,21
1766015814.358761,24
1766015814.358772,24
1766015814.358783,23
1766015814.358793,21
1766015814.358804,19
1766015814.358814,22
1766015814.358825,22
1766015814.3588412,22
1766015814.358853,21
1766015814.358863,23
1766015814.3588748,22
1766015814.358885,20
1766015814.358895,24
1766015814.358906,21
1766015814.358916,19
1766015814.358927,23
1766015814.358937,18
1766015814.358948,20
1766015814.358958,19
1766015814.358969,21
1766015814.358979,22
1766015814.358989,22
1766015814.359,23
1766015814.35901,22
1766015814.359021,22
1766015814.359031,22
1766015814.359042,20
1766015814.359052,22
1766015814.3590631,19
1766015814.359073,23
1766015814.3590841,19
1766015814.359094,22
1766015814.359105,23
1766015814.3591151,22
1766015814.359126,23
1766015814.359137,24
1766015814.359147,23
1766015814.359158,22
1766015814.359168,23
1766015814.35919,18
1766015814.359207,21
1766015814.35923,20
1766015814.359241,20
1766015814.359251,21
1766015814.359262,25
1766015814.359273,19
1766015814.359283,23
1766015814.359294,20
1766015814.359304,19
1766015814.359315,25
1766015814.359325,21
1766015814.359336,20
1766015814.359346,24
1766015814.3593569,21
1766015814.359367,23
1766015814.3593779,21
1766015814.3593879,21
1766015814.3593988,21
1766015814.3594098,21
1766015814.3594198,20
1766015814.359431,21
1766015814.3594408,19
1766015814.359452,21
1766015814.3594618,22
1766015814.359473,22
1766015814.3594828,21
1766015814.3595011,22
1766015814.359512,20
1766015814.359522,23
1766015814.359533,22
1766015814.359543,22
1766015814.359554,21
1766015814.359565,21
1766015814.359582,22
1766015814.3595939,22
1766015814.359604,19
1766015814.359615,20
1766015814.3596249,20
1766015814.3596349,23
1766015814.3596458,23
1766015814.359655,19
1766015814.359665,23
1766015814.3596742,21
1766015814.359683,21
1766015814.359692,20
1766015814.359701,18
1766015814.35971,19
1766015814.3597188,23
1766015814.359728,23
1766015814.3597372,23
1766015814.3597472,22
1766015814.359756,21
1766015814.359765,21
1766015814.3597739,22
1766015814.359783,24
1766015814.3597922,21
1766015814.359801,22
1766015814.359811,21
1766015814.359822,26
1766015814.359832,22
1766015814.359841,23
1766015814.35985,20
1766015814.359859,22
1766015814.3598678,21
1766015814.359877,19
1766015814.3598862,21
1766015814.359901,23
1766015814.3599129,21
1766015814.359923,19
1766015814.359932,21
1766015814.359941,22
1766015814.35995,21
1766015814.3599591,20
1766015814.359968,21
1766015814.359978,20
1766015814.359987,22
1766015814.3599958,25
1766015814.3600051,21
1766015814.360013,21
1766015814.360022,23
1766015814.360032,21
1766015814.360041,22
1766015814.36005,20
1766015814.3600588,23
1766015814.360068,20
1766015814.3600771,24
1766015814.360086,21
1766015814.360095,23
1766015814.3601038,22
1766015814.360113,21
1766015814.3601248,21
1766015814.360134,24
1766015814.3601432,23
1766015814.360152,22
1766015814.360162,21
1766015814.360181,23
1766015814.36019,24
1766015814.360199,22
1766015814.3602078,22
1766015814.360218,23
1766015814.360231,21
1766015814.360242,23
1766015814.360251,22
1766015814.3602612,20
1766015814.36027,22
1766015814.360279,22
1766015814.360287,20
1766015814.360297,21
1766015814.360306,22
1766015814.3603148,21
1766015814.3603241,20
1766015814.360333,22
1766015814.360342,20
1766015814.360351,20
1766015814.36036,19
1766015814.360369,21
1766015814.360378,23
1766015814.360387,23
1766015814.3603961,21
1766015814.360405,18
1766015814.360414,23
1766015814.3604228,23
1766015814.3604321,23
1766015814.360441,21
1766015814.3604522,22
1766015814.3604622,25
1766015814.360471,21
1766015814.36048,22
1766015814.360489,20
1766015814.360498,21
1766015814.3605068,24
1766015814.360516,20
1766015814.3605251,23
1766015814.36054,19
1766015814.3605518,23
1766015814.360561,23
1766015814.3605702,24
1766015814.360579,21
1766015814.360588,22
1766015814.360597,21
1766015814.360606,22
1766015814.360615,22
1766015814.360624,21
1766015814.3606331,20
1766015814.360642,23
1766015814.360651,20
1766015814.36066,20
1766015814.360669,22
1766015814.360678,21
1766015814.360687,21
1766015814.360696,19
1766015814.3607051,20
1766015814.360714,19
1766015814.360723,21
1766015814.360735,21
1766015814.360744,23
1766015814.3607528,20
1766015814.3607621,23
1766015814.3607721,19
1766015814.360781,24
1766015814.360791,20
1766015814.3608,22
1766015814.3608088,22
1766015814.360818,20
1766015814.360827,19
1766015814.360836,20
1766015814.360847,18
1766015814.360859,22
1766015814.360868,22
1766015814.360877,21
1766015814.360886,22
1766015814.360896,22
1766015814.360906,23
1766015814.360916,22
1766015814.360925,19
1766015814.3609338,21
1766015814.360943,22
1766015814.3609521,22
1766015814.360961,20
1766015814.36097,22
1766015814.3609788,21
1766015814.3609889,24
1766015814.360998,24
1766015814.3610072,20
1766015814.361016,19
1766015814.361025,23
1766015814.361034,22
1766015814.361043,20
1766015814.3610518,20
1766015814.361061,22
1766015814.3610702,18
1766015814.3610802,25
1766015814.361089,21
1766015814.361098,18
1766015814.3611069,21
1766015814.361116,21
1766015814.3611252,21
1766015814.361134,21
1766015814.361143,18
1766015814.3611588,21
1766015814.361168,22
1766015814.3611798,20
1766015814.3611891,19
1766015814.3611982,23
1766015814.361207,22
1766015814.361217,20
1766015814.361226,22
1766015814.361235,19
1766015814.361244,21
1766015814.361253,23
1766015814.361263,19
1766015814.361272,19
1766015814.361281,22
1766015814.36129,19
1766015814.361299,20
1766015814.3613088,23
1766015814.3613179,24
1766015814.3613272,21
1766015814.3613381,21
1766015814.3613482,22
1766015814.361357,22
1766015814.361366,19
1766015814.361375,22
1766015814.361384,19
1766015814.361407,22
1766015814.3614159,22
1766015814.361425,23
1766015814.3614342,23
1766015814.361444,22
1766015814.361453,20
1766015814.361462,26
1766015814.361471,21
1766015814.361481,20
1766015814.361493,23
1766015814.361504,22
1766015814.361513,23
1766015814.361522,18
1766015814.3615308,23
1766015814.36154,19
1766015814.3615491,21
1766015814.36156,22
1766015814.361569,23
1766015814.361578,23
1766015814.361587,22
1766015814.3615959,23
1766015814.361606,21
1766015814.3616152,22
1766015814.361624,22
1766015814.361633,19
1766015814.361642,23
1766015814.361651,21
1766015814.36166,20
1766015814.361669,21
1766015814.3617558,18
1766015814.3617659,22
1766015814.3617752,23
1766015814.361784,22
1766015814.361793,21
1766015814.361802,22
1766015814.361811,20
1766015814.36182,21
1766015814.361829,19
1766015814.361838,21
1766015814.361848,17
1766015814.361857,24
1766015814.361866,22
1766015814.361877,23
1766015814.361887,21
1766015814.361897,18
1766015814.3619058,19
1766015814.3619149,24
1766015814.3619242,22
1766015814.3619342,22
1766015814.361943,16
1766015814.361952,19
1766015814.361961,18
1766015814.36197,22
1766015814.3619788,21
1766015814.361988,23
1766015814.3619971,22
1766015814.362005,18
1766015814.362014,22
1766015814.3620229,24
1766015814.3620322,25
1766015814.3620422,20
1766015814.362051,17
1766015814.36206,20
1766015814.362069,19
1766015814.362078,22
1766015814.362087,21
1766015814.362096,20
1766015814.3621051,25
1766015814.362114,21
1766015814.362124,22
1766015814.362132,21
1766015814.3621418,23
1766015814.362151,23
1766015814.3621602,22
1766015814.362169,19
1766015814.362178,20
1766015814.36219,21
1766015814.362201,22
1766015814.36221,22
1766015814.36222,22
1766015814.362229,19
1766015814.362238,20
1766015814.362247,24
1766015814.3622558,22
1766015814.362265,22
1766015814.362273,23
1766015814.362283,25
1766015814.362292,23
1766015814.3623009,24
1766015814.36231,22
1766015814.362319,21
1766015814.362328,23
1766015814.362337,20
1766015814.362346,22
1766015814.362356,22
1766015814.362365,21
1766015814.3623738,20
1766015814.3623831,17
1766015814.362392,23
1766015814.362402,22
1766015814.362411,23
1766015814.36242,20
1766015814.362429,22
1766015814.362438,21
1766015814.362447,24
1766015814.362456,22
1766015814.3624651,23
1766015814.362474,20
1766015814.362483,21
1766015814.362495,22
1766015814.362505,21
1766015814.362515,20
1766015814.3625238,21
1766015814.362533,21
1766015814.3625422,20
1766015814.3625522,23
1766015814.362561,19
1766015814.36257,21
1766015814.3625789,21
1766015814.362588,23
1766015814.3625972,23
1766015814.362606,22
1766015814.362615,23
1766015814.362624,21
1766015814.362633,22
1766015814.3626418,22
1766015814.3626509,22
1766015814.3626602,22
1766015814.362669,19
1766015814.362678,23
1766015814.3626869,20
1766015814.362697,19
1766015814.362706,23
1766015814.3627148,21
1766015814.362724,20
1766015814.3627331,18
1766015814.362742,25
1766015814.362751,24
1766015814.3627598,22
1766015814.362769,24
1766015814.3627782,20
1766015814.362787,21
1766015814.362796,21
1766015814.362808,21
1766015814.362819,22
1766015814.362828,22
1766015814.362837,23
1766015814.362846,22
1766015814.362855,22
1766015814.362865,20
1766015814.362874,23
1766015814.362883,24
1766015814.3628922,24
1766015814.362901,19
1766015814.36291,24
1766015814.3629189,24
1766015814.3629282,23
1766015814.362937,24
1766015814.362946,20
1766015814.362955,23
1766015814.362964,20
1766015814.362973,21
1766015814.3629818,23
1766015814.362991,20
1766015814.363001,25
1766015814.36301,23
1766015814.363019,19
1766015814.363028,22
1766015814.3630369,19
1766015814.363046,23
1766015814.363055,25
1766015814.363064,21
1766015814.363073,22
1766015814.363082,23
1766015814.363091,24
1766015814.3630998,21
1766015814.363112,24
1766015814.363122,22
1766015814.363132,21
1766015814.3631418,23
1766015814.363151,25
1766015814.3631601,23
1766015814.363169,28
1766015814.363178,24
1766015814.3631868,24
1766015814.363196,25
1766015814.3632052,25
1766015814.363214,25
1766015814.363224,25
1766015814.363233,23
1766015814.363242,23
1766015814.363251,25
1766015814.3632598,26
1766015814.363269,25
1766015814.3632782,27
1766015814.363287,22
1766015814.363296,26
1766015814.3633049,22
1766015814.363314,26
1766015814.363323,26
1766015814.363332,25
1766015814.363342,23
1766015814.363351,24
1766015814.36336,24
1766015814.363369,23
1766015814.363379,23
1766015814.3633878,26
1766015814.3633971,25
1766015814.3634062,28
1766015814.363415,23
1766015814.3634272,23
1766015814.3634381,24
1766015814.363447,26
1766015814.363456,22
1766015814.363465,25
1766015814.363474,24
1766015814.363483,24
1766015814.363492,26
1766015814.363501,25
1766015814.3635101,26
1766015814.363519,23
1766015814.363528,23
1766015814.363538,25
1766015814.3635468,25
1766015814.3635561,26
1766015814.363565,26
1766015814.363575,26
1766015814.363584,25
1766015814.3635929,26
1766015814.363602,27
1766015814.363612,26
1766015814.3636212,24
1766015814.36363,26
1766015814.363639,24
1766015814.363648,22
1766015814.3636549,23
1766015814.36366,23
1766015814.363664,26
1766015814.363668,26
1766015814.363672,26
1766015814.363677,24
1766015814.363681,24
1766015814.3636851,25
1766015814.36369,24
1766015814.3636942,25
1766015814.363698,24
1766015814.363702,27
1766015814.3637068,27
1766015814.3637109,23
1766015814.3637152,25
1766015814.36372,22
1766015814.363724,25
1766015814.363729,26
1766015814.363733,25
1766015814.363737,26
1766015814.363741,27
1766015814.3637462,25
1766015814.36375,24
1766015814.363754,24
1766015814.363759,24
1766015814.3637629,25
1766015814.3637671,22
1766015814.363772,26
1766015814.363776,26
1766015814.36378,25
1766015814.3637838,26
1766015814.363789,25
1766015814.363793,25
1766015814.363797,24
1766015814.3638022,22
1766015814.363806,23
1766015814.36381,25
1766015814.3638139,26
1766015814.3638191,26
1766015814.3638232,23
1766015814.363827,24
1766015814.363832,26
1766015814.3638358,24
1766015814.36384,23
1766015814.3638442,23
1766015814.363849,22
1766015814.363853,24
1766015814.3638568,26
1766015814.363862,24
1766015814.363866,24
1766015814.36387,23
1766015814.363874,24
1766015814.363879,24
1766015814.363883,22
1766015814.363887,25
1766015814.363892,25
1766015814.3638961,24
1766015814.3639,24
1766015814.363904,24
1766015814.363909,25
1766015814.363913,22
1766015814.363918,27
1766015814.3639219,23
1766015814.363926,26
1766015814.3639302,26
1766015814.363935,22
1766015814.363939,24
1766015814.3639429,22
1766015814.363948,20
1766015814.3639522,25
1766015814.363956,22
1766015814.363961,24
1766015814.363965,21
1766015814.363969,25
1766015814.3639739,27
1766015814.363978,23
1766015814.363982,25
1766015814.363987,22
1766015814.363991,23
1766015814.3639948,23
1766015814.364,24
1766015814.3640041,24
1766015814.364008,24
1766015814.364013,22
1766015814.364017,23
1766015814.364021,24
1766015814.364025,26
1766015814.36403,24
1766015814.364034,25
1766015814.364038,23
1766015814.364043,23
1766015814.364047,22
1766015814.3640509,25
1766015814.3640552,24
1766015814.36406,25
1766015814.364064,23
1766015814.3640692,24
1766015814.364073,26
1766015814.364077,23
1766015814.364081,24
1766015814.364086,25
1766015814.3640902,24
1766015814.364095,26
1766015814.364099,21
1766015814.3641028,25
1766015814.364108,25
1766015814.364112,24
1766015814.364117,22
1766015814.3641212,25
1766015814.364126,19
1766015814.36413,22
1766015814.3641338,22
1766015814.364138,23
1766015814.3641431,23
1766015814.364147,22
1766015814.364151,24
1766015814.364156,23
1766015814.36416,25
1766015814.364165,23
1766015814.364169,24
1766015814.3641732,22
1766015814.364177,22
1766015814.364182,24
1766015814.364186,22
1766015814.3641899,21
1766015814.364195,23
1766015814.364199,28
1766015814.364203,22
1766015814.3642082,21
1766015814.364212,25
1766015814.364217,21
1766015814.3642209,24
1766015814.364225,24
1766015814.36423,22
1766015814.364234,25
1766015814.364238,25
1766015814.3642418,23
1766015814.364247,21
1766015814.364251,25
1766015814.364255,20
1766015814.3642602,24
1766015814.364264,24
1766015814.364268,25
1766015814.3642728,23
1766015814.364277,24
1766015814.3642812,23
1766015814.364285,24
1766015814.36429,23
1766015814.3642938,25
1766015814.3642979,21
1766015814.364303,19
1766015814.364307,25
1766015814.364311,24
1766015814.364316,23
1766015814.36432,24
1766015814.364324,25
1766015814.3643289,24
1766015814.364334,23
1766015814.36434,24
1766015814.364345,25
1766015814.364352,25
1766015814.3643572,22
1766015814.364363,23
1766015814.364369,23
1766015814.364375,22
1766015814.3643808,23
1766015814.364387,26
1766015814.364392,22
1766015814.364396,23
1766015814.3644009,24
1766015814.364405,22
1766015814.364409,24
1766015814.364414,22
1766015814.364418,21
1766015814.3644218,23
1766015814.364426,22
1766015814.3644311,24
1766015814.364435,22
1766015814.364439,28
1766015814.364444,23
1766015814.364448,26
1766015814.3644521,26
1766015814.364457,23
1766015814.364461,23
1766015814.364465,23
1766015814.36447,25
1766015814.364474,21
1766015814.3644779,22
1766015814.364483,23
1766015814.364487,20
1766015814.364491,22
1766015814.3644958,22
1766015814.3645,24
1766015814.364504,22
1766015814.3645089,23
1766015814.364513,24
1766015814.3645172,24
1766015814.364522,24
1766015814.364526,19
1766015814.3645298,28
1766015814.364535,23
1766015814.364539,21
1766015814.364543,25
1766015814.3645482,25
1766015814.364552,24
1766015814.364556,24
1766015814.3645608,23
1766015814.364565,26
1766015814.3645692,23
1766015814.364574,24
1766015814.364578,23
1766015814.3645818,24
1766015814.364587,24
1766015814.3645911,22
1766015814.364595,23
1766015814.3646002,25
1766015814.364604,22
1766015814.364608,21
1766015814.364613,25
1766015814.3646169,22
1766015814.3646212,25
1766015814.364626,23
1766015814.36463,21
1766015814.364635,26
1766015814.364639,22
1766015814.364644,26
1766015814.365269,22
1766015814.366255,23
1766015814.367296,24
1766015814.368303,23
1766015814.369288,27
1766015814.3702688,25
1766015814.371268,23
1766015814.372294,22
1766015814.373346,25
1766015814.3743548,20
1766015814.3753312,24
1766015814.376309,24
1766015814.3773131,25
1766015814.378336,25
1766015814.3792908,23
1766015814.380356,21
1766015814.381313,24
1766015814.382381,24
1766015814.383331,25
1766015814.384359,23
1766015814.385328,25
1766015814.386318,24
1766015814.387403,22
1766015814.3883588,26
1766015814.389351,22
1766015814.390325,25
1766015814.39135,23
1766015814.3923788,21
1766015814.3933702,25
1766015814.39433,26
1766015814.3953862,22
1766015814.3963919,26
1766015814.397366,23
1766015814.398397,23
1766015814.399363,24
1766015814.4003499,24
1766015814.4013498,25
1766015814.402424,21
1766015814.403397,20
1766015814.4043882,23
1766015814.405399,23
1766015814.4064372,23
1766015814.4074109,24
1766015814.408444,24
1766015814.4094038,21
1766015814.4104462,23
1766015814.4113889,23
1766015814.412388,24
1766015814.4134212,24
1766015814.414402,25
1766015814.415406,25
1766015814.416427,23
1766015814.417471,25
1766015814.418447,23
1766015814.41946,22
1766015814.420437,22
1766015814.421399,23
1766015814.4224288,23
1766015814.423438,24
1766015814.4244108,25
1766015814.425396,22
1766015814.4263859,23
1766015814.427406,23
1766015814.4284532,23
1766015814.4294488,22
1766015814.430466,24
1766015814.4314911,24
1766015814.432433,22
1766015814.433425,26
1766015814.434442,23
1766015814.435463,24
1766015814.436481,24
1766015814.43748,21
1766015814.438478,25
1766015814.439446,23
1766015814.440446,24
1766015814.4414568,23
1766015814.442486,21
1766015814.443488,24
1766015814.4444852,23
1766015814.445461,23
1766015814.446471,23
1766015814.4475021,24
1766015814.448481,24
1766015814.449478,25
1766015814.450478,23
1766015814.451509,24
1766015814.452478,24
1766015814.453521,22
1766015814.454488,21
1766015814.455519,22
1766015814.4564888,23
1766015814.457524,21
1766015814.45854,26
1766015814.459541,23
1766015814.4605398,27
1766015814.4615521,23
1766015814.462519,25
1766015814.463563,22
1766015814.46454,22
1766015814.4655511,24
1766015814.4665542,21
1766015814.467558,24
1766015814.468571,23
1766015814.469565,27
1766015814.470565,24
1766015814.471571,23
1766015814.472571,22
1766015814.473577,23
1766015814.474592,26
1766015814.475585,24
1766015814.476614,22
1766015814.477569,21
1766015814.478583,24
1766015814.479597,24
1766015814.4806,20
1766015814.481607,25
1766015814.482622,22
1766015814.4836102,22
1766015814.484618,22
1766015814.4856079,24
1766015814.486625,23
1766015814.4876192,24
1766015814.488631,19
1766015814.489614,23
1766015814.490633,27
1766015814.491638,23
1766015814.492619,21
1766015814.493629,22
1766015814.4946408,20
1766015814.4956338,21
1766015814.4966311,22
1766015814.4976451,21
1766015814.49865,24
1766015814.4996538,24
1766015814.5006568,20
1766015814.501657,26
1766015814.502662,24
1766015814.503666,25
1766015814.50466,24
1766015814.5056581,26
1766015814.506662,23
1766015814.507669,22
1766015814.5086799,23
1766015814.509675,23
1766015814.51069,25
1766015814.5116951,25
1766015814.512691,25
1766015814.513695,22
1766015814.514692,21
1766015814.515701,26
1766015814.516694,25
1766015814.517691,23
1766015814.51871,26
1766015814.519712,24
1766015814.5207229,24
1766015814.521695,26
1766015814.522718,22
1766015814.523724,26
1766015814.524726,26
1766015814.525719,23
1766015814.526719,23
1766015814.5277271,26
1766015814.5287302,26
1766015814.529741,24
1766015814.5307362,25
1766015814.531751,26
1766015814.532746,25
1766015814.533746,26
1766015814.534742,25
1766015814.535742,25
1766015814.536747,25
1766015814.537754,29
1766015814.5387561,22
1766015814.539746,25
1766015814.540771,25
1766015814.541771,22
1766015814.5427709,26
1766015814.5437691,23
1766015814.544769,22
1766015814.5457668,26
1766015814.546772,25
1766015814.547776,23
1766015814.548783,24
1766015814.549783,25
1766015814.550785,27
1766015814.551786,27
1766015814.552798,24
1766015814.553795,28
1766015814.5548,27
1766015814.555796,26
1766015814.556812,27
1766015814.5577972,27
1766015814.558805,24
1766015814.559807,25
1766015814.560815,28
1766015814.561823,25
1766015814.562815,27
1766015814.563829,24
1766015814.5648372,28
1766015814.565836,28
1766015814.566838,27
1766015814.567849,27
1766015814.568845,27
1766015814.569846,28
1766015814.570868,27
1766015814.571863,28
1766015814.5728462,28
1766015814.5738492,27
1766015814.574881,29
1766015814.575867,25
1766015814.576867,26
1766015814.577884,30
1766015814.578881,29
1766015814.5798678,25
1766015814.580874,27
1766015814.5818849,27
1766015814.58288,24
1766015814.583887,25
1766015814.584887,28
1766015814.58589,26
1766015814.586897,25
1766015814.58789,25
1766015814.588911,23
1766015814.589887,25
1766015814.59089,25
1766015814.5918899,26
1766015814.5928981,23
1766015814.5939,24
1766015814.594909,29
1766015814.595912,25
1766015814.59691,25
1766015814.5979059,25
1766015814.598908,26
1766015814.599916,28
1766015814.6009338,26
1766015814.601938,29
1766015814.6029398,30
1766015814.6039512,28
1766015814.604933,28
1766015814.605958,24
1766015814.606951,25
1766015814.607955,25
1766015814.6089401,30
1766015814.609961,27
1766015814.6109629,24
1766015814.611955,27
1766015814.6129642,24
1766015814.61396,24
1766015814.614969,28
1766015814.615993,29
1766015814.616981,27
1766015814.617988,25
1766015814.618983,24
1766015814.619979,27
1766015814.6209862,26
1766015814.621984,26
1766015814.622983,27
1766015814.624001,27
1766015814.6250062,26
1766015814.626004,25
1766015814.627001,28
1766015814.628001,30
1766015814.629005,28
1766015814.630008,27
1766015814.6309981,26
1766015814.632017,28
1766015814.633014,27
1766015814.634013,30
1766015814.63503,28
1766015814.6360471,28
1766015814.637035,29
1766015814.638038,27
1766015814.639043,28
1766015814.640044,29
1766015814.6410491,29
1766015814.642048,30
1766015814.643051,29
1766015814.6440508,26
1766015814.645071,27
1766015814.646057,26
1766015814.647062,28
1766015814.6480682,26
1766015814.6490839,29
1766015814.650065,27
1766015814.6510751,26
1766015814.652093,30
1766015814.6530979,30
1766015814.654079,27
1766015814.6550798,30
1766015814.656084,30
1766015814.657095,29
1766015814.658085,30
1766015814.6590889,30
1766015814.6601012,32
1766015814.661109,28
1766015814.662108,29
1766015814.663108,32
1766015814.6641128,31
1766015814.665108,31
1766015814.666111,30
1766015814.667199,26
1766015814.668205,29
1766015814.6692,31
1766015814.670203,32
1766015814.671205,30
1766015814.672204,29
1766015814.673214,33
1766015814.674207,31
1766015814.675204,34
1766015814.676212,35
1766015814.677213,32
1766015814.678208,35
1766015814.679206,37
1766015814.680206,39
1766015814.681202,38
1766015814.682199,38
1766015814.683208,35
1766015814.684205,40
1766015814.685206,39
1766015814.686205,39
1766015814.687211,40
1766015814.688203,41
1766015814.689211,39
1766015814.690209,38
1766015814.691208,37
1766015814.692205,40
1766015814.693207,39
1766015814.694199,36
1766015814.69521,40
1766015814.696207,37
1766015814.6972,38
1766015814.6982028,39
1766015814.6992068,39
1766015814.7002099,42
1766015814.701217,40
1766015814.702214,39
1766015814.703222,37
1766015814.704214,34
1766015814.70523,38
1766015814.706232,39
1766015814.707244,38
1766015814.7082381,35
1766015814.709237,37
1766015814.710233,36
1766015814.7112372,35
1766015814.712252,39
1766015814.713254,40
1766015814.714248,39
1766015814.715271,38
1766015814.716275,38
1766015814.717272,40
1766015814.718272,40
1766015814.71927,40
1766015814.720274,40
1766015814.721272,37
1766015814.722291,39
1766015814.723297,38
1766015814.724279,36
1766015814.72529,38
1766015814.726291,41
1766015814.727296,40
1766015814.72829,39
1766015814.729312,42
1766015814.730297,44
1766015814.731308,46
1766015814.732316,42
1766015814.733336,45
1766015814.734331,41
1766015814.735311,46
1766015814.736316,48
1766015814.737325,51
1766015814.7383401,52
1766015814.7393432,53
1766015814.7403488,53
1766015814.7413518,61
1766015814.74235,60
1766015814.7433448,61
1766015814.7443452,61
1766015814.745352,59
1766015814.746355,59
1766015814.747375,62
1766015814.748375,61
1766015814.749373,62
1766015814.750698,60
1766015814.7513962,63
1766015814.752369,68
1766015814.753377,66
1766015814.754373,70
1766015814.755379,77
1766015814.756395,77
1766015814.757386,77
1766015814.758365,76
1766015814.759372,77
1766015814.7603672,78
1766015814.761363,80
1766015814.762385,80
1766015814.763402,84
1766015814.764395,82
1766015814.765407,78
1766015814.766401,83
1766015814.767412,84
1766015814.768415,91
1766015814.7694001,94
1766015814.7704058,98
1766015814.771502,109
1766015814.772512,114
1766015814.77351,115
1766015814.774508,114
1766015814.7755232,118
1766015814.776528,118
1766015814.777519,119
1766015814.778521,117
1766015814.779526,118
1766015814.78053,116
1766015814.781512,116
1766015814.782548,118
1766015814.78354,119
1766015814.784538,121
1766015814.785538,115
1766015814.786546,118
1766015814.78755,116
1766015814.788537,117
1766015814.789535,116
1766015814.790556,119
1766015814.7915468,120
1766015814.792546,120
1766015814.793552,125
1766015814.794577,126
1766015814.79556,125
1766015814.796572,127
1766015814.797575,126
1766015814.7985768,130
1766015814.7996001,131
1766015814.800592,135
1766015814.801596,133
1766015814.802598,132
1766015814.803587,130
1766015814.8046038,129
1766015814.80561,129
1766015814.806603,125
1766015814.807612,126
1766015814.808626,130
1766015814.809628,127
1766015814.8106081,130
1766015814.811628,131
1766015814.81262,131
1766015814.813625,133
1766015814.814637,128
1766015814.815638,127
1766015814.8166468,130
1766015814.817652,127
1766015814.8186262,126
1766015814.8196428,123
1766015814.8206542,125
1766015814.821652,129
1766015814.822646,132
1766015814.823646,138
1766015814.824657,148
1766015814.825664,147
1766015814.826669,152
1766015814.8276658,157
1766015814.828661,163
1766015814.82966,165
1766015814.830661,163
1766015814.831664,160
1766015814.8326762,163
1766015814.833694,163
1766015814.834688,163
1766015814.835676,164
1766015814.836687,161
1766015814.837683,160
1766015814.838691,158
1766015814.839704,159
1766015814.840714,157
1766015814.841713,158
1766015814.842707,161
1766015814.8437061,163
1766015814.844714,162
1766015814.845712,164
1766015814.846708,166
1766015814.84773,160
1766015814.848725,161
1766015814.8497238,158
1766015814.850729,156
1766015814.8517451,153
1766015814.8527439,152
1766015814.853725,151
1766015814.8547351,149
1766015814.8557398,146
1766015814.856739,147
1766015814.857742,147
1766015814.858757,144
1766015814.859746,142
1766015814.8607612,143
1766015814.861748,147
1766015814.8627572,157
1766015814.863762,164
1766015814.8647711,171
1766015814.865761,177
1766015814.86677,178
1766015814.867771,176
1766015814.868782,175
1766015814.869774,182
1766015814.8707688,182
1766015814.871767,183
1766015814.872776,184
1766015814.873795,180
1766015814.874805,176
1766015814.875795,177
1766015814.8767848,181
1766015814.8778,183
1766015814.878795,183
1766015814.8798091,181
1766015814.88081,181
1766015814.881804,178
1766015814.882815,180
1766015814.88382,179
1766015814.884814,177
1766015814.885846,175
1766015814.88683,171
1766015814.887821,170
1766015814.888829,169
1766015814.889836,172
1766015814.890833,170
1766015814.891847,169
1766015814.8928509,167
1766015814.893852,165
1766015814.894856,167
1766015814.895862,165
1766015814.8968608,168
1766015814.897863,172
1766015814.8988779,176
1766015814.899859,177
1766015814.900852,177
1766015814.90188,177
1766015814.902876,178
1766015814.903884,175
1766015814.904889,172
1766015814.905896,172
1766015814.906899,172
1766015814.907892,172
1766015814.908895,167
1766015814.909889,167
1766015814.910903,166
1766015814.911911,168
1766015814.912904,169
1766015814.913892,166
1766015814.914907,165
1766015814.915911,164
1766015814.916901,165
1766015814.9179049,160
1766015814.91891,158
1766015814.919913,160
1766015814.920915,156
1766015814.921914,157
1766015814.922912,155
1766015814.9239402,155
1766015814.924942,154
1766015814.9259222,149
1766015814.926927,151
1766015814.9279401,154
1766015814.928941,162
1766015814.929943,166
1766015814.93094,178
1766015814.931937,182
1766015814.932946,181
1766015814.9339452,179
1766015814.9349601,181
1766015814.9359748,182
1766015814.936963,181
1766015814.937969,176
1766015814.938976,177
1766015814.939969,177
1766015814.9409668,178
1766015814.9419892,175
1766015814.9429781,172
1766015814.9439921,171
1766015814.9449768,171
1766015814.946014,172
1766015814.947006,169
1766015814.9480178,168
1766015814.949025,164
1766015814.950043,164
1766015814.951025,163
1766015814.9520361,161
1766015814.953003,161
1766015814.9540238,159
1766015814.955002,159
1766015814.956043,159
1766015814.956981,162
1766015814.9579961,163
1766015814.958982,162
1766015814.959989,163
1766015814.960981,160
1766015814.962021,162
1766015814.963001,159
1766015814.964023,160
1766015814.964986,160
1766015814.966012,159
1766015814.967007,165
1766015814.968025,166
1766015814.969009,165
1766015814.9701009,167
1766015814.971074,166
1766015814.972072,164
1766015814.973063,166
1766015814.974095,160
1766015814.975094,163
1766015814.976078,162
1766015814.977077,161
1766015814.97809,157
1766015814.979087,156
1766015814.980103,156
1766015814.981048,152
1766015814.982081,149
1766015814.983089,150
1766015814.984084,150
1766015814.985087,148
1766015814.9861,150
1766015814.9870908,145
1766015814.988107,149
1766015814.9890912,144
1766015814.990112,144
1766015814.991112,143
1766015814.9921012,143
1766015814.993108,144
1766015814.994122,142
1766015814.9951072,147
1766015814.9961128,146
1766015814.997105,148
1766015814.998207,153
1766015814.9992,157
1766015815.000215,158
1766015815.00124,160
1766015815.002213,162
1766015815.003229,163
1766015815.004211,163
1766015815.0052102,166
1766015815.006204,163
1766015815.0072079,162
1766015815.008218,162
1766015815.0092149,158
1766015815.010208,160
1766015815.011211,156
1766015815.0122108,155
1766015815.0132082,156
1766015815.014206,157
1766015815.0152152,158
1766015815.016215,163
1766015815.01721,161
1766015815.0182111,160
1766015815.0192142,159
1766015815.020213,159
1766015815.0212128,159
1766015815.022212,157
1766015815.02321,156
1766015815.024214,154
1766015815.025216,152
1766015815.026217,150
1766015815.02721,147
1766015815.02821,145
1766015815.029235,145
1766015815.0302231,145
1766015815.031213,144
1766015815.032207,142
1766015815.033206,142
1766015815.034231,143
1766015815.035212,141
1766015815.036216,140
1766015815.0372381,143
1766015815.0382369,141
1766015815.03924,139
1766015815.040237,140
1766015815.041238,138
1766015815.042242,136
1766015815.043251,136
1766015815.044254,137
1766015815.045269,140
1766015815.046261,142
1766015815.047262,142
1766015815.04827,140
1766015815.04927,140
1766015815.050261,137
1766015815.051283,140
1766015815.0522728,140
1766015815.053269,141
1766015815.054283,138
1766015815.055281,134
1766015815.056289,136
1766015815.057293,138
1766015815.058293,140
1766015815.059296,143
1766015815.0602949,147
1766015815.0612962,149
1766015815.062312,151
1766015815.063318,149
1766015815.0643,152
1766015815.0653188,152
1766015815.066313,152
1766015815.067332,151
1766015815.0683289,153
1766015815.0693371,151
1766015815.070341,150
1766015815.071332,147
1766015815.07233,147
1766015815.073335,142
1766015815.074346,143
1766015815.075348,143
1766015815.076344,143
1766015815.077347,149
1766015815.078351,151
1766015815.079363,152
1766015815.0803788,153
1766015815.0813708,150
1766015815.082388,152
1766015815.0833752,149
1766015815.084401,149
1766015815.085386,147
1766015815.086386,149
1766015815.087393,146
1766015815.0883882,146
1766015815.089396,145
1766015815.090397,142
1766015815.091399,140
1766015815.092397,141
1766015815.093395,137
1766015815.0943968,136
1766015815.095391,136
1766015815.096394,137
1766015815.0973911,134
1766015815.098408,135
1766015815.099404,133
1766015815.1004128,132
1766015815.101417,129
1766015815.1024241,128
1766015815.103433,131
1766015815.104447,125
1766015815.105422,126
1766015815.106431,124
1766015815.107439,124
1766015815.1084359,127
1766015815.1094432,127
1766015815.1104472,127
1766015815.111456,128
1766015815.112448,130
1766015815.113448,128
1766015815.114454,129
1766015815.1154501,128
1766015815.116459,127
1766015815.117457,127
1766015815.118471,129
1766015815.119467,124
1766015815.120476,124
1766015815.1214771,122
1766015815.1224818,124
1766015815.123466,124
1766015815.1244988,122
1766015815.1254988,121
1766015815.1264791,121
1766015815.12749,122
1766015815.128491,128
1766015815.1295009,125
1766015815.130495,129
1766015815.1315,127
1766015815.1325,128
1766015815.1335082,129
1766015815.134516,129
1766015815.135526,127
1766015815.136511,128
1766015815.1375098,131
1766015815.138531,125
1766015815.139518,125
1766015815.140533,130
1766015815.141536,131
1766015815.1425438,128
1766015815.143562,127
1766015815.144587,128
1766015815.1455638,129
1766015815.14654,127
1766015815.147539,128
1766015815.148566,127
1766015815.14956,128
1766015815.150559,125
1766015815.151586,126
1766015815.152582,127
1766015815.1535869,126
1766015815.15454,127
1766015815.155555,128
1766015815.156561,131
1766015815.1575592,130
1766015815.15858,131
1766015815.159581,130
1766015815.160594,133
1766015815.161601,133
1766015815.162592,128
1766015815.163614,129
1766015815.164609,128
1766015815.1656132,128
1766015815.166589,132
1766015815.167628,127
1766015815.168604,126
1766015815.169604,124
1766015815.170597,127
1766015815.1716201,122
1766015815.172621,121
1766015815.173617,122
1766015815.174635,121
1766015815.175634,119
1766015815.176625,121
1766015815.177635,119
1766015815.178637,117
1766015815.179646,116
1766015815.180646,112
1766015815.181652,113
1766015815.182644,114
1766015815.183649,112
1766015815.184651,108
1766015815.1856692,109
1766015815.186656,113
1766015815.187663,107
1766015815.188669,109
1766015815.189661,109
1766015815.1906729,109
1766015815.191672,111
1766015815.1926668,114
1766015815.193686,115
1766015815.194689,111
1766015815.195671,113
1766015815.196705,110
1766015815.19769,109
1766015815.198695,108
1766015815.1996968,107
1766015815.200707,105
1766015815.201727,108
1766015815.202699,105
1766015815.203711,104
1766015815.204718,104
1766015815.205719,103
1766015815.206723,104
1766015815.2077172,104
1766015815.2087271,103
1766015815.209715,101
1766015815.2106292,99
1766015815.2117271,102
1766015815.212642,98
1766015815.213655,97
1766015815.214632,96
1766015815.21563,96
1766015815.216645,98
1766015815.217642,97
1766015815.21865,97
1766015815.219667,97
1766015815.2206562,94
1766015815.22166,95
1766015815.222655,96
1766015815.2236621,92
1766015815.224679,91
1766015815.225677,91
1766015815.226675,90
1766015815.227676,93
1766015815.228679,91
1766015815.2296782,89
1766015815.230676,91
1766015815.23169,90
1766015815.232693,93
1766015815.233685,93
1766015815.234684,91
1766015815.235698,90
1766015815.236686,92
1766015815.237704,89
1766015815.238699,92
1766015815.239699,90
1766015815.240702,91
1766015815.241699,91
1766015815.242712,88
1766015815.243721,89
1766015815.244711,90
1766015815.245733,89
1766015815.2467148,88
1766015815.24773,87
1766015815.248735,92
1766015815.249744,93
1766015815.250755,91
1766015815.251738,91
1766015815.2527392,92
1766015815.253747,93
1766015815.25476,92
1766015815.255765,96
1766015815.256768,94
1766015815.257778,92
1766015815.25877,93
1766015815.259768,91
1766015815.260798,90
1766015815.261802,92
1766015815.262774,95
1766015815.2638662,100
1766015815.2647822,99
1766015815.2658749,104
1766015815.266857,100
1766015815.267873,103
1766015815.268904,108
1766015815.269888,106
1766015815.270899,105
1766015815.271894,105
1766015815.272882,103
1766015815.2738822,103
1766015815.274914,102
1766015815.275799,98
1766015815.276901,101
1766015815.277899,101
1766015815.2787871,99
1766015815.2798111,99
1766015815.280896,100
1766015815.281823,95
1766015815.282816,94
1766015815.283799,97
1766015815.284835,95
1766015815.2858272,95
1766015815.286818,94
1766015815.287817,93
1766015815.288811,92
1766015815.289809,94
1766015815.290804,92
1766015815.291809,91
1766015815.292841,89
1766015815.293818,89
1766015815.294825,88
1766015815.295834,91
1766015815.296834,86
1766015815.297844,89
1766015815.298849,86
1766015815.299853,84
1766015815.300861,84
1766015815.301863,85
1766015815.302849,84
1766015815.30385,84
1766015815.3048692,83
1766015815.305872,83
1766015815.3068779,82
1766015815.307874,79
1766015815.308873,84
1766015815.309851,79
1766015815.31087,80
1766015815.311863,80
1766015815.312866,78
1766015815.313884,78
1766015815.3148952,79
1766015815.315925,79
1766015815.316957,81
1766015815.317895,78
1766015815.3188832,78
1766015815.319944,83
1766015815.320944,82
1766015815.3219352,86
1766015815.322932,81
1766015815.323928,81
1766015815.324972,80
1766015815.3259368,79
1766015815.326914,80
1766015815.327924,82
1766015815.328938,80
1766015815.329928,83
1766015815.33094,86
1766015815.331939,88
1766015815.332941,86
1766015815.333938,88
1766015815.334934,89
