timestamp,emg_value
1766015842.887566,97
1766015842.887587,93
1766015842.887604,95
1766015842.887619,95
1766015842.887635,92
1766015842.887651,94
1766015842.887666,93
1766015842.887681,90
1766015842.8876958,87
1766015842.887712,90
1766015842.887727,90
1766015842.887742,92
1766015842.8877592,90
1766015842.887776,90
1766015842.8878038,91
1766015842.8878222,89
1766015842.88784,85
1766015842.887857,89
1766015842.887872,87
1766015842.887887,90
1766015842.887902,85
1766015842.887917,87
1766015842.887933,82
1766015842.887948,86
1766015842.887962,85
1766015842.887978,80
1766015842.887996,82
1766015842.888011,80
1766015842.888026,81
1766015842.888041,83
1766015842.888056,80
1766015842.8880708,81
1766015842.888097,78
1766015842.8881128,82
1766015842.888128,80
1766015842.888143,80
1766015842.8881578,87
1766015842.888173,98
1766015842.888192,107
1766015842.888211,113
1766015842.8882291,111
1766015842.8882492,114
1766015842.888268,114
1766015842.888287,121
1766015842.888306,121
1766015842.888324,122
1766015842.888343,123
1766015842.888361,123
1766015842.8883789,125
1766015842.8883982,124
1766015842.888416,122
1766015842.888434,122
1766015842.888452,121
1766015842.888472,121
1766015842.888491,119
1766015842.888509,115
1766015842.8885272,117
1766015842.888545,115
1766015842.8885639,114
1766015842.888588,112
1766015842.888607,112
1766015842.8886259,112
1766015842.888644,109
1766015842.888662,108
1766015842.888681,109
1766015842.8887029,105
1766015842.888722,105
1766015842.88874,106
1766015842.8887591,105
1766015842.888777,104
1766015842.888797,105
1766015842.888819,105
1766015842.8888378,103
1766015842.888855,103
1766015842.888871,100
1766015842.888887,100
1766015842.888903,102
1766015842.888919,98
1766015842.8889349,102
1766015842.888951,100
1766015842.888963,98
1766015842.8889759,99
1766015842.88899,98
1766015842.889002,98
1766015842.889015,98
1766015842.889028,93
1766015842.8890429,97
1766015842.889063,101
1766015842.889079,106
1766015842.8890948,109
1766015842.889111,111
1766015842.8891258,111
1766015842.889142,109
1766015842.8891578,111
1766015842.889174,112
1766015842.88919,110
1766015842.889206,109
1766015842.889222,109
1766015842.889238,109
1766015842.8892539,111
1766015842.88927,108
1766015842.889287,109
1766015842.889303,109
1766015842.889319,114
1766015842.889334,113
1766015842.88935,116
1766015842.889366,115
1766015842.889382,115
1766015842.889398,118
1766015842.889419,119
1766015842.8894348,117
1766015842.889451,117
1766015842.889468,118
1766015842.889488,117
1766015842.889504,116
1766015842.8895202,115
1766015842.889536,114
1766015842.8895512,112
1766015842.889567,113
1766015842.889583,110
1766015842.889599,111
1766015842.889615,110
1766015842.889631,105
1766015842.889647,108
1766015842.889663,108
1766015842.8896792,110
1766015842.889695,109
1766015842.8897111,107
1766015842.889726,106
1766015842.8897438,109
1766015842.88976,110
1766015842.889775,108
1766015842.889791,109
1766015842.889812,111
1766015842.8898299,112
1766015842.889848,110
1766015842.889864,109
1766015842.8898802,106
1766015842.8898969,105
1766015842.889916,107
1766015842.889932,108
1766015842.889948,107
1766015842.889964,110
1766015842.8899798,106
1766015842.889995,106
1766015842.8900108,109
1766015842.890027,103
1766015842.8900428,103
1766015842.890059,102
1766015842.890075,104
1766015842.890091,105
1766015842.890107,105
1766015842.890122,105
1766015842.8901389,105
1766015842.890154,105
1766015842.89017,104
1766015842.890186,101
1766015842.890202,101
1766015842.890215,99
1766015842.890228,98
1766015842.890241,97
1766015842.890254,94
1766015842.890267,98
1766015842.89028,95
1766015842.890293,91
1766015842.890306,91
1766015842.8903208,91
1766015842.890337,92
1766015842.89035,91
1766015842.890362,88
1766015842.890375,89
1766015842.890388,88
1766015842.8904011,90
1766015842.890414,95
1766015842.8904269,95
1766015842.890443,100
1766015842.890458,103
1766015842.890474,101
1766015842.890487,99
1766015842.8905,99
1766015842.890516,100
1766015842.890528,99
1766015842.8905442,102
1766015842.89056,103
1766015842.890576,102
1766015842.890591,103
1766015842.890607,106
1766015842.890623,101
1766015842.890639,107
1766015842.890655,104
1766015842.89067,104
1766015842.890686,105
1766015842.890702,101
1766015842.890718,101
1766015842.8907351,103
1766015842.890752,99
1766015842.89077,101
1766015842.890786,102
1766015842.890799,97
1766015842.8908129,95
1766015842.890826,97
1766015842.890839,98
1766015842.8908522,99
1766015842.8908648,96
1766015842.890877,93
1766015842.89089,96
1766015842.890903,95
1766015842.890916,94
1766015842.890929,96
1766015842.8909419,96
1766015842.890955,95
1766015842.8909671,93
1766015842.89098,91
1766015842.8909929,93
1766015842.891006,92
1766015842.891019,90
1766015842.891032,88
1766015842.8910441,87
1766015842.891057,85
1766015842.89107,86
1766015842.891083,84
1766015842.891096,89
1766015842.8911092,86
1766015842.8911219,85
1766015842.891135,83
1766015842.891148,84
1766015842.8911622,83
1766015842.891179,82
1766015842.891192,81
1766015842.891205,82
1766015842.891218,81
1766015842.891231,81
1766015842.891244,80
1766015842.891257,76
1766015842.89127,76
1766015842.891283,77
1766015842.891296,78
1766015842.891309,77
1766015842.8913221,75
1766015842.891335,74
1766015842.891348,74
1766015842.89136,77
1766015842.8913732,76
1766015842.891386,75
1766015842.891399,72
1766015842.891412,73
1766015842.8914251,72
1766015842.891438,72
1766015842.891451,73
1766015842.8914628,70
1766015842.891476,74
1766015842.891489,72
1766015842.8915021,70
1766015842.8915148,71
1766015842.891528,69
1766015842.891541,71
1766015842.891554,70
1766015842.891567,70
1766015842.891579,71
1766015842.891596,69
1766015842.8916109,74
1766015842.891623,78
1766015842.891636,81
1766015842.891649,84
1766015842.8916621,90
1766015842.891675,91
1766015842.8916879,95
1766015842.891701,94
1766015842.891714,93
1766015842.8917272,91
1766015842.8917398,98
1766015842.891753,99
1766015842.8917692,100
1766015842.891785,105
1766015842.891801,104
1766015842.891823,108
1766015842.891841,106
1766015842.8918579,104
1766015842.891874,106
1766015842.8918898,103
1766015842.891906,105
1766015842.891922,106
1766015842.891938,104
1766015842.891954,104
1766015842.8919702,105
1766015842.891985,103
1766015842.892001,101
1766015842.892019,103
1766015842.892034,98
1766015842.892048,98
1766015842.892061,97
1766015842.8920739,99
1766015842.892087,98
1766015842.8921,96
1766015842.892113,97
1766015842.8921258,96
1766015842.892139,96
1766015842.892151,96
1766015842.892164,98
1766015842.8921769,99
1766015842.892193,100
1766015842.892208,102
1766015842.892224,101
1766015842.8922398,102
1766015842.892256,103
1766015842.8922691,97
1766015842.892282,99
1766015842.892298,102
1766015842.892313,104
1766015842.8923268,99
1766015842.892343,101
1766015842.892359,101
1766015842.892372,98
1766015842.892388,100
1766015842.8924,96
1766015842.892413,99
1766015842.892427,96
1766015842.892441,97
1766015842.892457,97
1766015842.8924701,94
1766015842.892483,91
1766015842.8924959,90
1766015842.892509,91
1766015842.892522,89
1766015842.8925362,88
1766015842.892548,89
1766015842.892561,90
1766015842.8925738,86
1766015842.892587,88
1766015842.892599,86
1766015842.892612,89
1766015842.8926249,85
1766015842.892638,87
1766015842.892651,84
1766015842.892664,84
1766015842.892677,81
1766015842.89269,84
1766015842.8927019,81
1766015842.892716,83
1766015842.892729,80
1766015842.892745,81
1766015842.892759,81
1766015842.8927722,83
1766015842.8927848,83
1766015842.892802,82
1766015842.8928158,81
1766015842.892832,80
1766015842.892846,79
1766015842.892858,76
1766015842.892871,78
1766015842.892887,78
1766015842.892902,78
1766015842.892915,75
1766015842.892928,73
1766015842.892941,74
1766015842.892954,74
1766015842.892968,77
1766015842.892981,75
1766015842.892993,73
1766015842.893006,73
1766015842.893019,76
1766015842.8930318,72
1766015842.893045,74
1766015842.893058,75
1766015842.8930712,72
1766015842.8930838,73
1766015842.893096,71
1766015842.893109,72
1766015842.893122,73
1766015842.893135,75
1766015842.893147,74
1766015842.893161,73
1766015842.893173,77
1766015842.893186,83
1766015842.8931992,86
1766015842.893211,85
1766015842.893224,89
1766015842.8932369,88
1766015842.89325,93
1766015842.893263,96
1766015842.8932748,96
1766015842.893288,95
1766015842.893302,96
1766015842.893318,96
1766015842.893332,95
1766015842.893345,98
1766015842.893357,98
1766015842.8933702,98
1766015842.893383,93
1766015842.893396,97
1766015842.893408,95
1766015842.8934221,95
1766015842.893434,94
1766015842.893447,92
1766015842.89346,91
1766015842.893474,88
1766015842.893486,91
1766015842.893499,92
1766015842.893512,90
1766015842.893525,88
1766015842.893537,90
1766015842.8935502,90
1766015842.8935628,89
1766015842.893576,89
1766015842.893589,86
1766015842.8936021,87
1766015842.893615,85
1766015842.893628,85
1766015842.89364,85
1766015842.893653,83
1766015842.893666,85
1766015842.8936791,83
1766015842.893692,82
1766015842.893704,83
1766015842.893717,81
1766015842.893733,82
1766015842.893748,84
1766015842.893761,83
1766015842.893774,83
1766015842.893787,83
1766015842.893805,83
1766015842.8938189,82
1766015842.8938339,81
1766015842.8938482,80
1766015842.89386,81
1766015842.893873,78
1766015842.8938859,77
1766015842.893899,76
1766015842.893912,74
1766015842.8939252,73
1766015842.8939369,77
1766015842.89395,74
1766015842.893963,72
1766015842.893976,73
1766015842.893989,70
1766015842.894002,71
1766015842.894015,74
1766015842.894028,72
1766015842.89404,72
1766015842.8940532,71
1766015842.8940659,73
1766015842.894081,74
1766015842.8940952,69
1766015842.8941078,73
1766015842.894121,70
1766015842.894134,74
1766015842.8941472,72
1766015842.894162,72
1766015842.8941782,69
1766015842.894191,68
1766015842.894204,68
1766015842.894217,67
1766015842.8942301,68
1766015842.894243,69
1766015842.8942568,73
1766015842.894271,72
1766015842.894284,70
1766015842.894298,75
1766015842.894311,72
1766015842.894325,74
1766015842.894339,72
1766015842.894352,72
1766015842.8943648,72
1766015842.894378,76
1766015842.894391,76
1766015842.8944051,77
1766015842.894418,77
1766015842.8944309,78
1766015842.894444,78
1766015842.894458,77
1766015842.89447,74
1766015842.8944829,74
1766015842.894496,75
1766015842.894509,75
1766015842.8945222,75
1766015842.8945348,74
1766015842.894548,75
1766015842.894561,77
1766015842.894573,80
1766015842.894586,82
1766015842.894604,86
1766015842.894617,85
1766015842.89463,87
1766015842.894644,87
1766015842.8946571,87
1766015842.894672,90
1766015842.8946838,90
1766015842.894697,90
1766015842.89471,89
1766015842.8947232,89
1766015842.8947358,88
1766015842.894749,91
1766015842.894762,91
1766015842.8947752,91
1766015842.894788,90
1766015842.8948,90
1766015842.8948128,90
1766015842.894826,88
1766015842.894839,89
1766015842.8948522,89
1766015842.8948648,88
1766015842.894878,86
1766015842.894891,89
1766015842.8949041,88
1766015842.894917,97
1766015842.894929,95
1766015842.894943,99
1766015842.8949592,101
1766015842.8949718,99
1766015842.894985,99
1766015842.894997,98
1766015842.895013,102
1766015842.8950331,101
1766015842.895046,99
1766015842.895062,104
1766015842.895078,104
1766015842.895094,100
1766015842.89511,100
1766015842.895126,100
1766015842.895139,99
1766015842.895152,98
1766015842.895166,98
1766015842.895179,95
1766015842.8951921,97
1766015842.895205,96
1766015842.895218,96
1766015842.89523,96
1766015842.895243,93
1766015842.895256,95
1766015842.8952692,92
1766015842.895282,94
1766015842.895295,92
1766015842.895308,91
1766015842.8953211,90
1766015842.895334,91
1766015842.8953469,90
1766015842.89536,93
1766015842.895373,86
1766015842.8953862,87
1766015842.8953989,90
1766015842.895412,89
1766015842.895425,87
1766015842.8954382,86
1766015842.895453,87
1766015842.895468,85
1766015842.895482,83
1766015842.895495,86
1766015842.895508,85
1766015842.895521,84
1766015842.895534,82
1766015842.895547,81
1766015842.89556,82
1766015842.895573,85
1766015842.895586,83
1766015842.8955991,85
1766015842.895612,83
1766015842.8956249,84
1766015842.895638,88
1766015842.895652,87
1766015842.895665,84
1766015842.895678,83
1766015842.89569,87
1766015842.895703,86
1766015842.8957162,84
1766015842.8957288,85
1766015842.895742,85
1766015842.895755,85
1766015842.8957682,85
1766015842.895781,87
1766015842.895793,84
1766015842.8958058,83
1766015842.895819,82
1766015842.895832,85
1766015842.8958452,84
1766015842.8958578,85
1766015842.895871,84
1766015842.8958871,85
1766015842.8959,82
1766015842.895913,83
1766015842.895926,82
1766015842.895939,82
1766015842.895952,80
1766015842.8959649,80
1766015842.895978,78
1766015842.8959901,82
1766015842.896003,80
1766015842.896016,78
1766015842.896029,82
1766015842.8960419,83
1766015842.896054,82
1766015842.8960671,84
1766015842.8960798,84
1766015842.896093,79
1766015842.896106,81
1766015842.896119,83
1766015842.896132,86
1766015842.8961449,83
1766015842.896158,82
1766015842.896171,80
1766015842.896184,80
1766015842.8961961,82
1766015842.896209,81
1766015842.8962219,81
1766015842.896235,81
1766015842.896248,82
1766015842.8962612,81
1766015842.8962739,84
1766015842.896287,82
1766015842.8962991,81
1766015842.8963158,84
1766015842.896329,81
1766015842.896342,83
1766015842.8963552,81
1766015842.896368,85
1766015842.896381,83
1766015842.896394,83
1766015842.896406,84
1766015842.896419,84
1766015842.8964322,84
1766015842.896445,80
1766015842.896458,83
1766015842.896471,80
1766015842.8964841,84
1766015842.896497,81
1766015842.89651,79
1766015842.896522,80
1766015842.8965352,79
1766015842.896548,77
1766015842.896561,75
1766015842.896574,77
1766015842.896588,74
1766015842.8966022,77
1766015842.8966138,73
1766015842.896627,74
1766015842.89664,77
1766015842.896653,76
1766015842.896666,73
1766015842.896679,74
1766015842.896692,74
1766015842.896703,76
1766015842.896714,71
1766015842.896727,72
1766015842.8967412,74
1766015842.896752,74
1766015842.8967628,70
1766015842.8967738,71
1766015842.896786,70
1766015842.896797,66
1766015842.896808,71
1766015842.8968189,67
1766015842.896832,69
1766015842.8968441,67
1766015842.896855,65
1766015842.896867,67
1766015842.896878,68
1766015842.896889,67
1766015842.8969002,67
1766015842.8969119,69
1766015842.8969228,72
1766015842.8969338,72
1766015842.896945,70
1766015842.896957,72
1766015842.896968,73
1766015842.89698,71
1766015842.896991,72
1766015842.897002,72
1766015842.897013,72
1766015842.897025,72
1766015842.897036,67
1766015842.897047,70
1766015842.897058,72
1766015842.8970702,68
1766015842.8970811,68
1766015842.897095,69
1766015842.89711,69
1766015842.897123,67
1766015842.897134,66
1766015842.897145,64
1766015842.897156,65
1766015842.8971672,63
1766015842.8971782,63
1766015842.8971899,63
1766015842.8972008,65
1766015842.8972118,61
1766015842.897223,62
1766015842.897234,65
1766015842.897245,61
1766015842.8972569,63
1766015842.897268,62
1766015842.897279,61
1766015842.89729,61
1766015842.897301,64
1766015842.897312,61
1766015842.897323,61
1766015842.897334,60
1766015842.897345,59
1766015842.897357,61
1766015842.897368,62
1766015842.897385,62
1766015842.897398,61
1766015842.897409,63
1766015842.89742,58
1766015842.8974311,61
1766015842.897442,60
1766015842.897454,59
1766015842.897465,58
1766015842.8974779,60
1766015842.897493,59
1766015842.897505,56
1766015842.897516,57
1766015842.897527,57
1766015842.897538,58
1766015842.8975492,58
1766015842.8975601,56
1766015842.897571,56
1766015842.897583,59
1766015842.8975942,58
1766015842.897606,62
1766015842.8976178,57
1766015842.897629,60
1766015842.89764,57
1766015842.897652,60
1766015842.8976629,59
1766015842.897674,57
1766015842.897685,55
1766015842.897696,57
1766015842.897707,54
1766015842.897718,55
1766015842.897729,54
1766015842.8977401,61
1766015842.897751,56
1766015842.897763,56
1766015842.897774,56
1766015842.8977852,55
1766015842.8977962,55
1766015842.8978071,54
1766015842.897818,53
1766015842.897831,53
1766015842.897843,54
1766015842.897859,52
1766015842.89787,55
1766015842.897881,53
1766015842.897892,54
1766015842.8979042,50
1766015842.897915,51
1766015842.8979259,51
1766015842.8979368,50
1766015842.8979478,51
1766015842.897959,50
1766015842.89797,50
1766015842.897981,52
1766015842.8979928,51
1766015842.898004,52
1766015842.898015,50
1766015842.898026,53
1766015842.898037,53
1766015842.898048,54
1766015842.898059,53
1766015842.89807,53
1766015842.898081,53
1766015842.898092,52
1766015842.8981051,54
1766015842.898116,53
1766015842.898127,52
1766015842.898138,53
1766015842.89815,54
1766015842.898161,53
1766015842.898172,54
1766015842.8981829,53
1766015842.898195,51
1766015842.898206,53
1766015842.898218,50
1766015842.898232,52
1766015842.898245,50
1766015842.8982558,50
1766015842.8982668,52
1766015842.898278,50
1766015842.898289,50
1766015842.8983,51
1766015842.898311,52
1766015842.8983219,51
1766015842.898334,52
1766015842.898345,51
1766015842.898356,51
1766015842.898367,49
1766015842.898379,50
1766015842.89839,52
1766015842.898401,51
1766015842.898412,51
1766015842.898423,49
1766015842.898435,50
1766015842.898446,51
1766015842.898457,49
1766015842.898468,52
1766015842.898479,48
1766015842.8984902,51
1766015842.8985012,50
1766015842.8985128,48
1766015842.8985238,51
1766015842.898535,49
1766015842.898546,48
1766015842.898559,50
1766015842.898571,48
1766015842.898582,50
1766015842.898596,49
1766015842.898607,51
1766015842.8986182,48
1766015842.8986292,50
1766015842.8986409,52
1766015842.8986518,47
1766015842.8986628,49
1766015842.898674,48
1766015842.898686,48
1766015842.898697,46
1766015842.8987079,49
1766015842.89872,49
1766015842.898731,50
1766015842.898742,47
1766015842.898753,50
1766015842.898765,48
1766015842.898776,48
1766015842.898787,46
1766015842.898798,47
1766015842.8988092,47
1766015842.898821,47
1766015842.898834,49
1766015842.898845,47
1766015842.898856,46
1766015842.898867,50
1766015842.898879,47
1766015842.89889,47
1766015842.898901,47
1766015842.898912,49
1766015842.898924,49
1766015842.898935,49
1766015842.898946,47
1766015842.8989592,48
1766015842.898973,49
1766015842.898985,48
1766015842.898997,45
1766015842.899008,46
1766015842.89902,48
1766015842.899031,47
1766015842.8990421,46
1766015842.899053,44
1766015842.899065,45
1766015842.899076,49
1766015842.8990872,47
1766015842.8990982,45
1766015842.8991098,47
1766015842.8991208,50
1766015842.899132,46
1766015842.899143,48
1766015842.899155,49
1766015842.8991659,49
1766015842.899177,48
1766015842.899188,47
1766015842.899199,44
1766015842.89921,49
1766015842.899222,46
1766015842.899233,46
1766015842.899245,46
1766015842.899256,46
1766015842.899267,47
1766015842.8992782,46
1766015842.89929,46
1766015842.899301,47
1766015842.899312,46
1766015842.899323,46
1766015842.899337,47
1766015842.899349,47
1766015842.89936,46
1766015842.899371,47
1766015842.899383,48
1766015842.899394,45
1766015842.899405,41
1766015842.8994172,45
1766015842.8994281,45
1766015842.899439,46
1766015842.89945,45
1766015842.899461,47
1766015842.899473,45
1766015842.899484,44
1766015842.899495,45
1766015842.8995059,48
1766015842.899518,48
1766015842.899529,44
1766015842.89954,48
1766015842.899551,44
1766015842.899562,47
1766015842.899573,49
1766015842.899585,47
1766015842.899596,46
1766015842.899607,45
1766015842.8996181,48
1766015842.899629,45
1766015842.89964,46
1766015842.899652,47
1766015842.8996632,46
1766015842.8996742,44
1766015842.8996851,45
1766015842.899696,45
1766015842.899711,48
1766015842.899724,43
1766015842.899735,47
1766015842.899746,45
1766015842.8997571,45
1766015842.89977,45
1766015842.899782,45
1766015842.899793,44
1766015842.8998039,49
1766015842.8998148,47
1766015842.8998258,49
1766015842.899837,47
1766015842.899848,47
1766015842.89986,45
1766015842.8998709,46
1766015842.899882,46
1766015842.899893,47
1766015842.899904,46
1766015842.899915,44
1766015842.8999271,46
1766015842.899938,45
1766015842.899949,46
1766015842.89996,45
1766015842.8999722,48
1766015842.8999832,47
1766015842.8999949,43
1766015842.9000058,44
1766015842.9000168,44
1766015842.900028,47
1766015842.900039,46
1766015842.90005,46
1766015842.9000618,45
1766015842.9000762,45
1766015842.900089,45
1766015842.9001,46
1766015842.9001112,46
1766015842.9001222,44
1766015842.9001338,48
1766015842.9001448,46
1766015842.900157,45
1766015842.90017,43
1766015842.900181,45
1766015842.900192,45
1766015842.900204,44
1766015842.9002151,45
1766015842.900226,42
1766015842.900237,46
1766015842.900248,44
1766015842.9002602,46
1766015842.9002712,46
1766015842.9002821,45
1766015842.900293,44
1766015842.9003048,45
1766015842.900316,47
1766015842.900327,43
1766015842.900339,45
1766015842.9003499,44
1766015842.900361,45
1766015842.900372,46
1766015842.900383,44
1766015842.900394,46
1766015842.900405,41
1766015842.900417,45
1766015842.900428,47
1766015842.900439,48
1766015842.9004538,46
1766015842.900467,45
1766015842.90048,43
1766015842.9004931,44
1766015842.900505,46
1766015842.900516,45
1766015842.900529,44
1766015842.9005399,43
1766015842.900552,41
1766015842.900563,43
1766015842.900574,43
1766015842.900585,42
1766015842.900596,46
1766015842.9006069,43
1766015842.900619,42
1766015842.90063,42
1766015842.90064,44
1766015842.90065,46
1766015842.90066,45
1766015842.90067,46
1766015842.9006798,42
1766015842.9006898,46
1766015842.9006999,41
1766015842.9007099,41
1766015842.9007201,43
1766015842.9007301,42
1766015842.9007401,42
1766015842.9007502,44
1766015842.9007602,44
1766015842.90077,44
1766015842.90078,44
1766015842.90079,43
1766015842.900801,43
1766015842.9008121,43
1766015842.900822,43
1766015842.900832,45
1766015842.900842,42
1766015842.900853,41
1766015842.900863,41
1766015842.900873,41
1766015842.900883,40
1766015842.900896,43
1766015842.900906,41
1766015842.9009159,41
1766015842.9009259,39
1766015842.900936,41
1766015842.900946,44
1766015842.900956,41
1766015842.900966,41
1766015842.9009762,43
1766015842.9009862,44
1766015842.9009962,39
1766015842.901006,41
1766015842.901016,43
1766015842.901026,39
1766015842.901036,41
1766015842.901046,40
1766015842.901056,38
1766015842.901066,39
1766015842.901076,39
1766015842.9010859,38
1766015842.9010959,41
1766015842.9011059,39
1766015842.901116,41
1766015842.901126,40
1766015842.9011378,40
1766015842.9011478,39
1766015842.9011579,41
1766015842.901168,39
1766015842.9011781,40
1766015842.9011881,38
1766015842.9011981,39
1766015842.901207,38
1766015842.901218,40
1766015842.901227,42
1766015842.901237,39
1766015842.901247,39
1766015842.901257,41
1766015842.901267,42
1766015842.9012768,42
1766015842.9012868,39
1766015842.9012961,44
1766015842.9013062,40
1766015842.9013162,39
1766015842.9013262,42
1766015842.901336,44
1766015842.901346,38
1766015842.901355,43
1766015842.901365,42
1766015842.901375,39
1766015842.901385,41
1766015842.9013948,40
1766015842.9014049,41
1766015842.9014149,40
1766015842.901425,41
1766015842.901435,41
1766015842.9014452,40
1766015842.9014552,41
1766015842.9014678,39
1766015842.90148,39
1766015842.90149,42
1766015842.9014988,42
1766015842.901509,42
1766015842.901519,41
1766015842.901529,40
1766015842.901539,38
1766015842.901549,39
1766015842.901559,37
1766015842.9015691,37
1766015842.901579,38
1766015842.901588,39
1766015842.901598,35
1766015842.901608,36
1766015842.901618,40
1766015842.901628,38
1766015842.9016378,43
1766015842.9016478,38
1766015842.901658,37
1766015842.901668,40
1766015842.9016771,40
1766015842.9016871,37
1766015842.901697,41
1766015842.901707,40
1766015842.901717,40
1766015842.901727,41
1766015842.901736,41
1766015842.901746,44
1766015842.9017558,43
1766015842.9017658,41
1766015842.9017758,43
1766015842.9017868,42
1766015842.9018,39
1766015842.901811,39
1766015842.901821,37
1766015842.9018319,40
1766015842.9018419,40
1766015842.901854,38
1766015842.901864,41
1766015842.9018738,43
1766015842.9018838,41
1766015842.9018939,43
1766015842.9019039,43
1766015842.9019141,43
1766015842.9019241,44
1766015842.9019341,41
1766015842.9019442,41
1766015842.901954,44
1766015842.901964,45
1766015842.901974,45
1766015842.901984,45
1766015842.901994,46
1766015842.902004,45
1766015842.902014,44
1766015842.902024,48
1766015842.9020338,44
1766015842.9020438,43
1766015842.9020538,45
1766015842.902064,43
1766015842.902074,44
1766015842.9020832,45
1766015842.9020932,43
1766015842.902103,43
1766015842.902113,43
1766015842.902126,43
1766015842.902138,44
1766015842.902148,42
1766015842.902158,39
1766015842.902168,38
1766015842.902178,44
1766015842.902188,43
1766015842.902198,42
1766015842.902208,39
1766015842.902217,39
1766015842.902227,42
1766015842.902237,43
1766015842.902247,40
1766015842.902257,42
1766015842.902267,40
1766015842.9022772,43
1766015842.902287,42
1766015842.902297,44
1766015842.902307,40
1766015842.902317,41
1766015842.902327,40
1766015842.902337,44
1766015842.902347,45
1766015842.902357,45
1766015842.9023669,43
1766015842.902377,44
1766015842.902386,43
1766015842.902396,50
1766015842.902406,49
1766015842.902416,46
1766015842.902426,46
1766015842.902436,46
1766015842.902446,46
1766015842.9024582,45
1766015842.9024699,45
1766015842.90248,48
1766015842.9024901,48
1766015842.9025002,44
1766015842.902512,46
1766015842.902522,45
1766015842.902532,46
1766015842.9025412,46
1766015842.902551,46
1766015842.902625,44
1766015842.902681,48
1766015842.902695,44
1766015842.902708,45
1766015842.902721,46
1766015842.902734,46
1766015842.9027462,48
1766015842.9027588,49
1766015842.902771,47
1766015842.902784,52
1766015842.902797,52
1766015842.9028091,54
1766015842.9028218,57
1766015842.902835,58
1766015842.902848,59
1766015842.90286,62
1766015842.902873,62
1766015842.902886,63
1766015842.9028978,64
1766015842.902911,65
1766015842.902923,59
1766015842.902936,62
1766015842.902953,62
1766015842.902967,66
1766015842.90298,68
1766015842.9029918,70
1766015842.903005,74
1766015842.903018,75
1766015842.903031,80
1766015842.903043,80
1766015842.903056,78
1766015842.9030678,79
1766015842.903081,79
1766015842.903094,75
1766015842.903106,78
1766015842.903119,78
1766015842.9031308,77
1766015842.903144,78
1766015842.903157,78
1766015842.903169,76
1766015842.903182,78
1766015842.903195,81
1766015842.903208,80
1766015842.90322,81
1766015842.903233,82
1766015842.9032462,81
1766015842.903258,78
1766015842.903271,81
1766015842.903284,78
1766015842.903296,80
1766015842.903309,79
1766015842.9033222,75
1766015842.9033349,77
1766015842.903347,80
1766015842.90336,81
1766015842.903378,85
1766015842.9033952,82
1766015842.903408,83
1766015842.903421,87
1766015842.9034328,84
1766015842.903446,83
1766015842.903458,83
1766015842.903471,83
1766015842.9034839,79
1766015842.903496,81
1766015842.903509,82
1766015842.903522,77
1766015842.9035351,81
1766015842.9035468,77
1766015842.90356,82
1766015842.903573,85
1766015842.9035861,85
1766015842.903602,86
1766015842.903615,85
1766015842.903628,88
1766015842.90364,86
1766015842.9036531,86
1766015842.903666,84
1766015842.903679,84
1766015842.903691,81
1766015842.9037042,86
1766015842.903716,82
1766015842.903729,80
1766015842.9037418,82
1766015842.903754,82
1766015842.903767,85
1766015842.903779,87
1766015842.9037921,88
1766015842.903808,92
1766015842.9038231,93
1766015842.903836,96
1766015842.903849,93
1766015842.903861,93
1766015842.9038742,94
1766015842.903887,91
1766015842.9039,91
1766015842.903913,88
1766015842.903925,91
1766015842.903938,88
1766015842.9039512,90
1766015842.9039629,91
1766015842.903976,91
1766015842.903989,91
1766015842.904001,92
1766015842.904014,94
1766015842.904026,95
1766015842.904039,92
1766015842.904052,91
1766015842.9040651,91
1766015842.904077,92
1766015842.9040902,92
1766015842.9041028,90
1766015842.904115,91
1766015842.904128,89
1766015842.904141,90
1766015842.904154,87
1766015842.904166,87
1766015842.9041789,88
1766015842.904192,87
1766015842.9042041,87
1766015842.904217,87
1766015842.904234,87
1766015842.904248,86
1766015842.904261,88
1766015842.9042728,91
1766015842.904286,89
1766015842.904299,89
1766015842.904311,89
1766015842.904324,90
1766015842.904337,89
1766015842.9043489,88
1766015842.904362,91
1766015842.904375,86
1766015842.9043882,89
1766015842.9043999,88
1766015842.904413,86
1766015842.904426,83
1766015842.904438,85
1766015842.9044511,88
1766015842.9044638,86
1766015842.904476,88
1766015842.904489,87
1766015842.904502,88
1766015842.904515,85
1766015842.9045272,84
1766015842.904541,84
1766015842.904554,86
1766015842.904566,87
1766015842.9045792,88
1766015842.9045918,84
1766015842.904605,86
1766015842.904617,87
1766015842.90463,87
1766015842.904643,85
1766015842.904659,85
1766015842.904674,84
1766015842.904809,81
1766015842.904822,84
1766015842.904833,86
1766015842.904845,85
1766015842.9048572,87
1766015842.9048681,88
1766015842.9049249,89
1766015842.904942,88
1766015842.9049559,89
1766015842.904968,93
1766015842.904982,89
1766015842.904995,88
1766015842.905084,87
1766015842.905098,87
1766015842.905109,92
1766015842.905119,89
1766015842.90513,87
1766015842.905212,88
1766015842.9052281,88
1766015842.905238,90
1766015842.905248,86
1766015842.905259,90
1766015842.90527,87
1766015842.905281,88
1766015842.905293,87
1766015842.905303,84
1766015842.905314,85
1766015842.905324,83
1766015842.905334,85
1766015842.905344,84
1766015842.905356,86
1766015842.90537,82
1766015842.9053812,83
1766015842.9053922,84
1766015842.905403,81
1766015842.9054132,85
1766015842.9054232,87
1766015842.9054332,84
1766015842.905443,86
1766015842.9054542,90
1766015842.9054651,88
1766015842.905539,88
1766015842.9055512,85
1766015842.9055622,87
1766015842.9055722,90
1766015842.9055831,85
1766015842.905594,87
1766015842.905605,87
1766015842.9056158,84
1766015842.9056268,88
1766015842.905639,88
1766015842.90565,85
1766015842.9056609,86
1766015842.905671,86
1766015842.905683,83
1766015842.905715,82
1766015842.90573,84
1766015842.9057431,82
1766015842.905827,81
1766015842.90589,83
1766015842.905962,85
1766015842.905977,83
1766015842.90599,84
1766015842.906007,84
1766015842.906021,82
1766015842.906034,83
1766015842.9060469,86
1766015842.906059,86
1766015842.9060721,86
1766015842.906085,84
1766015842.906097,83
1766015842.90611,85
1766015842.906123,82
1766015842.906135,85
1766015842.906147,84
1766015842.90616,84
1766015842.906178,84
1766015842.906191,83
1766015842.9062028,83
1766015842.906216,83
1766015842.906229,84
1766015842.906241,84
1766015842.906254,85
1766015842.9062662,84
1766015842.906278,85
1766015842.906291,82
1766015842.906303,85
1766015842.906316,83
1766015842.906328,87
1766015842.906341,82
1766015842.906353,83
1766015842.9063659,87
1766015842.906378,82
1766015842.90639,85
1766015842.906403,84
1766015842.906415,85
1766015842.906431,81
1766015842.906445,81
1766015842.9064572,84
1766015842.906469,82
1766015842.906482,84
1766015842.906495,84
1766015842.906507,81
1766015842.9065201,83
1766015842.906532,84
1766015842.906545,83
1766015842.906555,82
1766015842.9065652,84
1766015842.906576,83
1766015842.9065862,83
1766015842.9065962,83
1766015842.9066072,83
1766015842.9066172,85
1766015842.9066272,83
1766015842.9066381,81
1766015842.9066482,81
1766015842.9066591,82
1766015842.9066691,80
1766015842.90668,82
1766015842.906691,83
1766015842.906701,83
1766015842.906712,83
1766015842.906722,83
1766015842.906732,81
1766015842.906743,86
1766015842.906753,83
1766015842.906764,83
1766015842.906774,82
1766015842.906785,81
1766015842.9067981,83
1766015842.906811,78
1766015842.906822,79
1766015842.906832,79
1766015842.906843,84
1766015842.9068532,81
1766015842.9068632,80
1766015842.9068742,81
1766015842.9068842,82
1766015842.9068952,80
1766015842.9069052,77
1766015842.9069161,77
1766015842.9069262,80
1766015842.9069371,81
1766015842.906948,79
1766015842.906958,78
1766015842.906968,78
1766015842.906979,77
1766015842.906989,79
1766015842.907,74
1766015842.90701,74
1766015842.907021,78
1766015842.907031,77
1766015842.907042,78
1766015842.907052,76
1766015842.907063,77
1766015842.907073,75
1766015842.907084,75
1766015842.907094,77
1766015842.907105,74
1766015842.907115,77
1766015842.907126,77
1766015842.907136,76
1766015842.90715,75
1766015842.9071639,74
1766015842.9071739,74
1766015842.9071848,75
1766015842.9071958,73
1766015842.9072058,74
1766015842.9072158,76
1766015842.9072268,73
1766015842.907237,75
1766015842.907248,72
1766015842.907258,76
1766015842.907269,71
1766015842.907279,70
1766015842.9072902,72
1766015842.9073,72
1766015842.9073112,72
1766015842.907321,71
1766015842.907331,73
1766015842.9073422,69
1766015842.907352,71
1766015842.9073632,75
1766015842.907373,72
1766015842.9073842,70
1766015842.907394,71
1766015842.907404,71
1766015842.9074152,72
1766015842.907425,71
1766015842.9074361,69
1766015842.907446,69
1766015842.907457,71
1766015842.9074671,70
1766015842.907478,69
1766015842.907538,70
1766015842.907552,70
1766015842.907566,68
1766015842.907577,64
1766015842.907588,65
1766015842.907647,69
1766015842.907677,67
1766015842.9077692,67
1766015842.9077811,69
1766015842.9077911,66
1766015842.907802,66
1766015842.907812,67
1766015842.9078422,67
1766015842.907854,65
1766015842.907865,67
1766015842.907876,66
1766015842.907886,66
1766015842.907897,69
1766015842.9079082,66
1766015842.9079192,63
1766015842.9079301,65
1766015842.907941,63
1766015842.907952,63
1766015842.907962,63
1766015842.907973,63
1766015842.9079838,62
1766015842.907994,64
1766015842.9080052,64
1766015842.9080162,62
1766015842.9080262,63
1766015842.9080372,61
1766015842.908048,62
1766015842.9080582,62
1766015842.9080691,59
1766015842.908083,64
1766015842.908095,59
1766015842.908106,60
1766015842.9081159,61
1766015842.908127,61
1766015842.908138,60
1766015842.908148,59
1766015842.908159,61
1766015842.90817,58
1766015842.90818,62
1766015842.908191,62
1766015842.908201,59
1766015842.908212,62
1766015842.908223,60
1766015842.908233,57
1766015842.908244,56
1766015842.908254,58
1766015842.9082649,60
1766015842.908276,53
1766015842.9082859,58
1766015842.908297,55
1766015842.908308,58
1766015842.908319,53
1766015842.908329,59
1766015842.90834,57
1766015842.90835,54
1766015842.908361,55
1766015842.908372,56
1766015842.908384,55
1766015842.908394,55
1766015842.908405,54
1766015842.908415,56
1766015842.908426,55
1766015842.908439,53
1766015842.9084501,53
1766015842.908461,54
1766015842.908471,53
1766015842.908482,55
1766015842.908493,53
1766015842.908503,51
1766015842.908514,49
1766015842.908524,52
1766015842.908535,51
1766015842.908546,51
1766015842.908556,53
1766015842.908567,53
1766015842.908577,51
1766015842.908588,50
1766015842.9085991,49
1766015842.908609,49
1766015842.90862,47
1766015842.908631,48
1766015842.908641,48
1766015842.908652,45
1766015842.908662,44
1766015842.908673,49
1766015842.908684,47
1766015842.908694,49
1766015842.908705,50
1766015842.908716,49
1766015842.908727,47
1766015842.908737,49
1766015842.9087481,44
1766015842.908758,46
1766015842.9087691,48
1766015842.90878,44
1766015842.9087942,47
1766015842.9088051,46
1766015842.9088151,46
1766015842.908826,42
1766015842.908837,45
1766015842.908847,46
1766015842.908858,43
1766015842.908869,44
1766015842.908879,44
1766015842.90889,42
1766015842.9089012,44
1766015842.908911,43
1766015842.9089222,44
1766015842.9089332,43
1766015842.9089432,41
1766015842.9089541,45
1766015842.908965,42
1766015842.9089751,41
1766015842.908986,42
1766015842.908997,41
1766015842.909007,37
1766015842.909018,40
1766015842.909029,44
1766015842.9090402,41
1766015842.9090502,40
1766015842.9090612,39
1766015842.9090712,42
1766015842.9090822,41
1766015842.9090931,39
1766015842.9091032,38
1766015842.9091141,37
1766015842.909125,40
1766015842.909138,39
1766015842.909151,41
1766015842.909162,37
1766015842.909173,37
1766015842.909183,40
1766015842.909194,36
1766015842.909204,39
1766015842.909215,39
1766015842.909225,38
1766015842.909236,39
1766015842.909247,36
1766015842.909257,38
1766015842.909268,37
1766015842.909278,37
1766015842.909289,36
1766015842.909299,38
1766015842.9093099,40
1766015842.909321,40
1766015842.9093308,36
1766015842.909342,36
1766015842.9093518,38
1766015842.909363,38
1766015842.909373,37
1766015842.909384,35
1766015842.909395,35
1766015842.909405,36
1766015842.909416,38
1766015842.909426,35
1766015842.909437,38
1766015842.909447,37
1766015842.909458,36
1766015842.909468,34
1766015842.909479,38
1766015842.9094899,36
1766015842.909504,34
1766015842.909516,35
1766015842.909527,35
1766015842.909537,34
1766015842.909548,37
1766015842.909558,35
1766015842.909569,32
1766015842.909579,32
1766015842.90959,34
1766015842.9096,35
1766015842.909611,35
1766015842.909622,34
1766015842.909632,37
1766015842.909643,33
1766015842.909653,36
1766015842.909664,34
1766015842.909674,35
1766015842.909685,32
1766015842.909695,36
1766015842.9097059,32
1766015842.909716,35
1766015842.9097269,33
1766015842.9097369,36
1766015842.909748,36
1766015842.9097579,37
1766015842.909769,35
1766015842.9097788,33
1766015842.9097888,34
1766015842.9098,35
1766015842.9098098,35
1766015842.909821,35
1766015842.9098308,33
1766015842.909842,34
1766015842.909856,31
1766015842.909868,29
1766015842.909878,35
1766015842.909889,31
1766015842.9099,35
1766015842.90991,32
1766015842.909921,35
1766015842.9099321,34
1766015842.909943,32
1766015842.909953,32
1766015842.909964,34
1766015842.909974,33
1766015842.9099898,33
1766015842.9100008,34
1766015842.910012,33
1766015842.910023,31
1766015842.910033,31
1766015842.910044,35
1766015842.910054,28
1766015842.910065,31
1766015842.910075,33
1766015842.910086,34
1766015842.910096,33
1766015842.910107,33
1766015842.9101171,29
1766015842.9101272,31
1766015842.9101381,30
1766015842.9101481,33
1766015842.910159,34
1766015842.91017,33
1766015842.91018,29
1766015842.910191,31
1766015842.910201,29
1766015842.910215,29
1766015842.910228,32
1766015842.910239,29
1766015842.91025,33
1766015842.91026,31
1766015842.910271,27
1766015842.910281,32
1766015842.910292,32
1766015842.910302,29
1766015842.910313,30
1766015842.9103239,28
1766015842.9103339,30
1766015842.910345,30
1766015842.9103549,27
1766015842.910366,28
1766015842.9103758,29
1766015842.910387,31
1766015842.9103968,25
1766015842.910408,29
1766015842.910418,29
1766015842.910429,27
1766015842.91044,27
1766015842.91045,26
1766015842.910461,27
1766015842.910472,29
1766015842.910482,31
1766015842.910492,28
1766015842.910501,30
1766015842.910511,25
1766015842.91052,28
1766015842.9105291,26
1766015842.910538,26
1766015842.910547,26
1766015842.910559,27
1766015842.91057,26
1766015842.91058,26
1766015842.910589,29
1766015842.9105978,30
1766015842.910607,27
1766015842.9106162,27
1766015842.910625,27
1766015842.910634,28
1766015842.9106429,25
1766015842.910652,29
1766015842.9106612,29
1766015842.91067,28
1766015842.910679,28
1766015842.910688,28
1766015842.910697,30
1766015842.9107058,28
1766015842.9107149,26
1766015842.9107242,24
1766015842.910733,27
1766015842.910742,30
1766015842.9107509,26
1766015842.91076,26
1766015842.910769,27
1766015842.910778,30
1766015842.910788,26
1766015842.910797,27
1766015842.910806,27
1766015842.910815,24
1766015842.910825,26
1766015842.9108338,26
1766015842.910843,29
1766015842.9108522,25
1766015842.910861,27
1766015842.9108732,30
1766015842.910885,24
1766015842.9108942,24
1766015842.910903,29
1766015842.910913,25
1766015842.910922,26
1766015842.9109309,27
1766015842.91094,24
1766015842.9109492,25
1766015842.910959,24
1766015842.910968,24
1766015842.9109771,24
1766015842.910986,24
1766015842.910995,25
1766015842.9110038,28
1766015842.9110131,28
1766015842.9110222,24
1766015842.911032,26
1766015842.911041,25
1766015842.91105,25
1766015842.911059,24
1766015842.911068,25
1766015842.911077,27
1766015842.911087,25
1766015842.911096,23
1766015842.911105,26
1766015842.911114,23
1766015842.911124,27
1766015842.9111328,22
1766015842.9111419,25
1766015842.9111512,25
1766015842.91116,23
1766015842.91117,25
1766015842.911183,23
1766015842.9111931,23
1766015842.9112031,25
1766015842.911212,25
1766015842.911221,24
1766015842.9112298,25
1766015842.911239,23
1766015842.911248,25
1766015842.911257,23
1766015842.911266,23
1766015842.911275,25
1766015842.911285,27
1766015842.911294,25
1766015842.9113028,25
1766015842.9113119,25
1766015842.9113212,24
1766015842.91133,25
1766015842.911339,22
1766015842.9113479,23
1766015842.911357,21
1766015842.911366,24
1766015842.911375,26
1766015842.911385,24
1766015842.9113941,22
1766015842.911403,23
1766015842.911412,21
1766015842.9114208,22
1766015842.91143,22
1766015842.9114392,22
1766015842.911448,23
1766015842.911457,21
1766015842.911466,25
1766015842.911475,21
1766015842.911484,23
1766015842.9114969,22
1766015842.911508,24
1766015842.911517,27
1766015842.911526,23
1766015842.911535,21
1766015842.911544,24
1766015842.911553,21
1766015842.911562,22
1766015842.911571,23
1766015842.9115798,25
1766015842.9115899,21
1766015842.9115992,26
1766015842.911608,24
1766015842.911617,24
1766015842.911626,21
1766015842.911635,20
1766015842.911644,22
1766015842.911653,19
1766015842.911663,23
1766015842.911672,20
1766015842.911681,22
1766015842.91169,23
1766015842.911699,26
1766015842.9117079,20
1766015842.9117172,25
1766015842.911726,23
1766015842.911735,21
1766015842.911744,21
1766015842.911753,23
1766015842.911762,21
1766015842.9117708,24
1766015842.9117792,24
1766015842.911788,21
1766015842.911801,18
1766015842.911813,22
1766015842.9118211,19
1766015842.9118311,21
1766015842.91184,23
1766015842.911849,21
1766015842.9118578,23
1766015842.911867,23
1766015842.9118762,22
1766015842.911885,23
1766015842.911894,22
1766015842.911903,22
1766015842.911912,23
1766015842.9119208,20
1766015842.91193,20
1766015842.9119391,22
1766015842.911948,22
1766015842.911957,24
1766015842.9119658,25
1766015842.911975,25
1766015842.9119842,20
1766015842.911993,21
1766015842.912002,23
1766015842.912011,24
1766015842.912021,21
1766015842.91203,19
1766015842.9120388,21
1766015842.912048,22
1766015842.9120572,22
1766015842.912066,22
1766015842.912075,22
1766015842.9120839,22
1766015842.912093,23
1766015842.9121048,23
1766015842.912118,24
1766015842.912127,21
1766015842.9121358,19
1766015842.912145,24
1766015842.9121542,25
1766015842.912163,23
1766015842.912172,20
1766015842.912181,22
1766015842.91219,21
1766015842.912199,24
1766015842.9122078,23
1766015842.9122171,23
1766015842.912226,24
1766015842.912235,20
1766015842.912244,19
1766015842.912253,21
1766015842.912262,21
1766015842.912271,23
1766015842.91228,23
1766015842.9122891,21
1766015842.912298,22
1766015842.912307,22
1766015842.9123158,23
1766015842.9123259,24
1766015842.9123352,20
1766015842.9123452,20
1766015842.912354,24
1766015842.912363,25
1766015842.9123719,23
1766015842.912381,21
1766015842.91239,23
1766015842.912399,24
1766015842.912411,22
1766015842.9124238,21
1766015842.9124339,20
1766015842.9124439,23
1766015842.912454,23
1766015842.9124632,22
1766015842.912472,24
1766015842.912481,24
1766015842.91249,21
1766015842.912499,24
1766015842.912508,22
1766015842.9125178,19
1766015842.912527,22
1766015842.9125361,25
1766015842.912545,20
1766015842.912554,21
1766015842.9125628,23
1766015842.912572,23
1766015842.9125812,21
1766015842.91259,22
1766015842.9126,19
1766015842.912609,25
1766015842.912618,20
1766015842.912627,21
1766015842.9126358,21
1766015842.912645,24
1766015842.9126542,21
1766015842.912663,23
1766015842.912672,24
1766015842.912682,27
1766015842.9126909,24
1766015842.9127,23
1766015842.9127092,24
1766015842.912718,20
1766015842.912731,22
1766015842.912742,21
1766015842.9127512,22
1766015842.91276,23
1766015842.912769,22
1766015842.912778,24
1766015842.912787,23
1766015842.912796,23
1766015842.912805,22
1766015842.912815,24
1766015842.912826,22
1766015842.9128351,23
1766015842.912844,22
1766015842.912854,23
1766015842.912863,21
1766015842.9128718,25
1766015842.912881,21
1766015842.9128902,20
1766015842.912899,22
1766015842.912909,22
1766015842.9129212,20
1766015842.91293,22
1766015842.912939,22
1766015842.912948,24
1766015842.912957,24
1766015842.9129658,22
1766015842.912975,23
1766015842.9129841,22
1766015842.912993,23
1766015842.913002,25
1766015842.913012,24
1766015842.9130208,24
1766015842.91303,24
1766015842.9130409,21
1766015842.9130518,22
1766015842.9130611,24
1766015842.91307,22
1766015842.913079,23
1766015842.913088,23
1766015842.913097,23
1766015842.913106,21
1766015842.913116,24
1766015842.913125,22
1766015842.913134,23
1766015842.9131432,24
1766015842.913152,22
1766015842.913161,22
1766015842.9131699,23
1766015842.913179,25
1766015842.913188,23
1766015842.9132779,25
1766015842.9132879,24
1766015842.913297,25
1766015842.913306,25
1766015842.913315,26
1766015842.913324,24
1766015842.913333,23
1766015842.913343,21
1766015842.913352,24
1766015842.9133608,25
1766015842.9133701,25
1766015842.913379,25
1766015842.913388,22
1766015842.913397,22
1766015842.913406,23
1766015842.913415,24
1766015842.9134238,24
1766015842.913433,25
1766015842.9134421,21
1766015842.913451,25
1766015842.91346,23
1766015842.9134688,24
1766015842.913478,26
1766015842.9134872,27
1766015842.913496,23
1766015842.913505,26
1766015842.913514,25
1766015842.913524,25
1766015842.913533,25
1766015842.9135418,26
1766015842.913551,24
1766015842.9135602,29
1766015842.913569,27
1766015842.913578,27
1766015842.9135869,25
1766015842.913596,23
1766015842.9136052,23
1766015842.913614,28
1766015842.913623,29
1766015842.913632,26
1766015842.913641,24
1766015842.913651,28
1766015842.9136598,22
1766015842.913669,24
1766015842.9136782,25
1766015842.913687,27
1766015842.913696,25
1766015842.913706,25
1766015842.913715,25
1766015842.913724,23
1766015842.913733,27
1766015842.913742,24
1766015842.913752,27
1766015842.9137611,25
1766015842.91377,25
1766015842.913779,25
1766015842.9137878,23
1766015842.9137971,24
1766015842.9138072,24
1766015842.913816,25
1766015842.913825,25
1766015842.913834,23
1766015842.913843,25
1766015842.913852,23
1766015842.913861,23
1766015842.913871,22
1766015842.91388,24
1766015842.913889,22
1766015842.913898,27
1766015842.913907,23
1766015842.9139159,25
1766015842.9139252,26
1766015842.913936,26
1766015842.9139452,24
1766015842.913954,28
1766015842.913963,26
1766015842.913972,27
1766015842.913981,27
1766015842.9139898,26
1766015842.913999,27
1766015842.9140081,24
1766015842.9140182,25
1766015842.914027,26
1766015842.914036,25
1766015842.9140449,23
1766015842.914054,22
1766015842.914067,22
1766015842.914077,25
1766015842.9140859,24
1766015842.9140952,27
1766015842.914104,25
1766015842.914114,29
1766015842.914123,24
1766015842.9141319,23
1766015842.914141,24
1766015842.91415,23
1766015842.914159,25
1766015842.9141681,25
1766015842.9141781,24
1766015842.914187,25
1766015842.914196,24
1766015842.9142048,24
1766015842.914214,27
1766015842.9142232,22
1766015842.914232,27
1766015842.914241,27
1766015842.91425,29
1766015842.914259,27
1766015842.914268,25
1766015842.9142778,28
1766015842.914287,28
1766015842.9142962,30
1766015842.914305,29
1766015842.914314,30
1766015842.9143229,31
1766015842.914332,29
1766015842.9143412,28
1766015842.914351,26
1766015842.914359,28
1766015842.914369,27
1766015842.914378,27
1766015842.914387,31
1766015842.9143958,28
1766015842.914405,30
1766015842.9144142,31
1766015842.9144242,29
1766015842.914433,30
1766015842.914442,30
1766015842.914451,29
1766015842.91446,29
1766015842.91447,30
1766015842.914479,32
1766015842.914488,30
1766015842.9144971,32
1766015842.914506,33
1766015842.914515,30
1766015842.914525,32
1766015842.9145339,31
1766015842.9145432,32
1766015842.914552,34
1766015842.914561,32
1766015842.91457,34
1766015842.9145799,33
1766015842.914589,35
1766015842.914599,33
1766015842.9146082,34
1766015842.914617,31
1766015842.9146261,35
1766015842.914635,37
1766015842.914644,32
1766015842.9146528,34
1766015842.914662,32
1766015842.9146712,34
1766015842.9146812,33
1766015842.91469,35
1766015842.914699,34
1766015842.914708,35
1766015842.914717,35
1766015842.9147258,35
1766015842.914736,35
1766015842.914745,35
1766015842.9147542,36
1766015842.914763,36
1766015842.914772,35
1766015842.9147809,37
1766015842.9147909,35
1766015842.9148002,36
1766015842.914809,34
1766015842.914819,36
1766015842.914828,36
1766015842.914837,38
1766015842.914848,38
1766015842.914858,37
1766015842.914867,37
1766015842.914876,35
1766015842.914885,39
1766015842.914894,37
1766015842.914904,40
1766015842.914913,38
1766015842.914923,38
1766015842.914932,37
1766015842.9149408,39
1766015842.91495,37
1766015842.9149592,38
1766015842.9149692,35
1766015842.914978,36
1766015842.914987,37
1766015842.914996,38
1766015842.915005,36
1766015842.9150138,37
1766015842.9150238,39
1766015842.915033,37
1766015842.9150422,35
1766015842.915051,38
1766015842.91506,39
1766015842.9150689,38
1766015842.9150789,37
1766015842.915088,39
1766015842.915097,40
1766015842.915106,35
1766015842.915115,35
1766015842.915125,35
1766015842.915134,37
1766015842.915143,39
1766015842.9151518,36
1766015842.9151611,39
1766015842.91517,35
1766015842.915179,35
1766015842.915188,35
1766015842.9151978,37
1766015842.915207,38
1766015842.915216,37
1766015842.915225,37
1766015842.915234,34
1766015842.915243,39
1766015842.915252,39
1766015842.915261,37
1766015842.9152699,38
1766015842.9152792,35
1766015842.915288,35
1766015842.915297,35
1766015842.915307,33
1766015842.9153159,36
1766015842.915325,37
1766015842.915334,37
1766015842.915343,37
1766015842.915352,36
1766015842.915361,35
1766015842.91537,33
1766015842.915379,32
1766015842.9153879,35
1766015842.9153972,35
1766015842.9154072,33
1766015842.915416,36
1766015842.915425,34
1766015842.915434,33
1766015842.915443,36
1766015842.915452,34
1766015842.915461,34
1766015842.9154701,36
1766015842.915479,34
1766015842.915948,33
1766015842.916936,35
1766015842.9179578,38
1766015842.918967,36
1766015842.919968,35
1766015842.9209752,34
1766015842.921978,32
1766015842.92298,34
1766015842.923979,30
1766015842.924994,33
1766015842.9259992,34
1766015842.92699,33
1766015842.927988,34
1766015842.929014,33
1766015842.9299881,36
1766015842.9309912,35
1766015842.932006,33
1766015842.933003,34
1766015842.934011,33
1766015842.935005,37
1766015842.93603,33
1766015842.937005,37
1766015842.9380338,33
1766015842.9390569,35
1766015842.9400132,34
1766015842.94101,33
1766015842.9420218,32
1766015842.943,34
1766015842.944003,34
1766015842.945034,35
1766015842.946013,32
1766015842.947059,35
1766015842.948033,35
1766015842.9490838,34
1766015842.950048,33
1766015842.951061,38
1766015842.952085,35
1766015842.953089,34
1766015842.95408,34
1766015842.955063,37
1766015842.956172,34
1766015842.9571772,35
1766015842.958157,34
1766015842.9591548,31
1766015842.960147,33
1766015842.961132,32
1766015842.962154,35
1766015842.963152,32
1766015842.964177,34
1766015842.965125,35
1766015842.966122,32
1766015842.9671848,32
1766015842.96815,32
1766015842.969128,31
1766015842.970207,34
1766015842.9711628,28
1766015842.972148,30
1766015842.973163,33
1766015842.9741702,33
1766015842.975152,29
1766015842.9761448,31
1766015842.977164,30
1766015842.9781508,30
1766015842.979149,31
1766015842.980145,28
1766015842.9811451,31
1766015842.982156,33
1766015842.983139,30
1766015842.984148,28
1766015842.985196,31
1766015842.9861782,32
1766015842.9871979,29
1766015842.988191,31
1766015842.989194,30
1766015842.9902122,31
1766015842.99117,31
1766015842.9922009,30
1766015842.9932,31
1766015842.994207,30
1766015842.995181,28
1766015842.996188,31
1766015842.9971771,30
1766015842.998175,31
1766015842.9991791,29
1766015843.000184,34
1766015843.001184,29
1766015843.002195,29
1766015843.0032089,29
1766015843.0042062,28
1766015843.0052228,27
1766015843.006164,29
1766015843.0072331,26
1766015843.00819,28
1766015843.009213,28
1766015843.0102131,26
1766015843.011213,30
1766015843.012209,29
1766015843.0131881,27
1766015843.014205,26
1766015843.015233,27
1766015843.016204,27
1766015843.017233,28
1766015843.01824,28
1766015843.019234,30
1766015843.0202198,27
1766015843.021219,29
1766015843.0222578,28
1766015843.023241,24
1766015843.024272,28
1766015843.0252721,26
1766015843.026272,27
1766015843.0272582,26
1766015843.028275,25
1766015843.02923,26
1766015843.030266,26
1766015843.031265,28
1766015843.032268,24
1766015843.033279,27
1766015843.034281,27
1766015843.035276,25
1766015843.036293,28
1766015843.037289,27
1766015843.038302,25
1766015843.039294,24
1766015843.0403059,25
1766015843.041297,25
1766015843.042303,26
1766015843.0433059,29
1766015843.04431,26
1766015843.0453062,24
1766015843.046307,25
1766015843.047306,25
1766015843.048325,26
1766015843.049309,28
1766015843.050326,26
1766015843.051328,24
1766015843.052335,27
1766015843.05332,26
1766015843.054358,28
1766015843.055339,27
1766015843.05634,28
1766015843.0573351,26
1766015843.058337,27
1766015843.059336,25
1766015843.060341,27
1766015843.0613399,23
1766015843.062359,27
1766015843.063364,27
1766015843.064352,24
1766015843.065355,26
1766015843.066371,26
1766015843.067368,27
1766015843.068376,26
1766015843.069355,24
1766015843.070387,28
1766015843.071373,25
1766015843.0723789,27
1766015843.0733829,24
1766015843.074383,26
1766015843.0753899,28
1766015843.076391,26
1766015843.077402,26
1766015843.0784,22
1766015843.079401,24
1766015843.080399,25
1766015843.081404,25
1766015843.082419,27
1766015843.083412,23
1766015843.0844128,26
1766015843.085409,27
1766015843.086412,26
1766015843.08741,26
1766015843.0884302,24
1766015843.089428,26
1766015843.0904331,25
1766015843.0914402,23
1766015843.092433,25
1766015843.09343,25
1766015843.094435,24
1766015843.0954518,25
1766015843.0964549,24
1766015843.097443,23
1766015843.098465,22
1766015843.0994601,23
1766015843.100467,24
1766015843.101452,27
1766015843.1025019,25
1766015843.103474,25
1766015843.10448,25
1766015843.105474,23
1766015843.1064892,25
1766015843.107487,23
1766015843.108489,23
1766015843.109484,22
1766015843.110484,26
1766015843.111491,24
1766015843.11249,26
1766015843.1135008,22
1766015843.114506,25
1766015843.115511,24
1766015843.116504,21
1766015843.117507,23
1766015843.118505,24
1766015843.1195068,23
1766015843.1205041,27
1766015843.1215029,24
1766015843.1225212,22
1766015843.123517,23
1766015843.124525,25
1766015843.125512,22
1766015843.126538,24
1766015843.1275342,24
1766015843.128534,26
1766015843.129534,23
1766015843.130547,23
1766015843.131547,25
1766015843.1325471,24
1766015843.1335738,26
1766015843.1345541,21
1766015843.1355588,22
1766015843.13655,23
1766015843.137561,23
1766015843.138552,20
1766015843.1395562,23
1766015843.1405718,21
1766015843.141567,23
1766015843.142573,26
1766015843.143564,27
1766015843.144589,25
1766015843.1455722,26
1766015843.146579,29
1766015843.147584,23
1766015843.1485991,26
1766015843.1496031,27
1766015843.1505861,25
1766015843.1516008,27
1766015843.152601,26
1766015843.1536179,25
1766015843.154599,25
1766015843.155633,24
1766015843.156616,26
1766015843.157631,25
1766015843.158654,28
1766015843.159644,25
1766015843.1606421,25
1766015843.161639,27
1766015843.162648,27
1766015843.16365,24
1766015843.1646452,26
1766015843.165631,27
1766015843.166659,25
1766015843.167656,25
1766015843.168659,27
1766015843.169659,27
1766015843.1706638,29
1766015843.1716568,27
1766015843.1726542,25
1766015843.173656,26
1766015843.174655,25
1766015843.175657,26
1766015843.176673,28
1766015843.1776729,25
1766015843.178674,26
1766015843.1796858,26
1766015843.180686,27
1766015843.181675,32
1766015843.182671,28
1766015843.183701,27
1766015843.184685,25
1766015843.1856918,28
1766015843.186692,31
1766015843.187706,32
1766015843.188711,33
1766015843.189693,34
1766015843.190708,34
1766015843.191707,35
1766015843.192738,36
1766015843.193714,34
1766015843.1947148,34
1766015843.195721,35
1766015843.1967201,36
1766015843.1977222,35
1766015843.198724,36
1766015843.1997309,39
1766015843.2007391,44
1766015843.2017431,48
1766015843.202743,48
1766015843.203739,54
1766015843.204743,52
1766015843.20575,54
1766015843.206768,56
1766015843.2077749,56
1766015843.208765,56
1766015843.2098079,55
1766015843.210803,59
1766015843.211779,60
1766015843.212786,61
1766015843.213783,62
1766015843.2148428,60
1766015843.215796,59
1766015843.2168279,65
1766015843.217831,62
1766015843.218817,67
1766015843.219829,67
1766015843.220831,70
1766015843.221809,70
1766015843.222804,71
1766015843.2238169,75
1766015843.224836,73
1766015843.225806,74
1766015843.226815,77
1766015843.2278242,79
1766015843.2288342,81
1766015843.229843,81
1766015843.230845,78
1766015843.231838,77
1766015843.232846,79
1766015843.233845,80
1766015843.2348459,81
1766015843.235848,85
1766015843.236855,91
1766015843.237855,93
1766015843.238861,98
1766015843.2399528,103
1766015843.2409742,102
1766015843.241973,102
1766015843.242962,105
1766015843.243967,104
1766015843.2449589,102
1766015843.2459579,105
1766015843.246976,105
1766015843.247971,107
1766015843.2489758,105
1766015843.249985,104
1766015843.250985,107
1766015843.251984,103
1766015843.2529879,103
1766015843.253976,107
1766015843.254986,107
1766015843.256005,105
1766015843.256997,106
1766015843.258004,107
1766015843.25901,105
1766015843.2600121,103
1766015843.26101,106
1766015843.262016,104
1766015843.263032,102
1766015843.264032,109
1766015843.2650099,112
1766015843.266042,114
1766015843.267026,115
1766015843.268024,123
1766015843.269035,126
1766015843.270041,126
1766015843.2710469,128
1766015843.272039,126
1766015843.2730482,126
1766015843.274061,125
1766015843.27506,122
1766015843.2760582,121
1766015843.277066,123
1766015843.278071,123
1766015843.279082,128
1766015843.280075,135
1766015843.281166,140
1766015843.282157,148
1766015843.283156,153
1766015843.2841501,152
1766015843.285154,151
1766015843.28615,154
1766015843.287152,151
1766015843.2881541,151
1766015843.2891572,151
1766015843.290153,150
1766015843.2911518,150
1766015843.292149,152
1766015843.293152,148
1766015843.294152,150
1766015843.295153,148
1766015843.296149,149
1766015843.2971551,147
1766015843.2981498,145
1766015843.2991512,144
1766015843.3001568,144
1766015843.301147,142
1766015843.302152,142
1766015843.3031502,141
1766015843.304148,139
1766015843.30515,141
1766015843.30615,144
1766015843.3071601,152
1766015843.308162,158
1766015843.309155,161
1766015843.31016,165
1766015843.311179,165
1766015843.312161,162
1766015843.313165,163
1766015843.314174,163
1766015843.315202,165
1766015843.316194,168
1766015843.317201,173
1766015843.3181849,173
1766015843.319189,171
1766015843.32018,169
1766015843.321207,167
1766015843.32219,165
1766015843.323189,164
1766015843.3241978,166
1766015843.325195,166
1766015843.326189,164
1766015843.327193,162
1766015843.328204,163
1766015843.329209,158
1766015843.330198,156
1766015843.331197,158
1766015843.332214,154
1766015843.3332238,154
1766015843.334223,157
1766015843.335221,159
1766015843.336233,160
1766015843.337218,161
1766015843.3382232,163
1766015843.339246,164
1766015843.34023,163
1766015843.341235,167
1766015843.3422441,167
1766015843.3432581,166
1766015843.3442528,170
1766015843.3452601,166
1766015843.3462532,169
1766015843.347256,173
1766015843.348256,184
1766015843.349261,193
1766015843.35027,197
1766015843.351274,197
1766015843.352273,200
1766015843.353285,199
1766015843.3542871,199
1766015843.3552902,203
1766015843.356283,203
1766015843.357273,203
1766015843.358297,199
1766015843.3592908,198
1766015843.360297,192
1766015843.361297,192
1766015843.362304,191
1766015843.363318,187
1766015843.3642921,185
1766015843.365303,183
1766015843.3663108,180
1766015843.367313,181
1766015843.3683178,179
1766015843.369323,182
1766015843.370326,182
1766015843.371331,183
1766015843.372323,184
1766015843.373327,183
1766015843.374327,185
1766015843.375324,184
1766015843.376323,184
1766015843.377322,183
1766015843.378347,184
1766015843.37934,180
1766015843.3803442,181
1766015843.381356,180
1766015843.382357,178
1766015843.3833668,176
1766015843.384373,175
1766015843.385365,173
1766015843.386364,171
1766015843.387369,170
1766015843.388362,167
1766015843.389386,168
1766015843.3903732,164
1766015843.391381,165
1766015843.3923771,165
1766015843.393385,164
1766015843.3943932,165
1766015843.395394,164
1766015843.396398,161
1766015843.397401,161
1766015843.3984041,158
1766015843.399401,157
1766015843.400404,156
1766015843.401403,152
1766015843.40243,155
1766015843.403415,151
1766015843.404413,148
1766015843.405418,146
1766015843.40642,146
1766015843.40743,148
1766015843.4084249,145
1766015843.409428,143
1766015843.410432,141
1766015843.411434,144
1766015843.4124339,140
1766015843.413435,141
1766015843.414457,142
1766015843.4154408,141
1766015843.416449,142
1766015843.417451,143
1766015843.418462,142
1766015843.419472,142
1766015843.4204469,143
1766015843.4214468,141
1766015843.422462,138
1766015843.423479,143
1766015843.424463,146
1766015843.425482,148
1766015843.426473,149
1766015843.4274728,148
1766015843.428479,144
1766015843.429492,150
1766015843.430484,152
1766015843.431489,152
1766015843.432496,152
1766015843.433502,156
1766015843.434505,159
1766015843.435513,166
1766015843.4365141,166
1766015843.437524,170
1766015843.438518,170
1766015843.4395149,170
1766015843.440522,172
1766015843.441535,171
1766015843.442524,172
1766015843.443533,172
1766015843.444521,173
1766015843.4455318,174
1766015843.446538,172
1766015843.447527,167
1766015843.4485362,167
1766015843.4495518,165
1766015843.450558,161
1766015843.4515462,163
1766015843.452554,162
1766015843.453559,158
1766015843.454574,157
1766015843.455563,155
1766015843.456558,160
1766015843.4575932,162
1766015843.458571,161
1766015843.459569,160
1766015843.460583,157
1766015843.4615848,159
1766015843.462594,156
1766015843.4635992,157
1766015843.464594,157
1766015843.465587,154
1766015843.466621,153
1766015843.4675908,152
1766015843.468588,148
1766015843.4696052,148
1766015843.4706,145
1766015843.4716,143
1766015843.472617,142
1766015843.473619,144
1766015843.474627,140
1766015843.475638,138
1766015843.476647,140
1766015843.477637,145
1766015843.478647,146
1766015843.479651,148
1766015843.480648,152
1766015843.481637,152
1766015843.482646,149
1766015843.4836469,154
1766015843.48465,152
1766015843.4856498,151
1766015843.486662,149
1766015843.4876642,146
1766015843.4886642,149
1766015843.489671,151
1766015843.490678,152
1766015843.4916759,153
1766015843.492674,150
1766015843.4936829,150
1766015843.494665,148
1766015843.495679,147
1766015843.496674,146
1766015843.49768,143
1766015843.4986858,143
1766015843.499694,142
1766015843.5006878,138
1766015843.5016892,137
1766015843.5026848,138
1766015843.503707,135
1766015843.504698,134
1766015843.505712,135
1766015843.5067048,135
1766015843.507711,130
1766015843.5086951,131
1766015843.509738,129
1766015843.510719,130
1766015843.511722,126
1766015843.512723,127
1766015843.513717,126
1766015843.514733,123
1766015843.515732,123
1766015843.516741,122
1766015843.517756,125
1766015843.518774,126
1766015843.519742,128
1766015843.520747,126
1766015843.5217438,124
1766015843.522769,124
1766015843.523757,123
1766015843.5247538,123
1766015843.52577,123
1766015843.526759,118
1766015843.52778,119
1766015843.52879,116
1766015843.529769,116
1766015843.5307672,116
1766015843.531777,116
1766015843.5327659,115
1766015843.53377,117
1766015843.534775,114
1766015843.535787,114
1766015843.5367901,110
1766015843.537794,112
1766015843.538798,110
1766015843.5397959,111
1766015843.5407958,110
1766015843.541793,108
1766015843.542793,104
1766015843.543802,112
1766015843.544811,114
1766015843.5458088,122
1766015843.546815,120
1766015843.5478048,124
1766015843.54881,124
1766015843.549814,122
1766015843.55081,124
1766015843.551828,124
1766015843.552827,125
1766015843.553853,124
1766015843.554865,121
1766015843.555846,119
1766015843.556834,120
1766015843.557853,116
1766015843.5588439,120
1766015843.559843,115
1766015843.560846,116
1766015843.561821,112
1766015843.5628328,114
1766015843.563822,111
1766015843.56483,115
1766015843.5658398,111
1766015843.566846,112
1766015843.5678358,111
1766015843.5688372,110
1766015843.5698361,110
1766015843.570851,106
1766015843.5718641,108
1766015843.572862,111
1766015843.57384,106
1766015843.574847,103
1766015843.575845,105
1766015843.576874,108
1766015843.577885,104
1766015843.5788841,105
1766015843.579902,102
1766015843.580885,101
1766015843.5818958,102
1766015843.582884,103
1766015843.583883,101
1766015843.58478,98
1766015843.585779,99
1766015843.586899,100
1766015843.587819,97
1766015843.588827,99
1766015843.589834,96
1766015843.590841,91
1766015843.591838,93
1766015843.592853,93
1766015843.593847,90
1766015843.59484,93
1766015843.595855,93
1766015843.59686,88
1766015843.597864,90
1766015843.598861,89
1766015843.599879,93
1766015843.600888,96
1766015843.601971,100
1766015843.602987,100
1766015843.603981,103
1766015843.6049879,101
1766015843.605966,102
1766015843.606981,102
1766015843.607991,103
1766015843.6089852,107
1766015843.6099882,103
1766015843.610983,103
1766015843.612,106
1766015843.612986,106
1766015843.613976,103
1766015843.614971,102
1766015843.616004,102
1766015843.61698,100
1766015843.617988,101
1766015843.618997,105
1766015843.620001,107
1766015843.621065,103
1766015843.6220238,105
1766015843.6230311,105
1766015843.624013,106
1766015843.6249611,109
1766015843.6260428,109
1766015843.627021,110
1766015843.628028,113
1766015843.628979,111
1766015843.63,109
1766015843.6309838,105
1766015843.6320488,108
1766015843.633044,111
1766015843.634044,106
1766015843.6350021,108
1766015843.6360362,109
1766015843.637061,109
1766015843.63811,107
1766015843.639052,106
1766015843.640069,109
1766015843.6410189,111
1766015843.642025,111
1766015843.643069,107
1766015843.644021,110
1766015843.64506,111
1766015843.646147,109
1766015843.647149,106
1766015843.648146,107
1766015843.649154,107
1766015843.650151,103
1766015843.6511118,104
1766015843.6521778,104
1766015843.653146,101
1766015843.654119,102
1766015843.655156,102
1766015843.655989,97
1766015843.657021,97
1766015843.657978,99
1766015843.6590312,97
1766015843.660013,96
1766015843.661015,92
1766015843.662018,95
1766015843.66303,93
1766015843.664032,93
1766015843.665049,96
1766015843.666032,93
1766015843.667032,94
1766015843.66804,92
1766015843.669045,90
1766015843.670059,92
1766015843.671051,92
1766015843.672058,96
1766015843.67314,92
1766015843.674064,92
1766015843.6750531,93
1766015843.676149,94
1766015843.677139,94
1766015843.67814,93
1766015843.679137,92
1766015843.6801448,92
1766015843.681152,90
1766015843.682156,91
1766015843.683146,88
1766015843.684153,89
1766015843.6851509,89
1766015843.686151,89
1766015843.687144,85
1766015843.688155,88
1766015843.689145,87
1766015843.69014,90
1766015843.6911218,88
1766015843.692128,87
1766015843.6931598,87
1766015843.694131,86
1766015843.695144,85
1766015843.6961422,85
1766015843.697154,86
1766015843.698136,86
1766015843.69914,88
1766015843.700141,92
1766015843.7011352,91
1766015843.702144,91
1766015843.7031481,91
1766015843.704149,91
1766015843.705139,88
1766015843.706141,89
1766015843.707152,90
1766015843.708158,95
1766015843.709159,96
1766015843.710144,96
1766015843.711235,101
1766015843.712236,101
1766015843.713228,102
1766015843.714224,100
1766015843.715137,99
1766015843.716157,99
1766015843.717252,100
1766015843.718252,101
1766015843.7192562,100
1766015843.7201548,96
1766015843.721184,95
1766015843.722146,97
1766015843.7231941,95
1766015843.724162,92
1766015843.725182,92
1766015843.726182,87
1766015843.727191,93
1766015843.7281861,90
1766015843.729186,95
1766015843.7301881,95
1766015843.731308,100
1766015843.7322838,100
1766015843.7332108,99
1766015843.734199,99
1766015843.735323,103
1766015843.736301,105
1766015843.7373178,104
1766015843.7383249,103
1766015843.7393348,101
1766015843.740331,101
1766015843.741343,102
1766015843.742346,103
1766015843.743354,103
1766015843.744243,98
1766015843.745334,100
1766015843.74634,102
1766015843.747255,97
1766015843.74825,97
1766015843.749259,97
1766015843.750256,95
1766015843.751266,93
1766015843.752265,91
1766015843.753271,92
1766015843.754287,96
1766015843.75527,99
1766015843.756376,104
1766015843.75738,110
1766015843.7583628,107
1766015843.759381,111
1766015843.760361,114
1766015843.761386,115
1766015843.76239,114
1766015843.763378,116
1766015843.7643871,116
1766015843.7653918,114
1766015843.766386,111
1766015843.7673962,113
1766015843.768403,114
1766015843.7694058,112
1766015843.770397,107
1766015843.771426,110
1766015843.772426,109
1766015843.773412,107
1766015843.7744179,107
1766015843.7754428,103
1766015843.776426,104
1766015843.777428,106
1766015843.7784388,104
1766015843.7794402,102
1766015843.780438,101
1766015843.781445,100
1766015843.782351,98
1766015843.7833521,96
1766015843.784348,99
1766015843.785451,100
1766015843.786453,102
1766015843.7874749,106
1766015843.788461,104
1766015843.789462,101
1766015843.790459,104
1766015843.7913752,99
1766015843.792477,100
1766015843.793474,101
1766015843.794385,99
1766015843.7954838,102
1766015843.7964969,101
1766015843.797476,105
1766015843.7985,106
1766015843.799501,110
1766015843.8004851,111
1766015843.8014789,109
1766015843.8025029,113
1766015843.803498,110
1766015843.804511,111
1766015843.805506,107
1766015843.8065019,108
1766015843.807501,108
1766015843.808532,110
1766015843.8095381,108
1766015843.8105211,107
1766015843.811525,109
1766015843.812551,107
1766015843.8135428,107
1766015843.814543,106
1766015843.815524,104
1766015843.8165429,105
1766015843.8175411,102
1766015843.8185432,104
1766015843.8194501,99
1766015843.820554,101
1766015843.821551,100
1766015843.8225532,100
1766015843.823442,98
1766015843.824569,100
1766015843.825461,98
1766015843.8264582,96
1766015843.827469,96
1766015843.828492,99
1766015843.829485,98
1766015843.830463,97
1766015843.831496,97
1766015843.832489,95
1766015843.833476,95
1766015843.834502,96
1766015843.8354921,93
1766015843.836494,95
1766015843.8374982,94
1766015843.838503,91
1766015843.839505,92
1766015843.8405051,90
1766015843.841513,91
1766015843.842516,90
1766015843.843529,88
1766015843.844508,90
1766015843.845514,90
1766015843.846543,92
1766015843.84751,94
1766015843.8485298,96
1766015843.849535,99
1766015843.850538,99
1766015843.8516412,101
1766015843.852649,101
1766015843.8535528,97
1766015843.854549,99
1766015843.855564,96
1766015843.856579,97
1766015843.857561,97
1766015843.8585632,96
1766015843.8595562,96
1766015843.8605802,97
1766015843.861575,96
1766015843.8625731,96
1766015843.8635678,96
1766015843.8645709,96
1766015843.8655639,96
1766015843.8665721,97
1766015843.867687,101
1766015843.868683,100
1766015843.869597,97
1766015843.8705878,98
1766015843.871593,97
1766015843.872598,98
1766015843.873596,97
1766015843.8745909,93
1766015843.875612,92
1766015843.8766122,95
1766015843.87761,93
1766015843.878597,92
1766015843.879596,94
1766015843.880613,92
1766015843.881631,94
1766015843.8826292,94
1766015843.883641,94
1766015843.884644,92
1766015843.8856242,92
1766015843.886629,93
1766015843.887638,90
