timestamp,emg_value
1766015854.957726,139
1766015854.957747,136
1766015854.957761,136
1766015854.957775,135
1766015854.957788,135
1766015854.9578009,134
1766015854.957814,131
1766015854.9578261,132
1766015854.957838,130
1766015854.957851,133
1766015854.9578629,128
1766015854.957876,129
1766015854.957888,134
1766015854.9579031,136
1766015854.957916,144
1766015854.957929,149
1766015854.957941,146
1766015854.957959,146
1766015854.9579709,144
1766015854.957983,144
1766015854.957995,145
1766015854.958007,145
1766015854.9580202,146
1766015854.958032,145
1766015854.9580438,142
1766015854.958071,139
1766015854.9580889,137
1766015854.958101,138
1766015854.958113,136
1766015854.958125,137
1766015854.9581382,139
1766015854.95815,139
1766015854.9581618,139
1766015854.958179,144
1766015854.9581912,145
1766015854.9582028,144
1766015854.958215,144
1766015854.9582279,144
1766015854.95824,141
1766015854.9582531,144
1766015854.958267,142
1766015854.958281,141
1766015854.958294,140
1766015854.958308,138
1766015854.958323,137
1766015854.958335,135
1766015854.958349,137
1766015854.9583611,137
1766015854.958373,133
1766015854.958389,132
1766015854.9584022,132
1766015854.958415,131
1766015854.95843,131
1766015854.958451,130
1766015854.958465,136
1766015854.958477,144
1766015854.9584901,155
1766015854.958503,160
1766015854.958517,161
1766015854.958529,159
1766015854.958542,162
1766015854.958555,163
1766015854.958569,164
1766015854.958581,161
1766015854.9585972,162
1766015854.958623,159
1766015854.958635,156
1766015854.958647,155
1766015854.9586592,156
1766015854.958671,154
1766015854.9586828,154
1766015854.958695,156
1766015854.958708,153
1766015854.95873,153
1766015854.958742,151
1766015854.9587562,147
1766015854.9587688,149
1766015854.958789,147
1766015854.958807,146
1766015854.95882,145
1766015854.958832,146
1766015854.958845,150
1766015854.958858,150
1766015854.958872,148
1766015854.958886,148
1766015854.9589,145
1766015854.958912,144
1766015854.958924,144
1766015854.958943,142
1766015854.958957,141
1766015854.958973,141
1766015854.9589891,141
1766015854.959009,140
1766015854.959023,138
1766015854.9590368,136
1766015854.95905,133
1766015854.959062,135
1766015854.959074,134
1766015854.9590862,129
1766015854.9590988,129
1766015854.959115,126
1766015854.9591308,124
1766015854.959147,123
1766015854.959161,124
1766015854.959177,121
1766015854.9591901,121
1766015854.959203,121
1766015854.9592168,121
1766015854.959229,119
1766015854.9592562,119
1766015854.95927,122
1766015854.959282,130
1766015854.9592938,135
1766015854.959306,142
1766015854.959318,146
1766015854.95933,148
1766015854.9593432,146
1766015854.9593549,150
1766015854.9593668,148
1766015854.959379,148
1766015854.9593909,145
1766015854.959403,145
1766015854.959415,145
1766015854.959427,146
1766015854.959439,144
1766015854.959451,143
1766015854.959463,142
1766015854.959475,140
1766015854.9594948,145
1766015854.959519,146
1766015854.9595342,144
1766015854.9595468,141
1766015854.959559,144
1766015854.959571,143
1766015854.959583,144
1766015854.959595,140
1766015854.9596071,139
1766015854.959619,140
1766015854.9596312,137
1766015854.959643,136
1766015854.9596548,135
1766015854.959667,135
1766015854.959679,136
1766015854.959692,133
1766015854.9597042,135
1766015854.9597282,133
1766015854.95974,131
1766015854.9597518,131
1766015854.959764,130
1766015854.959776,131
1766015854.959788,128
1766015854.9598,128
1766015854.9598122,126
1766015854.959827,125
1766015854.9598389,125
1766015854.9598532,125
1766015854.959868,124
1766015854.959882,123
1766015854.959896,121
1766015854.959908,123
1766015854.959921,122
1766015854.959934,123
1766015854.959946,127
1766015854.959958,126
1766015854.9599721,126
1766015854.959984,126
1766015854.959996,121
1766015854.960008,122
1766015854.96002,123
1766015854.960032,121
1766015854.9600441,127
1766015854.960056,129
1766015854.9600692,126
1766015854.9600809,129
1766015854.960093,128
1766015854.960106,123
1766015854.960118,127
1766015854.9601321,127
1766015854.960146,128
1766015854.960161,123
1766015854.960174,123
1766015854.960188,123
1766015854.960202,121
1766015854.960215,120
1766015854.9602299,122
1766015854.960243,119
1766015854.960255,119
1766015854.960267,120
1766015854.960279,117
1766015854.960292,117
1766015854.960304,118
1766015854.960316,118
1766015854.9603279,117
1766015854.960341,119
1766015854.9603531,119
1766015854.960365,120
1766015854.960377,124
1766015854.9603899,119
1766015854.960402,120
1766015854.960414,125
1766015854.960427,123
1766015854.960439,125
1766015854.960452,123
1766015854.9604638,125
1766015854.960476,121
1766015854.9604878,119
1766015854.9605,121
1766015854.960515,124
1766015854.9605298,128
1766015854.960546,127
1766015854.9605582,127
1766015854.960572,128
1766015854.960584,133
1766015854.960598,130
1766015854.960618,128
1766015854.960632,130
1766015854.9606452,129
1766015854.960657,127
1766015854.960669,123
1766015854.960681,124
1766015854.960693,123
1766015854.960706,122
1766015854.9607182,121
1766015854.96073,123
1766015854.960743,122
1766015854.960756,124
1766015854.960768,122
1766015854.960781,128
1766015854.960793,127
1766015854.960806,126
1766015854.9608178,127
1766015854.960832,122
1766015854.960844,121
1766015854.96086,123
1766015854.960875,121
1766015854.960889,122
1766015854.960904,119
1766015854.960917,122
1766015854.960929,121
1766015854.960945,120
1766015854.9609568,117
1766015854.960971,125
1766015854.960983,122
1766015854.9609962,121
1766015854.961008,120
1766015854.96102,116
1766015854.961032,120
1766015854.961045,121
1766015854.961057,123
1766015854.961069,117
1766015854.961081,121
1766015854.961094,118
1766015854.9611058,117
1766015854.961118,118
1766015854.96113,121
1766015854.9611452,118
1766015854.961157,118
1766015854.96117,116
1766015854.9611819,117
1766015854.961195,116
1766015854.96121,114
1766015854.9612238,116
1766015854.961238,117
1766015854.9612532,118
1766015854.961267,116
1766015854.96128,116
1766015854.9612942,115
1766015854.961309,114
1766015854.961322,113
1766015854.961344,116
1766015854.961358,121
1766015854.961379,121
1766015854.9613938,122
1766015854.961416,119
1766015854.961438,116
1766015854.961456,116
1766015854.96147,121
1766015854.961484,124
1766015854.961497,123
1766015854.9615119,127
1766015854.961526,128
1766015854.961539,126
1766015854.9615529,127
1766015854.961568,128
1766015854.9615822,124
1766015854.961596,124
1766015854.9616158,122
1766015854.961631,120
1766015854.961646,122
1766015854.96166,122
1766015854.961675,122
1766015854.9616902,119
1766015854.961705,118
1766015854.961718,118
1766015854.9617321,114
1766015854.961754,116
1766015854.961768,113
1766015854.961782,112
1766015854.961796,110
1766015854.961809,112
1766015854.961823,108
1766015854.961837,110
1766015854.961851,109
1766015854.961866,109
1766015854.96188,104
1766015854.961896,105
1766015854.961911,104
1766015854.961925,103
1766015854.9619389,105
1766015854.961953,102
1766015854.961967,104
1766015854.961982,104
1766015854.9619992,106
1766015854.962014,108
1766015854.962027,107
1766015854.9620411,110
1766015854.9620538,110
1766015854.962068,112
1766015854.9620821,113
1766015854.962097,114
1766015854.96211,115
1766015854.962124,113
1766015854.9621382,111
1766015854.962153,112
1766015854.962167,118
1766015854.962181,119
1766015854.962198,118
1766015854.962212,118
1766015854.9622269,121
1766015854.962241,118
1766015854.962255,122
1766015854.9622679,120
1766015854.962282,118
1766015854.962296,118
1766015854.9623098,119
1766015854.962324,120
1766015854.962337,119
1766015854.962352,121
1766015854.962369,117
1766015854.962385,119
1766015854.962399,116
1766015854.962412,119
1766015854.962427,119
1766015854.962443,118
1766015854.962456,115
1766015854.9624698,117
1766015854.962484,117
1766015854.962498,114
1766015854.9625118,113
1766015854.962525,114
1766015854.962539,115
1766015854.962553,114
1766015854.9625669,113
1766015854.962581,112
1766015854.962595,109
1766015854.962608,108
1766015854.962622,110
1766015854.962636,108
1766015854.96265,109
1766015854.962664,106
1766015854.962677,107
1766015854.962691,107
1766015854.962705,106
1766015854.96272,106
1766015854.962739,103
1766015854.962753,103
1766015854.9627688,106
1766015854.962782,107
1766015854.962796,104
1766015854.96281,107
1766015854.9628239,108
1766015854.962838,108
1766015854.962851,110
1766015854.962873,105
1766015854.9628868,110
1766015854.962903,113
1766015854.9629178,111
1766015854.962931,112
1766015854.962945,115
1766015854.962959,118
1766015854.962972,118
1766015854.9629881,118
1766015854.963001,124
1766015854.963016,126
1766015854.96303,124
1766015854.9630442,123
1766015854.9630709,122
1766015854.9630852,126
1766015854.963098,121
1766015854.963114,122
1766015854.963131,117
1766015854.963147,120
1766015854.963161,117
1766015854.9631748,116
1766015854.963188,117
1766015854.963203,115
1766015854.963219,114
1766015854.9632351,115
1766015854.963248,122
1766015854.9632618,123
1766015854.963275,125
1766015854.9632902,127
1766015854.963304,130
1766015854.963318,133
1766015854.963331,131
1766015854.9633448,131
1766015854.96336,131
1766015854.963375,132
1766015854.963389,128
1766015854.963404,129
1766015854.963418,129
1766015854.9634318,129
1766015854.963446,129
1766015854.963459,129
1766015854.9634728,128
1766015854.963489,125
1766015854.963504,122
1766015854.963518,124
1766015854.963532,121
1766015854.963546,119
1766015854.963559,120
1766015854.963573,119
1766015854.963587,119
1766015854.9636009,117
1766015854.963615,119
1766015854.963628,119
1766015854.9636421,119
1766015854.963656,119
1766015854.963671,118
1766015854.963685,122
1766015854.9636989,117
1766015854.963713,118
1766015854.963727,120
1766015854.9637408,123
1766015854.963755,120
1766015854.9637692,123
1766015854.963783,124
1766015854.963797,123
1766015854.9638112,123
1766015854.963825,123
1766015854.963839,124
1766015854.9638531,124
1766015854.9638689,123
1766015854.963883,126
1766015854.9638982,130
1766015854.963912,133
1766015854.963926,130
1766015854.9639401,130
1766015854.963954,129
1766015854.963967,132
1766015854.9639812,131
1766015854.963996,130
1766015854.96401,130
1766015854.964024,126
1766015854.964038,128
1766015854.964052,126
1766015854.964066,126
1766015854.964082,126
1766015854.964096,126
1766015854.9641101,129
1766015854.964124,132
1766015854.964138,132
1766015854.964152,132
1766015854.9641669,134
1766015854.964181,134
1766015854.964195,135
1766015854.964213,135
1766015854.9642282,135
1766015854.964308,133
1766015854.9643269,133
1766015854.964342,136
1766015854.9643562,134
1766015854.96437,134
1766015854.964384,135
1766015854.964399,135
1766015854.964413,132
1766015854.964427,131
1766015854.964441,130
1766015854.964455,130
1766015854.964469,129
1766015854.964483,130
1766015854.9644969,127
1766015854.96451,131
1766015854.964525,128
1766015854.9645388,129
1766015854.9645529,124
1766015854.964567,126
1766015854.964581,124
1766015854.964596,128
1766015854.964609,130
1766015854.964624,129
1766015854.964638,128
1766015854.964652,126
1766015854.964669,124
1766015854.964684,126
1766015854.964698,124
1766015854.964718,124
1766015854.964732,121
1766015854.964746,122
1766015854.96476,123
1766015854.964774,123
1766015854.964788,122
1766015854.964801,122
1766015854.9648159,116
1766015854.96483,118
1766015854.964844,120
1766015854.964858,120
1766015854.964878,117
1766015854.964892,116
1766015854.964959,116
1766015854.9649868,116
1766015854.965003,115
1766015854.96502,117
1766015854.965036,118
1766015854.965051,115
1766015854.965067,114
1766015854.965088,112
1766015854.965104,111
1766015854.96512,115
1766015854.965138,116
1766015854.9651551,115
1766015854.9651752,110
1766015854.965191,113
1766015854.965208,114
1766015854.965224,111
1766015854.965239,112
1766015854.965255,114
1766015854.965271,115
1766015854.9652932,113
1766015854.965309,112
1766015854.965324,113
1766015854.96534,111
1766015854.965356,109
1766015854.9653718,110
1766015854.965388,110
1766015854.965409,109
1766015854.965425,113
1766015854.96544,111
1766015854.9654558,113
1766015854.965472,113
1766015854.9654882,112
1766015854.965504,111
1766015854.96552,111
1766015854.965536,107
1766015854.965552,111
1766015854.96557,108
1766015854.965587,108
1766015854.965604,107
1766015854.965624,108
1766015854.9656389,107
1766015854.965656,108
1766015854.965672,103
1766015854.965687,102
1766015854.965703,103
1766015854.9657202,104
1766015854.965736,108
1766015854.965751,113
1766015854.965767,118
1766015854.965784,116
1766015854.9658,116
1766015854.965815,124
1766015854.9658308,126
1766015854.965847,123
1766015854.965864,121
1766015854.965879,125
1766015854.965895,124
1766015854.9659111,121
1766015854.965927,125
1766015854.965943,125
1766015854.9659588,123
1766015854.965975,122
1766015854.965993,119
1766015854.96601,119
1766015854.966026,121
1766015854.966042,119
1766015854.966058,120
1766015854.9660742,117
1766015854.966089,120
1766015854.9661062,117
1766015854.966122,119
1766015854.9661381,113
1766015854.966153,113
1766015854.96628,110
1766015854.966301,111
1766015854.966315,110
1766015854.966329,108
1766015854.9663439,109
1766015854.966358,107
1766015854.966377,107
1766015854.966391,107
1766015854.9664059,106
1766015854.96642,108
1766015854.966433,110
1766015854.9664488,107
1766015854.966463,108
1766015854.9664772,105
1766015854.966491,105
1766015854.966507,106
1766015854.9665222,105
1766015854.966536,108
1766015854.96655,112
1766015854.9665642,113
1766015854.966578,114
1766015854.966592,115
1766015854.9666061,115
1766015854.96662,112
1766015854.966634,114
1766015854.966648,111
1766015854.966662,112
1766015854.966676,114
1766015854.96669,116
1766015854.9667041,114
1766015854.966717,115
1766015854.966732,111
1766015854.966746,111
1766015854.96676,114
1766015854.966774,111
1766015854.966794,111
1766015854.966808,108
1766015854.966822,110
1766015854.966836,107
1766015854.96685,108
1766015854.9668689,107
1766015854.9669309,111
1766015854.966957,112
1766015854.9669719,111
1766015854.966988,110
1766015854.9670022,111
1766015854.967016,108
1766015854.967031,104
1766015854.967045,108
1766015854.967059,106
1766015854.967073,108
1766015854.967087,111
1766015854.9671009,115
1766015854.967115,112
1766015854.967129,109
1766015854.9671428,107
1766015854.967157,112
1766015854.967171,113
1766015854.9671848,113
1766015854.967199,116
1766015854.9672132,115
1766015854.967227,117
1766015854.967241,113
1766015854.967255,113
1766015854.9672692,111
1766015854.967283,110
1766015854.967297,111
1766015854.9673128,106
1766015854.967328,108
1766015854.9673421,110
1766015854.967356,107
1766015854.96737,107
1766015854.967385,106
1766015854.967398,102
1766015854.967412,102
1766015854.967426,103
1766015854.96744,101
1766015854.967454,100
1766015854.967468,100
1766015854.967479,98
1766015854.967493,100
1766015854.967509,97
1766015854.967521,99
1766015854.967532,99
1766015854.9675431,98
1766015854.967555,99
1766015854.9675689,100
1766015854.967583,105
1766015854.967596,112
1766015854.9676101,121
1766015854.967624,124
1766015854.967641,126
1766015854.967655,130
1766015854.967669,131
1766015854.967683,130
1766015854.967699,135
1766015854.967713,132
1766015854.9677272,135
1766015854.967741,134
1766015854.967755,133
1766015854.9677691,135
1766015854.9677818,136
1766015854.9677958,133
1766015854.9678102,134
1766015854.967824,133
1766015854.967838,130
1766015854.967852,132
1766015854.9678662,131
1766015854.96788,130
1766015854.967894,125
1766015854.9679081,124
1766015854.967922,125
1766015854.967936,122
1766015854.96795,125
1766015854.967964,123
1766015854.967978,121
1766015854.967991,121
1766015854.968006,120
1766015854.968019,117
1766015854.968034,119
1766015854.9680471,116
1766015854.968065,119
1766015854.968079,116
1766015854.968093,117
1766015854.968107,112
1766015854.968121,113
1766015854.9681349,110
1766015854.968149,108
1766015854.968163,111
1766015854.9681768,110
1766015854.968191,108
1766015854.968205,107
1766015854.9682188,105
1766015854.9682329,105
1766015854.968247,103
1766015854.968262,105
1766015854.968276,102
1766015854.96829,102
1766015854.9683042,101
1766015854.968318,101
1766015854.968332,101
1766015854.968346,101
1766015854.96836,104
1766015854.968374,107
1766015854.9683871,107
1766015854.968401,107
1766015854.968415,103
1766015854.9684322,109
1766015854.968446,107
1766015854.96846,105
1766015854.9684732,108
1766015854.968487,109
1766015854.968501,107
1766015854.9685152,107
1766015854.968529,105
1766015854.968544,106
1766015854.9685571,107
1766015854.968572,104
1766015854.968585,106
1766015854.9686,106
1766015854.9686131,104
1766015854.968627,102
1766015854.968641,102
1766015854.968655,103
1766015854.968669,103
1766015854.968683,100
1766015854.968697,101
1766015854.968711,100
1766015854.968723,99
1766015854.968734,95
1766015854.968745,97
1766015854.968757,99
1766015854.968768,94
1766015854.968779,97
1766015854.968792,98
1766015854.9688041,98
1766015854.968818,100
1766015854.9688299,96
1766015854.968841,96
1766015854.968856,100
1766015854.968867,96
1766015854.9688792,95
1766015854.9688902,94
1766015854.9689019,97
1766015854.9689128,97
1766015854.9689238,96
1766015854.968936,93
1766015854.968947,95
1766015854.968958,94
1766015854.96897,94
1766015854.968982,96
1766015854.968993,92
1766015854.969005,94
1766015854.969016,93
1766015854.969028,91
1766015854.9690392,91
1766015854.9690502,92
1766015854.9690611,89
1766015854.969072,91
1766015854.9690838,88
1766015854.969095,88
1766015854.969106,86
1766015854.9691179,86
1766015854.9691288,85
1766015854.969141,83
1766015854.969169,84
1766015854.9692109,85
1766015854.969225,85
1766015854.969237,86
1766015854.969248,85
1766015854.969259,83
1766015854.969271,83
1766015854.9692822,83
1766015854.969294,83
1766015854.969305,84
1766015854.9693172,81
1766015854.9693282,78
1766015854.969339,81
1766015854.9693508,79
1766015854.969362,78
1766015854.969374,78
1766015854.969385,76
1766015854.9693959,78
1766015854.969407,75
1766015854.969419,76
1766015854.96943,75
1766015854.969441,73
1766015854.969453,75
1766015854.969464,74
1766015854.969475,74
1766015854.969486,77
1766015854.9694982,71
1766015854.9695091,74
1766015854.96952,71
1766015854.969532,73
1766015854.969543,71
1766015854.969554,73
1766015854.969565,73
1766015854.969579,72
1766015854.969592,72
1766015854.969603,72
1766015854.969614,73
1766015854.9696262,70
1766015854.9696372,73
1766015854.9696481,69
1766015854.9696598,73
1766015854.969671,70
1766015854.969682,70
1766015854.969694,71
1766015854.9697049,68
1766015854.969716,73
1766015854.969727,71
1766015854.969739,74
1766015854.96975,73
1766015854.9697611,74
1766015854.969773,75
1766015854.969784,74
1766015854.9697962,72
1766015854.9698071,73
1766015854.9698188,71
1766015854.9698298,70
1766015854.969841,68
1766015854.969852,68
1766015854.969864,70
1766015854.9698749,74
1766015854.969892,76
1766015854.96991,83
1766015854.969921,83
1766015854.969933,91
1766015854.969944,92
1766015854.9699562,90
1766015854.9699688,89
1766015854.969981,87
1766015854.969992,90
1766015854.970003,89
1766015854.9700139,85
1766015854.970026,86
1766015854.970037,87
1766015854.970048,89
1766015854.970061,86
1766015854.970073,85
1766015854.9700842,84
1766015854.9700952,83
1766015854.9701061,84
1766015854.9701178,81
1766015854.97013,80
1766015854.970141,82
1766015854.9701529,81
1766015854.970164,81
1766015854.970177,78
1766015854.9701881,78
1766015854.970198,80
1766015854.970208,79
1766015854.970218,79
1766015854.9702342,80
1766015854.9702442,78
1766015854.9702542,78
1766015854.970264,77
1766015854.970274,76
1766015854.970284,74
1766015854.970294,77
1766015854.970304,76
1766015854.970314,73
1766015854.970325,74
1766015854.970337,70
1766015854.970347,73
1766015854.970357,73
1766015854.970367,73
1766015854.970377,72
1766015854.970387,70
1766015854.970397,73
1766015854.970407,69
1766015854.9704168,73
1766015854.9704268,72
1766015854.970437,68
1766015854.970447,69
1766015854.970457,70
1766015854.970467,70
1766015854.970477,70
1766015854.970488,69
1766015854.970498,70
1766015854.970508,67
1766015854.970518,67
1766015854.970528,69
1766015854.970538,68
1766015854.970548,64
1766015854.970558,64
1766015854.970568,66
1766015854.970578,66
1766015854.970588,67
1766015854.970598,67
1766015854.9706082,66
1766015854.970618,63
1766015854.970628,65
1766015854.970637,63
1766015854.970648,63
1766015854.970659,61
1766015854.97067,65
1766015854.97068,67
1766015854.970689,60
1766015854.970699,61
1766015854.970709,62
1766015854.9707189,63
1766015854.9707289,61
1766015854.970739,61
1766015854.970749,62
1766015854.9707599,60
1766015854.970769,61
1766015854.97078,59
1766015854.97079,62
1766015854.9708002,61
1766015854.9708102,59
1766015854.9708202,60
1766015854.97083,58
1766015854.9708412,61
1766015854.9708512,58
1766015854.970861,58
1766015854.970871,59
1766015854.970881,62
1766015854.970891,59
1766015854.970901,62
1766015854.970911,59
1766015854.970921,59
1766015854.970931,58
1766015854.970942,58
1766015854.970952,56
1766015854.9709618,56
1766015854.9709718,59
1766015854.9709818,54
1766015854.970994,54
1766015854.971004,54
1766015854.971015,54
1766015854.9710238,54
1766015854.9710348,53
1766015854.971045,54
1766015854.971055,54
1766015854.971064,56
1766015854.971075,52
1766015854.971085,53
1766015854.971095,53
1766015854.971105,53
1766015854.971115,52
1766015854.971125,54
1766015854.971135,51
1766015854.9711459,55
1766015854.971156,51
1766015854.971166,52
1766015854.971176,54
1766015854.971186,48
1766015854.9711978,53
1766015854.9712079,49
1766015854.97122,51
1766015854.97123,53
1766015854.97124,53
1766015854.9712498,52
1766015854.9712598,55
1766015854.9712698,52
1766015854.9712799,52
1766015854.97129,53
1766015854.9713001,53
1766015854.9713101,49
1766015854.9713202,50
1766015854.971332,50
1766015854.971342,48
1766015854.971352,49
1766015854.971362,49
1766015854.9713721,48
1766015854.971382,50
1766015854.971392,49
1766015854.971402,51
1766015854.971412,51
1766015854.971422,52
1766015854.971432,50
1766015854.971442,51
1766015854.971452,49
1766015854.9714618,49
1766015854.9714718,48
1766015854.971482,51
1766015854.971492,49
1766015854.971502,46
1766015854.971512,48
1766015854.971522,53
1766015854.971532,50
1766015854.9715421,50
1766015854.971552,51
1766015854.971562,49
1766015854.971572,51
1766015854.971582,49
1766015854.971592,50
1766015854.971602,49
1766015854.971612,49
1766015854.971622,50
1766015854.9716322,46
1766015854.971642,48
1766015854.9716532,47
1766015854.971664,47
1766015854.9716742,49
1766015854.971684,49
1766015854.971694,48
1766015854.971704,47
1766015854.971714,49
1766015854.971724,48
1766015854.971734,48
1766015854.971744,48
1766015854.971754,48
1766015854.9717638,51
1766015854.9717739,48
1766015854.9717839,49
1766015854.971794,48
1766015854.971804,48
1766015854.971814,49
1766015854.9718242,46
1766015854.9718342,48
1766015854.9718442,49
1766015854.9718552,52
1766015854.9718652,51
1766015854.9718752,51
1766015854.971885,48
1766015854.9719,51
1766015854.971911,47
1766015854.971921,52
1766015854.971931,51
1766015854.9719412,48
1766015854.971951,50
1766015854.971961,49
1766015854.971971,53
1766015854.971981,50
1766015854.97203,50
1766015854.972043,51
1766015854.972054,52
1766015854.972064,47
1766015854.972074,51
1766015854.972085,48
1766015854.972095,53
1766015854.972105,49
1766015854.972202,50
1766015854.972221,49
1766015854.972235,50
1766015854.972248,48
1766015854.9722612,53
1766015854.9722729,53
1766015854.972286,49
1766015854.972299,49
1766015854.972312,48
1766015854.972325,49
1766015854.972338,50
1766015854.972351,54
1766015854.9723651,54
1766015854.972378,49
1766015854.9723918,53
1766015854.972405,54
1766015854.972418,54
1766015854.9724312,52
1766015854.9724438,52
1766015854.972456,51
1766015854.972469,53
1766015854.972482,50
1766015854.972495,54
1766015854.972508,54
1766015854.972527,52
1766015854.97254,52
1766015854.972554,55
1766015854.972567,56
1766015854.972579,53
1766015854.972592,53
1766015854.972605,55
1766015854.972617,56
1766015854.97263,56
1766015854.9726431,54
1766015854.972656,54
1766015854.972668,53
1766015854.972681,58
1766015854.972694,57
1766015854.972707,54
1766015854.9727201,55
1766015854.972734,54
1766015854.972747,55
1766015854.972759,55
1766015854.9727721,56
1766015854.9727879,54
1766015854.972801,57
1766015854.972814,57
1766015854.972827,57
1766015854.9728398,57
1766015854.972853,58
1766015854.972866,57
1766015854.972878,60
1766015854.9728909,57
1766015854.972904,59
1766015854.972917,56
1766015854.972929,58
1766015854.972943,57
1766015854.972956,58
1766015854.972974,57
1766015854.9729888,53
1766015854.973002,55
1766015854.973014,59
1766015854.973174,55
1766015854.973231,59
1766015854.973243,60
1766015854.973254,63
1766015854.973266,61
1766015854.9732769,60
1766015854.9732869,60
1766015854.9732978,63
1766015854.973345,60
1766015854.973357,61
1766015854.9733682,59
1766015854.973391,62
1766015854.973401,63
1766015854.973421,62
1766015854.9734342,63
1766015854.9734452,63
1766015854.973456,63
1766015854.9734662,62
1766015854.9734771,64
1766015854.9734871,63
1766015854.973498,63
1766015854.9735081,59
1766015854.973519,59
1766015854.973529,60
1766015854.97354,57
1766015854.9735591,60
1766015854.973569,59
1766015854.9735801,62
1766015854.973591,61
1766015854.9736059,63
1766015854.973618,60
1766015854.973629,61
1766015854.973639,62
1766015854.9736488,63
1766015854.9736588,63
1766015854.97367,63
1766015854.97368,65
1766015854.97369,67
1766015854.9737012,63
1766015854.973711,66
1766015854.9737222,63
1766015854.973732,65
1766015854.9737432,65
1766015854.973753,65
1766015854.973763,63
1766015854.973773,65
1766015854.973783,60
1766015854.973793,61
1766015854.973803,60
1766015854.973813,62
1766015854.973825,60
1766015854.973836,63
1766015854.9738472,64
1766015854.973858,66
1766015854.973869,67
1766015854.973918,69
1766015854.973929,68
1766015854.973984,70
1766015854.974032,69
1766015854.9740422,67
1766015854.9740522,69
1766015854.974064,65
1766015854.974111,63
1766015854.974147,65
1766015854.974158,65
1766015854.974169,63
1766015854.974207,65
1766015854.974217,66
1766015854.974227,65
1766015854.974237,67
1766015854.974247,63
1766015854.974257,63
1766015854.9742668,65
1766015854.974277,62
1766015854.974287,65
1766015854.974325,61
1766015854.974336,64
1766015854.974356,65
1766015854.974367,62
1766015854.974377,63
1766015854.974387,63
1766015854.974397,65
1766015854.974407,64
1766015854.974418,63
1766015854.974429,66
1766015854.9744399,67
1766015854.9744508,68
1766015854.9744608,67
1766015854.9744709,70
1766015854.9744809,70
1766015854.974494,71
1766015854.974506,70
1766015854.974516,67
1766015854.974526,67
1766015854.97454,72
1766015854.9745522,70
1766015854.9745631,70
1766015854.9745731,71
1766015854.9745831,71
1766015854.974594,74
1766015854.974605,72
1766015854.974617,71
1766015854.9746282,70
1766015854.974638,70
1766015854.9748118,70
1766015854.974876,68
1766015854.974887,68
1766015854.9749062,69
1766015854.9749172,70
1766015854.974928,69
1766015854.9749382,71
1766015854.9749491,71
1766015854.9749591,72
1766015854.97497,75
1766015854.9749818,75
1766015854.974994,75
1766015854.9750059,77
1766015854.9750159,80
1766015854.9750268,81
1766015854.975038,79
1766015854.9750478,82
1766015854.9750578,79
1766015854.97507,82
1766015854.975082,82
1766015854.975109,81
1766015854.9751208,80
1766015854.975178,77
1766015854.975192,77
1766015854.975261,79
1766015854.975279,78
1766015854.975292,75
1766015854.97532,80
1766015854.975393,74
1766015854.975405,76
1766015854.975432,75
1766015854.9754539,74
1766015854.975465,73
1766015854.9754748,80
1766015854.975486,80
1766015854.975511,77
1766015854.975522,77
1766015854.975598,80
1766015854.975635,79
1766015854.975648,82
1766015854.975659,82
1766015854.975671,80
1766015854.975737,80
1766015854.9757519,81
1766015854.9757628,81
1766015854.975774,83
1766015854.975787,83
1766015854.9758358,79
1766015854.975847,79
1766015854.975858,82
1766015854.975869,80
1766015854.97588,79
1766015854.9758909,75
1766015854.9759018,76
1766015854.9759219,80
1766015854.97597,80
1766015854.975981,82
1766015854.975991,82
1766015854.976021,83
1766015854.976032,82
1766015854.976043,82
1766015854.976053,83
1766015854.976064,86
1766015854.976075,84
1766015854.9760902,87
1766015854.9761002,86
1766015854.9761112,86
1766015854.9761212,81
1766015854.9761322,85
1766015854.9761422,85
1766015854.976165,83
1766015854.976177,83
1766015854.976216,86
1766015854.976226,84
1766015854.976237,85
1766015854.976248,85
1766015854.976258,83
1766015854.976269,87
1766015854.976279,86
1766015854.9763699,86
1766015854.976382,86
1766015854.9764202,86
1766015854.976448,86
1766015854.976459,85
1766015854.97647,87
1766015854.976481,85
1766015854.976492,87
1766015854.9765792,83
1766015854.976612,85
1766015854.976623,85
1766015854.976668,85
1766015854.976682,85
1766015854.976693,88
1766015854.976734,82
1766015854.976745,83
1766015854.9767559,84
1766015854.976767,82
1766015854.976777,82
1766015854.976788,83
1766015854.976798,83
1766015854.976809,84
1766015854.976827,85
1766015854.9768388,86
1766015854.9768488,87
1766015854.9768598,84
1766015854.9768698,87
1766015854.9768808,85
1766015854.976892,87
1766015854.9769018,83
1766015854.976948,84
1766015854.976959,84
1766015854.97697,83
1766015854.977015,83
1766015854.977026,84
1766015854.9770648,85
1766015854.9771059,84
1766015854.9771168,86
1766015854.977128,84
1766015854.977139,86
1766015854.977151,87
1766015854.977163,83
1766015854.977174,84
1766015854.9772081,86
1766015854.977226,84
1766015854.977237,85
1766015854.977247,80
1766015854.977259,83
1766015854.977328,84
1766015854.9773388,78
1766015854.977375,80
1766015854.977391,84
1766015854.9774022,82
1766015854.9774132,83
1766015854.977424,84
1766015854.9774342,83
1766015854.9774752,84
1766015854.977535,84
1766015854.977546,84
1766015854.977556,84
1766015854.977602,85
1766015854.977613,83
1766015854.977623,81
1766015854.977634,82
1766015854.977644,82
1766015854.977654,84
1766015854.977691,83
1766015854.97787,81
1766015854.977922,81
1766015854.977932,78
1766015854.977943,84
1766015854.9779782,85
1766015854.97799,84
1766015854.978004,83
1766015854.978015,79
1766015854.978067,81
1766015854.9780962,77
1766015854.978106,79
1766015854.978116,77
1766015854.978126,78
1766015854.978136,77
1766015854.978146,79
1766015854.978156,79
1766015854.978166,76
1766015854.978178,77
1766015854.978188,76
1766015854.978198,77
1766015854.978209,78
1766015854.97822,79
1766015854.9782321,79
1766015854.9782422,78
1766015854.978252,78
1766015854.978262,82
1766015854.978272,84
1766015854.9782841,83
1766015854.978295,83
1766015854.978306,83
1766015854.978317,83
1766015854.978328,83
1766015854.978339,82
1766015854.9783502,85
1766015854.9783611,85
1766015854.9783711,81
1766015854.978395,81
1766015854.978406,85
1766015854.9784179,84
1766015854.978431,85
1766015854.978441,87
1766015854.978451,87
1766015854.9784992,86
1766015854.9785101,89
1766015854.978525,86
1766015854.978571,88
1766015854.978583,91
1766015854.978594,92
1766015854.978605,94
1766015854.978616,94
1766015854.978626,93
1766015854.978637,93
1766015854.978647,97
1766015854.978683,94
1766015854.978693,92
1766015854.978734,95
1766015854.9787478,97
1766015854.9787579,97
1766015854.9787679,94
1766015854.9787781,93
1766015854.9787881,98
1766015854.978799,95
1766015854.978809,95
1766015854.9788191,93
1766015854.9788291,96
1766015854.978891,95
1766015854.9789052,95
1766015854.978915,94
1766015854.9789262,95
1766015854.9789371,94
1766015854.9789472,93
1766015854.978959,94
1766015854.97897,93
1766015854.978987,95
1766015854.978998,93
1766015854.979008,95
1766015854.979019,90
1766015854.979029,91
1766015854.979109,92
1766015854.979119,89
1766015854.979131,92
1766015854.979142,92
1766015854.979153,91
1766015854.9791648,90
1766015854.979177,91
1766015854.979189,87
1766015854.979199,90
1766015854.979237,90
1766015854.979263,91
1766015854.9792771,91
1766015854.9792871,90
1766015854.979299,90
1766015854.979311,89
1766015854.979323,88
1766015854.9793339,87
1766015854.9793448,89
1766015854.9793558,83
1766015854.979386,87
1766015854.979397,87
1766015854.9794078,88
1766015854.979419,87
1766015854.979429,85
1766015854.9794402,83
1766015854.979451,84
1766015854.979465,85
1766015854.979477,85
1766015854.979488,86
1766015854.979498,84
1766015854.9795089,84
1766015854.979519,80
1766015854.97953,82
1766015854.9795399,83
1766015854.979551,84
1766015854.9795609,80
1766015854.979572,82
1766015854.979583,80
1766015854.979617,81
1766015854.979656,82
1766015854.979667,79
1766015854.979678,81
1766015854.979688,79
1766015854.979715,79
1766015854.9797251,79
1766015854.979736,78
1766015854.979746,78
1766015854.979757,77
1766015854.979767,76
1766015854.979778,75
1766015854.979788,76
1766015854.979798,74
1766015854.979809,75
1766015854.979819,74
1766015854.97983,72
1766015854.97984,75
1766015854.979851,73
1766015854.979861,74
1766015854.979872,72
1766015854.979896,72
1766015854.979906,70
1766015854.979917,71
1766015854.979927,73
1766015854.979938,72
1766015854.979948,71
1766015854.979959,72
1766015854.979969,74
1766015854.97998,68
1766015854.97999,66
1766015854.980001,70
1766015854.980011,69
1766015854.980021,68
1766015854.980032,66
1766015854.980043,65
1766015854.980053,67
1766015854.980063,67
1766015854.980074,67
1766015854.980084,65
1766015854.980095,67
1766015854.980105,67
1766015854.980125,66
1766015854.980157,67
1766015854.9801679,66
1766015854.9801788,63
1766015854.9801888,64
1766015854.9801989,63
1766015854.9802449,66
1766015854.980319,62
1766015854.980335,66
1766015854.9803462,63
1766015854.9803572,64
1766015854.980371,64
1766015854.980404,66
1766015854.980416,66
1766015854.980427,64
1766015854.980463,62
1766015854.980474,64
1766015854.9804852,63
1766015854.9804952,61
1766015854.9805062,61
1766015854.9805162,62
1766015854.980567,58
1766015854.980584,59
1766015854.9805949,60
1766015854.980605,56
1766015854.980615,58
1766015854.9806259,59
1766015854.980636,57
1766015854.980646,60
1766015854.9806561,58
1766015854.9806662,57
1766015854.9806771,60
1766015854.980704,57
1766015854.980716,58
1766015854.980727,57
1766015854.9807382,55
1766015854.98075,54
1766015854.980769,57
1766015854.980803,56
1766015854.9808261,56
1766015854.980837,58
1766015854.980848,54
1766015854.980858,53
1766015854.980869,51
1766015854.980881,52
1766015854.980891,54
1766015854.980902,52
1766015854.9809122,51
1766015854.980937,49
1766015854.980949,49
1766015854.980961,48
1766015854.980972,48
1766015854.980983,49
1766015854.980993,49
1766015854.981004,48
1766015854.981015,49
1766015854.981025,48
1766015854.981036,46
1766015854.981086,48
1766015854.981098,50
1766015854.981109,48
1766015854.981148,48
1766015854.9811578,45
1766015854.981196,45
1766015854.9812229,46
1766015854.981236,48
1766015854.981247,46
1766015854.981258,46
1766015854.981269,47
1766015854.98128,42
1766015854.981291,47
1766015854.981301,45
1766015854.981312,44
1766015854.981323,44
1766015854.981334,43
1766015854.981345,41
1766015854.981359,45
1766015854.981374,41
1766015854.981387,41
1766015854.981424,41
1766015854.981436,43
1766015854.981486,40
1766015854.981498,43
1766015854.9815092,43
1766015854.98152,40
1766015854.9815302,42
1766015854.9815412,39
1766015854.9815512,38
1766015854.981653,41
1766015854.981668,37
1766015854.9816802,38
1766015854.981693,37
1766015854.9817028,40
1766015854.981719,38
1766015854.98173,36
1766015854.981741,37
1766015854.981753,38
1766015854.9818518,34
1766015854.981885,36
1766015854.9818969,36
1766015854.981908,34
1766015854.9819179,33
1766015854.98193,36
1766015854.98194,34
1766015854.981951,33
1766015854.981961,35
1766015854.981972,35
1766015854.981982,35
1766015854.981994,34
1766015854.9820101,32
1766015854.982049,34
1766015854.982062,36
1766015854.982074,36
1766015854.982107,37
1766015854.9821188,35
1766015854.982131,36
1766015854.982143,34
1766015854.982153,35
1766015854.982163,36
1766015854.982174,33
1766015854.982185,32
1766015854.982195,35
1766015854.982205,33
1766015854.982265,32
1766015854.9822788,33
1766015854.98232,33
1766015854.982332,32
1766015854.982472,31
1766015854.9825048,34
1766015854.982517,33
1766015854.982528,33
1766015854.982545,30
1766015854.9825559,32
1766015854.9825659,29
1766015854.9825768,31
1766015854.9825878,31
1766015854.982599,33
1766015854.9826088,29
1766015854.9826381,30
1766015854.982649,28
1766015854.982659,29
1766015854.9826949,30
1766015854.9827101,33
1766015854.982721,31
1766015854.982732,28
1766015854.982743,33
1766015854.982753,32
1766015854.982764,30
1766015854.982775,31
1766015854.98281,28
1766015854.982901,31
1766015854.982913,26
1766015854.982922,27
1766015854.982931,31
1766015854.98294,31
1766015854.982949,27
1766015854.982958,27
1766015854.982968,28
1766015854.982977,28
1766015854.982986,29
1766015854.982995,26
1766015854.9830039,30
1766015854.9830132,26
1766015854.9830232,27
1766015854.983032,26
1766015854.983041,28
1766015854.9830499,29
1766015854.983059,29
1766015854.983068,28
1766015854.983077,30
1766015854.983087,26
1766015854.9830961,27
1766015854.983105,28
1766015854.983114,25
1766015854.983127,29
1766015854.983136,25
1766015854.983145,27
1766015854.9831538,26
1766015854.9831638,28
1766015854.9831731,26
1766015854.9831822,24
1766015854.983191,27
1766015854.9832,27
1766015854.983209,25
1766015854.983218,25
1766015854.9832268,25
1766015854.983236,25
1766015854.9832451,28
1766015854.983254,25
1766015854.983263,23
1766015854.983273,27
1766015854.9832819,24
1766015854.983291,25
1766015854.9833002,27
1766015854.983309,28
1766015854.983318,26
1766015854.983327,23
1766015854.983336,24
1766015854.9833448,26
1766015854.983354,27
1766015854.9833632,25
1766015854.983372,25
1766015854.983381,25
1766015854.9833899,25
1766015854.983399,23
1766015854.9834082,24
1766015854.98342,25
1766015854.98343,24
1766015854.9834392,24
1766015854.983448,23
1766015854.983457,22
1766015854.983466,23
1766015854.983475,26
1766015854.9834838,24
1766015854.983493,25
1766015854.9835021,24
1766015854.983511,26
1766015854.98352,23
1766015854.9835289,26
1766015854.983538,27
1766015854.983547,28
1766015854.983556,24
1766015854.983565,25
1766015854.983574,26
1766015854.983583,21
1766015854.983592,25
1766015854.9836009,25
1766015854.9836109,22
1766015854.983648,29
1766015854.983657,23
1766015854.983666,24
1766015854.9836748,22
1766015854.983684,25
1766015854.983694,24
1766015854.9837031,25
1766015854.983712,22
1766015854.983721,24
1766015854.9837298,21
1766015854.983739,24
1766015854.983752,23
1766015854.9837608,22
1766015854.9837701,26
1766015854.983779,27
1766015854.983788,22
1766015854.983797,25
1766015854.983807,23
1766015854.983816,25
1766015854.983825,23
1766015854.983834,23
1766015854.983843,24
1766015854.9838521,23
1766015854.983861,24
1766015854.98387,25
1766015854.9838789,22
1766015854.983888,19
1766015854.983897,25
1766015854.983906,23
1766015854.983915,23
1766015854.983925,23
1766015854.983934,22
1766015854.983943,22
1766015854.9839518,24
1766015854.983964,25
1766015854.983974,22
1766015854.983983,25
1766015854.9839911,25
1766015854.984001,24
1766015854.984009,24
1766015854.984019,23
1766015854.9840279,20
1766015854.9840372,24
1766015854.9840481,24
1766015854.9840589,25
1766015854.9840682,24
1766015854.984077,23
1766015854.984086,22
1766015854.9840949,25
1766015854.984104,25
1766015854.984113,25
1766015854.984122,24
1766015854.984131,23
1766015854.98414,22
1766015854.984149,25
1766015854.984158,23
1766015854.9841669,23
1766015854.9841762,21
1766015854.984185,24
1766015854.984195,22
1766015854.984204,22
1766015854.9842129,22
1766015854.984225,22
1766015854.984234,23
1766015854.984243,24
1766015854.984252,21
1766015854.984261,20
1766015854.98427,21
1766015854.9842792,24
1766015854.984288,24
1766015854.984297,23
1766015854.9843059,22
1766015854.984315,26
1766015854.984324,22
1766015854.984333,22
1766015854.984344,23
1766015854.984357,25
1766015854.9843662,23
1766015854.984375,22
1766015854.984384,26
1766015854.984393,19
1766015854.984403,21
1766015854.984412,23
1766015854.984421,23
1766015854.98443,22
1766015854.9844391,24
1766015854.984448,25
1766015854.984457,22
1766015854.984465,23
1766015854.984475,25
1766015854.984483,23
1766015854.984493,25
1766015854.984501,23
1766015854.98451,27
1766015854.98452,22
1766015854.9845288,20
1766015854.9845371,23
1766015854.9845471,23
1766015854.984556,24
1766015854.984564,23
1766015854.984573,24
1766015854.984582,23
1766015854.984591,21
1766015854.9846,21
1766015854.9846091,23
1766015854.984618,22
1766015854.984628,23
1766015854.984637,21
1766015854.98465,23
1766015854.984662,22
1766015854.9846709,23
1766015854.98468,22
1766015854.984689,24
1766015854.984698,23
1766015854.984707,24
1766015854.9847171,25
1766015854.984726,23
1766015854.984735,22
1766015854.9847438,20
1766015854.984753,22
1766015854.9847622,23
1766015854.984771,23
1766015854.98478,22
1766015854.984789,21
1766015854.984798,24
1766015854.984807,23
1766015854.984816,25
1766015854.9848251,23
1766015854.984834,25
1766015854.984843,22
1766015854.984852,24
1766015854.984861,23
1766015854.98487,24
1766015854.984879,21
1766015854.984888,26
1766015854.984898,24
1766015854.984907,26
1766015854.984916,22
1766015854.984925,23
1766015854.9849339,23
1766015854.9849432,24
1766015854.984962,22
1766015854.984971,22
1766015854.984981,22
1766015854.98499,24
1766015854.984999,25
1766015854.9850082,26
1766015854.985017,25
1766015854.9850261,27
1766015854.985035,26
1766015854.985044,23
1766015854.9850528,23
1766015854.985062,25
1766015854.9850712,26
1766015854.98508,24
1766015854.985089,23
1766015854.985098,23
1766015854.985107,22
1766015854.985116,21
1766015854.985125,20
1766015854.9851341,25
1766015854.985143,25
1766015854.985152,21
1766015854.985161,23
1766015854.98517,25
1766015854.985179,23
1766015854.985188,21
1766015854.985197,22
1766015854.9852061,25
1766015854.985215,24
1766015854.985224,27
1766015854.9852328,23
1766015854.9852421,23
1766015854.9852538,23
1766015854.985264,24
1766015854.9852731,24
1766015854.985282,22
1766015854.985291,24
1766015854.9853,27
1766015854.985309,22
1766015854.985318,22
1766015854.985327,25
1766015854.985337,23
1766015854.985346,22
1766015854.985355,25
1766015854.985364,24
1766015854.985373,25
1766015854.9853818,26
1766015854.985392,24
1766015854.9854012,24
1766015854.98541,24
1766015854.985419,24
1766015854.9854279,22
1766015854.985437,27
1766015854.985446,25
1766015854.9854562,24
1766015854.985465,22
1766015854.985474,25
1766015854.985483,25
1766015854.985492,25
1766015854.985502,27
1766015854.9855108,25
1766015854.9855201,22
1766015854.9855292,21
1766015854.985539,23
1766015854.985548,23
1766015854.9855602,24
1766015854.98557,25
1766015854.985579,21
1766015854.985588,23
1766015854.9855978,23
1766015854.985607,23
1766015854.985616,25
1766015854.985625,25
1766015854.985634,20
1766015854.985643,24
1766015854.985652,26
1766015854.985661,22
1766015854.9856699,23
1766015854.9856791,22
1766015854.985688,23
1766015854.985698,24
1766015854.985707,26
1766015854.9857159,23
1766015854.985725,26
1766015854.985734,23
1766015854.985743,23
1766015854.985753,26
1766015854.9857621,23
1766015854.985771,26
1766015854.98578,25
1766015854.9857888,23
1766015854.985798,24
1766015854.9858072,19
1766015854.9858172,24
1766015854.9858408,23
1766015854.98585,23
1766015854.98586,29
1766015854.9858718,20
1766015854.985881,23
1766015854.9858902,26
1766015854.9859,24
1766015854.985909,27
1766015854.985918,23
1766015854.9859269,24
1766015854.985936,25
1766015854.985945,23
1766015854.985954,25
1766015854.985964,23
1766015854.985973,25
1766015854.985983,23
1766015854.985992,21
1766015854.986001,23
1766015854.98601,22
1766015854.9860191,23
1766015854.986028,22
1766015854.986037,22
1766015854.9860458,21
1766015854.9860559,22
1766015854.986065,23
1766015854.9860742,22
1766015854.986083,25
1766015854.986094,26
1766015854.986103,22
1766015854.986112,22
1766015854.986121,21
1766015854.98613,23
1766015854.9861388,25
1766015854.986148,26
1766015854.986157,21
1766015854.986166,22
1766015854.986179,25
1766015854.986188,23
1766015854.986197,24
1766015854.986206,25
1766015854.9862149,25
1766015854.986225,23
1766015854.9862342,23
1766015854.986243,24
1766015854.9862669,22
1766015854.9863071,22
1766015854.986374,23
1766015854.98639,27
1766015854.986401,24
1766015854.9864361,20
1766015854.986469,20
1766015854.986515,21
1766015854.9865322,24
1766015854.986541,25
1766015854.986551,23
1766015854.98656,22
1766015854.98657,24
1766015854.986579,22
1766015854.986588,25
1766015854.986615,23
1766015854.9866261,23
1766015854.986637,23
1766015854.9866471,24
1766015854.9866571,20
1766015854.986668,24
1766015854.986701,23
1766015854.986711,22
1766015854.986722,22
1766015854.98678,23
1766015854.9868019,23
1766015854.986836,21
1766015854.986846,23
1766015854.986857,23
1766015854.986888,23
1766015854.986921,24
1766015854.986958,19
1766015854.9869928,22
1766015854.9870038,19
1766015854.9870248,22
1766015854.987039,25
1766015854.987048,20
1766015854.987058,21
1766015854.987194,24
1766015854.9872031,20
1766015854.9872131,22
1766015854.987221,20
1766015854.98723,21
1766015854.987239,25
1766015854.9872482,23
1766015854.987257,23
1766015854.987266,22
1766015854.9872751,22
1766015854.98732,21
1766015854.987355,21
1766015854.987365,23
1766015854.987374,22
1766015854.9873831,20
1766015854.987392,23
1766015854.987401,24
1766015854.9874098,20
1766015854.987419,19
1766015854.987432,21
1766015854.9874408,20
1766015854.9874501,22
1766015854.9874592,18
1766015854.987468,21
1766015854.987477,23
1766015854.987486,21
1766015854.987495,22
1766015854.9875042,23
1766015854.987513,19
1766015854.9875221,20
1766015854.98753,21
1766015854.987543,23
1766015854.987552,21
1766015854.987561,22
1766015854.9875698,22
1766015854.9875789,20
1766015854.9875882,20
1766015854.987597,20
1766015854.987606,23
1766015854.9876149,21
1766015854.987624,23
1766015854.987633,23
1766015854.987642,19
1766015854.987651,24
1766015854.98766,24
1766015854.987669,23
1766015854.987682,21
1766015854.9876952,20
1766015854.987705,21
1766015854.9877162,21
1766015854.987725,21
1766015854.9877372,20
1766015854.987747,21
1766015854.987756,21
1766015854.987765,24
1766015854.987774,23
1766015854.987783,23
1766015854.9877918,21
1766015854.987801,21
1766015854.9878101,21
1766015854.987819,20
1766015854.987828,21
1766015854.9878368,21
1766015854.987846,25
1766015854.9878552,23
1766015854.987864,21
1766015854.987873,21
1766015854.987882,21
1766015854.987891,19
1766015854.9879,22
1766015854.987909,22
1766015854.9879181,22
1766015854.9879282,21
1766015854.987937,21
1766015854.987946,20
1766015854.9879549,23
1766015854.9879649,18
1766015854.9879732,22
1766015854.987981,22
1766015854.987989,19
1766015854.9879968,17
1766015854.9880052,21
1766015854.988013,23
1766015854.988021,20
1766015854.988033,19
1766015854.988041,19
1766015854.9880478,24
1766015854.9880562,20
1766015854.988064,20
1766015854.988072,21
1766015854.98808,23
1766015854.9880881,21
1766015854.988096,23
1766015854.9881039,21
1766015854.988112,22
1766015854.98812,22
1766015854.988128,18
1766015854.988136,24
1766015854.9881442,24
1766015854.988152,24
1766015854.98816,19
1766015854.988168,22
1766015854.9881759,23
1766015854.988184,18
1766015854.988192,21
1766015854.9882,19
1766015854.988208,22
1766015854.9882162,23
1766015854.988224,21
1766015854.988232,23
1766015854.9882398,23
1766015854.988248,23
1766015854.988256,23
1766015854.9882638,21
1766015854.9882722,20
1766015854.98828,24
1766015854.988294,26
1766015854.988304,22
1766015854.988312,24
1766015854.98832,23
1766015854.988328,22
1766015854.988336,24
1766015854.988343,22
1766015854.988352,23
1766015854.98836,21
1766015854.988367,23
1766015854.988375,20
1766015854.988383,22
1766015854.988391,21
1766015854.988399,24
1766015854.9884071,21
1766015854.988415,22
1766015854.9884229,22
1766015854.9884312,25
1766015854.98844,22
1766015854.988448,22
1766015854.988456,20
1766015854.988464,21
1766015854.988472,24
1766015854.98848,20
1766015854.988488,22
1766015854.9884958,21
1766015854.9885042,22
1766015854.988513,21
1766015854.98852,22
1766015854.988528,21
1766015854.9885361,23
1766015854.988544,23
1766015854.988553,24
1766015854.988565,20
1766015854.9885728,23
1766015854.9885812,21
1766015854.988589,23
1766015854.988597,21
1766015854.988605,23
1766015854.9886131,23
1766015854.988621,22
1766015854.988629,20
1766015854.988637,20
1766015854.988645,23
1766015854.988653,25
1766015854.988661,20
1766015854.988669,25
1766015854.988677,23
1766015854.9886851,23
1766015854.988693,22
1766015854.9887009,20
1766015854.9887092,22
1766015854.988717,21
1766015854.988725,22
1766015854.9887328,24
1766015854.9887412,22
1766015854.988749,24
1766015854.988757,20
1766015854.988765,21
1766015854.988773,22
1766015854.9887822,22
1766015854.98879,21
1766015854.988798,22
1766015854.9888058,19
1766015854.988814,21
1766015854.9888241,20
1766015854.988833,23
1766015854.988841,20
1766015854.988849,18
1766015854.9888582,24
1766015854.9888651,23
1766015854.988873,21
1766015854.9888818,21
1766015854.9888902,21
1766015854.988898,21
1766015854.988906,23
1766015854.988914,20
1766015854.988922,20
1766015854.98893,24
1766015854.988938,19
1766015854.988946,21
1766015854.988954,20
1766015854.988962,22
1766015854.98897,23
1766015854.988978,21
1766015854.988988,22
1766015854.988996,21
1766015854.9890041,21
1766015854.989012,23
1766015854.9890199,23
1766015854.989028,22
1766015854.989036,22
1766015854.989044,23
1766015854.9890518,21
1766015854.9890602,20
1766015854.989068,21
1766015854.989076,20
1766015854.989084,21
1766015854.9890938,20
1766015854.989105,23
1766015854.989113,20
1766015854.989121,22
1766015854.989129,23
1766015854.989137,20
1766015854.989145,21
1766015854.989153,21
1766015854.989161,22
1766015854.989169,23
1766015854.989177,21
1766015854.989185,22
1766015854.989194,18
1766015854.989202,23
1766015854.9892101,23
1766015854.989218,23
1766015854.989226,19
1766015854.989234,21
1766015854.989242,21
1766015854.98925,17
1766015854.989258,20
1766015854.989266,21
1766015854.989274,21
1766015854.9892821,21
1766015854.98929,26
1766015854.9892979,20
1766015854.989307,23
1766015854.989315,22
1766015854.989323,21
1766015854.989331,21
1766015854.9893389,22
1766015854.989347,19
1766015854.989355,17
1766015854.989366,21
1766015854.9893749,22
1766015854.989383,22
1766015854.989391,22
1766015854.989399,23
1766015854.989408,16
1766015854.989415,24
1766015854.9894242,21
1766015854.989432,21
1766015854.98944,26
1766015854.9894478,20
1766015854.989456,21
1766015854.989464,23
1766015854.989472,23
1766015854.98948,21
1766015854.9894881,23
1766015854.9894972,20
1766015854.989505,25
1766015854.9895139,21
1766015854.9895208,22
1766015854.98953,21
1766015854.989538,21
1766015854.989546,24
1766015854.989554,22
1766015854.989562,19
1766015854.9895701,17
1766015854.989578,22
1766015854.9895859,19
1766015854.9895942,25
1766015854.989602,20
1766015854.98961,23
1766015854.9896178,18
1766015854.9896262,22
1766015854.9896379,23
1766015854.9896462,23
1766015854.989654,21
1766015854.989662,21
1766015854.9896698,20
1766015854.9896781,22
1766015854.989686,24
1766015854.989695,21
1766015854.989703,22
1766015854.989711,22
1766015854.989718,21
1766015854.989726,23
1766015854.989735,21
1766015854.989743,22
1766015854.989751,24
1766015854.989759,23
1766015854.9897668,22
1766015854.9897752,20
1766015854.989783,22
1766015854.989791,22
1766015854.989799,20
1766015854.9898071,21
1766015854.989815,22
1766015854.989828,21
1766015854.9898372,22
1766015854.989849,21
1766015854.9898582,22
1766015854.989866,23
1766015854.989874,21
1766015854.9898822,25
1766015854.98989,20
1766015854.989898,23
1766015854.989907,19
1766015854.98992,22
1766015854.989928,20
1766015854.989936,18
1766015854.989944,20
1766015854.989952,20
1766015854.98996,20
1766015854.9899678,17
1766015854.9899762,19
1766015854.989985,18
1766015854.9899929,19
1766015854.990001,17
1766015854.990009,22
1766015854.990017,20
1766015854.9901068,22
1766015854.9901152,22
1766015854.990159,21
1766015854.990168,20
1766015854.990176,21
1766015854.9901838,19
1766015854.9901922,21
1766015854.9902,20
1766015854.990208,22
1766015854.990217,20
1766015854.9902248,21
1766015854.9902332,19
1766015854.990241,23
1766015854.9902499,20
1766015854.990258,20
1766015854.990266,20
1766015854.990274,21
1766015854.990282,22
1766015854.99029,24
1766015854.990301,21
1766015854.990311,20
1766015854.9903202,20
1766015854.990328,22
1766015854.990336,21
1766015854.990344,19
1766015854.9903538,19
1766015854.9903622,20
1766015854.99037,19
1766015854.990379,21
1766015854.990387,20
1766015854.9903948,21
1766015854.9904041,24
1766015854.990412,19
1766015854.9904199,18
1766015854.990428,23
1766015854.990436,19
1766015854.990444,22
1766015854.990452,21
1766015854.99046,22
1766015854.990468,23
1766015854.9904761,23
1766015854.990484,22
1766015854.990649,22
1766015854.990667,22
1766015854.990745,22
1766015854.990894,20
1766015854.9909592,20
1766015854.991036,20
1766015854.9910998,21
1766015854.9911108,23
1766015854.991153,17
1766015854.9911628,24
1766015854.991175,22
1766015854.991185,21
1766015854.991193,21
1766015854.991202,22
1766015854.99121,21
1766015854.991219,22
1766015854.991227,21
1766015854.991235,22
1766015854.9912431,20
1766015854.991252,21
1766015854.9912598,19
1766015854.9912682,23
1766015854.991276,22
1766015854.991284,23
1766015854.991292,21
1766015854.9913,22
1766015854.991308,20
1766015854.991317,21
1766015854.991325,21
1766015854.991333,20
1766015854.991342,22
1766015854.9913511,24
1766015854.99136,23
1766015854.9913678,24
1766015854.991376,21
1766015854.991384,22
1766015854.991392,25
1766015854.991401,21
1766015854.9914088,21
1766015854.9914172,18
1766015854.991425,21
1766015854.991433,24
1766015854.991442,22
1766015854.991454,24
1766015854.991464,21
1766015854.9914722,22
1766015854.991481,23
1766015854.991489,25
1766015854.991497,23
1766015854.991505,24
1766015854.9915142,21
1766015854.991522,21
1766015854.99153,24
1766015854.9915378,24
1766015854.9915462,22
1766015854.991554,23
1766015854.991563,22
1766015854.991571,23
1766015854.9915788,25
1766015854.9915872,21
1766015854.991595,20
1766015854.9916039,24
1766015854.991612,25
1766015854.99162,22
1766015854.991628,24
1766015854.991636,24
1766015854.991644,27
1766015854.991652,23
1766015854.99166,24
1766015854.991669,24
1766015854.991677,21
1766015854.991688,23
1766015854.9916968,22
1766015854.9917052,23
1766015854.991713,23
1766015854.991721,24
1766015854.991733,23
1766015854.991743,25
1766015854.991752,23
1766015854.9917598,22
1766015854.9917681,23
1766015854.991776,21
1766015854.9917839,21
1766015854.991793,24
1766015854.991801,21
1766015854.9918091,24
1766015854.991817,25
1766015854.9918249,22
1766015854.9918342,24
1766015854.991842,23
1766015854.99185,23
1766015854.991858,23
1766015854.991866,21
1766015854.991874,22
1766015854.991883,22
1766015854.991891,22
1766015854.9918988,23
1766015854.9919071,20
1766015854.991915,22
1766015854.991924,23
1766015854.991932,25
1766015854.99194,20
1766015854.991949,22
1766015854.991958,22
1766015854.991967,23
1766015854.9919748,23
1766015854.9919832,23
1766015854.991991,25
1766015854.991999,23
1766015854.9920099,20
1766015854.992021,22
1766015854.992029,21
1766015854.992037,21
1766015854.9920452,22
1766015854.992053,19
1766015854.992061,22
1766015854.992069,21
1766015854.992078,25
1766015854.992086,23
1766015854.992094,20
1766015854.992102,23
1766015854.9921122,18
1766015854.99212,19
1766015854.992128,21
1766015854.992136,23
1766015854.9921439,22
1766015854.9921532,23
1766015854.992161,23
1766015854.992169,23
1766015854.992177,25
1766015854.992185,21
1766015854.992193,20
1766015854.9922009,22
1766015854.992209,25
1766015854.992217,22
1766015854.9922261,21
1766015854.992234,22
1766015854.9922419,23
1766015854.9922502,21
1766015854.992258,25
1766015854.992266,20
1766015854.992275,21
1766015854.992285,19
1766015854.992295,21
1766015854.992304,22
1766015854.992312,20
1766015854.99232,22
1766015854.992328,21
1766015854.9923358,22
1766015854.9923441,23
1766015854.992352,21
1766015854.9923599,23
1766015854.9923682,20
1766015854.992377,22
1766015854.992385,22
1766015854.992393,19
1766015854.992401,22
1766015854.9924102,20
1766015854.992418,24
1766015854.992426,22
1766015854.992434,25
1766015854.9924421,21
1766015854.99245,22
1766015854.9924579,24
1766015854.992466,22
1766015854.992474,24
1766015854.992482,22
1766015854.99249,27
1766015854.992498,24
1766015854.992506,22
1766015854.9925141,25
1766015854.992522,25
1766015854.9925299,26
1766015854.9925408,20
1766015854.9925492,25
1766015854.9925601,20
1766015854.9925702,25
1766015854.992578,22
1766015854.992586,22
1766015854.992595,21
1766015854.9926028,23
1766015854.9926112,24
1766015854.992621,25
1766015854.992629,21
1766015854.9926379,26
1766015854.992648,24
1766015854.9926558,22
1766015854.992664,26
1766015854.992672,23
1766015854.9926798,24
1766015854.9926882,24
1766015854.992696,26
1766015854.992704,23
1766015854.992712,24
1766015854.99272,22
1766015854.992728,24
1766015854.992736,23
1766015854.992744,25
1766015854.992752,21
1766015854.9927611,22
1766015854.992769,23
1766015854.9927769,24
1766015854.992785,26
1766015854.992793,21
1766015854.992803,23
1766015854.992811,20
1766015854.9928188,24
1766015854.992827,24
1766015854.992838,24
1766015854.992846,24
1766015854.992855,22
1766015854.992862,24
1766015854.9928699,24
1766015854.9928782,23
1766015854.992887,26
1766015854.992895,25
1766015854.992903,26
1766015854.992911,25
1766015854.992919,24
1766015854.992927,21
1766015854.992935,23
1766015854.992943,21
1766015854.9929512,24
1766015854.992959,24
1766015854.992967,23
1766015854.992975,27
1766015854.992984,24
1766015854.992992,23
1766015854.993,24
1766015854.9930081,24
1766015854.993016,23
1766015854.993024,25
1766015854.993032,25
1766015854.9930398,23
1766015854.9930491,25
1766015854.993057,23
1766015854.9930649,22
1766015854.993073,24
1766015854.993081,23
1766015854.993089,20
1766015854.993097,25
1766015854.993109,24
1766015854.9931169,24
1766015854.9931252,23
1766015854.993133,22
1766015854.993141,23
1766015854.993149,21
1766015854.9931571,22
1766015854.993165,20
1766015854.993173,25
1766015854.993181,23
1766015854.993189,26
1766015854.9931982,25
1766015854.993206,22
1766015854.993214,23
1766015854.993222,22
1766015854.99323,25
1766015854.993238,21
1766015854.9932458,22
1766015854.993254,22
1766015854.993262,24
1766015854.99327,25
1766015854.993278,22
1766015854.993286,23
1766015854.993294,23
1766015854.993302,22
1766015854.993311,22
1766015854.9933188,25
1766015854.9933271,23
1766015854.993335,22
1766015854.9933429,25
1766015854.993351,24
1766015854.993359,24
1766015854.99337,22
1766015854.993379,22
1766015854.993387,24
1766015854.9933949,21
1766015854.993403,25
1766015854.993411,21
1766015854.993419,22
1766015854.993428,20
1766015854.9934359,22
1766015854.9934442,22
1766015854.993452,22
1766015854.99346,25
1766015854.9934678,21
1766015854.9934762,20
1766015854.993484,23
1766015854.993492,25
1766015854.9935,20
1766015854.993508,22
1766015854.993516,24
1766015854.993524,25
1766015854.993532,27
1766015854.99354,26
1766015854.993548,22
1766015854.993556,26
1766015854.9935648,23
1766015854.9935732,23
1766015854.993581,24
1766015854.993589,24
1766015854.993597,22
1766015854.9936051,26
1766015854.993613,24
1766015854.993621,23
1766015854.993629,23
1766015854.993642,25
1766015854.99365,24
1766015854.993658,22
1766015854.993666,23
1766015854.993674,23
1766015854.993682,22
1766015854.99369,25
1766015854.9936981,24
1766015854.993706,23
1766015854.9937139,25
1766015854.993723,25
1766015854.993731,26
1766015854.993739,26
1766015854.993747,28
1766015854.9937549,22
1766015854.993763,23
1766015854.993771,24
1766015854.993779,22
1766015854.9937868,24
1766015854.9937952,23
1766015854.993803,28
1766015854.993811,26
1766015854.99382,25
1766015854.993828,26
1766015854.993836,24
1766015854.993844,26
1766015854.993852,25
1766015854.99386,23
1766015854.993868,26
1766015854.993877,26
1766015854.993885,28
1766015854.9938931,25
1766015854.993904,27
1766015854.9939132,24
1766015854.993921,23
1766015854.993928,24
1766015854.9939358,22
1766015854.993943,24
1766015854.99395,24
1766015854.993957,25
1766015854.993964,27
1766015854.993972,24
1766015854.993979,25
1766015854.9939861,24
1766015854.993993,28
1766015854.994001,24
1766015854.994008,29
1766015854.994015,29
1766015854.994022,25
1766015854.99403,28
1766015854.994037,30
1766015854.9940438,28
1766015854.9940522,26
1766015854.994059,27
1766015854.994066,23
1766015854.994074,23
1766015854.994081,25
1766015854.994089,28
1766015854.994096,27
1766015854.994103,30
1766015854.9941099,27
1766015854.994117,24
1766015854.9941251,23
1766015854.994132,25
1766015854.994139,23
1766015854.99415,24
1766015854.994157,22
1766015854.994164,23
1766015854.994171,29
1766015854.994178,28
1766015854.994185,26
1766015854.9941928,23
1766015854.9942,25
1766015854.994207,25
1766015854.994215,25
1766015854.9942222,25
1766015854.994229,27
1766015854.994237,26
1766015854.994244,24
1766015854.994251,24
1766015854.9942589,26
1766015854.994266,28
1766015854.994273,26
1766015854.9942799,26
1766015854.994289,26
1766015854.994296,24
1766015854.994304,27
1766015854.9943109,27
1766015854.994318,25
1766015854.994325,26
1766015854.9943318,29
1766015854.9943402,25
1766015854.994347,26
1766015854.994354,28
1766015854.9943612,29
1766015854.994368,28
1766015854.994375,25
1766015854.994385,27
1766015854.9943922,27
1766015854.9944,27
1766015854.994407,29
1766015854.994414,27
1766015854.994421,26
1766015854.994428,26
1766015854.994435,25
1766015854.994442,26
1766015854.9944499,26
1766015854.994457,29
1766015854.994464,25
1766015854.9944708,26
1766015854.9944792,29
1766015854.994486,25
1766015854.994493,26
1766015854.9945002,24
1766015854.994507,26
1766015854.994515,26
1766015854.994522,26
1766015854.994529,25
1766015854.9945369,26
1766015854.994544,25
1766015854.994551,24
1766015854.9945579,26
1766015854.994565,24
1766015854.994572,26
1766015854.99458,27
1766015854.994587,28
1766015854.994594,25
1766015854.994601,28
1766015854.9946082,28
1766015854.994616,26
1766015854.994626,25
1766015854.994633,25
1766015854.9946408,24
1766015854.994648,26
1766015854.994655,27
1766015854.9946618,26
1766015854.994669,24
1766015854.9946759,25
1766015854.994684,24
1766015854.9946911,27
1766015854.994698,24
1766015854.994706,26
1766015854.994713,27
1766015854.99472,23
1766015854.994727,25
1766015854.994734,23
1766015854.994742,27
1766015854.9947488,24
1766015854.994756,24
1766015854.994763,23
1766015854.9947698,22
1766015854.9947782,25
1766015854.994785,26
1766015854.994792,24
1766015854.9947991,27
1766015854.994806,28
1766015854.994814,25
1766015854.994821,26
1766015854.994828,25
1766015854.994835,28
1766015854.994842,26
1766015854.9948502,26
1766015854.994859,26
1766015854.9948668,25
1766015854.994874,23
1766015854.994881,25
1766015854.994889,23
1766015854.994896,26
1766015854.994903,26
1766015854.99491,27
1766015854.9949172,25
1766015854.994925,25
1766015854.994932,26
1766015854.9949389,25
1766015854.994947,24
1766015854.9949539,27
1766015854.9949608,28
1766015854.9949682,25
1766015854.994975,25
1766015854.994983,28
1766015854.99499,25
1766015854.994997,26
1766015854.995004,27
1766015854.995011,22
1766015854.995018,24
1766015854.9950259,25
1766015854.995033,26
1766015854.99504,23
1766015854.9950469,28
1766015854.9950552,23
1766015854.995062,28
1766015854.995069,23
1766015854.9950762,26
1766015854.995083,27
1766015854.99509,24
1766015854.995101,26
1766015854.9951081,28
1766015854.995115,25
1766015854.995122,28
1766015854.99513,25
1766015854.995137,24
1766015854.995144,23
1766015854.995151,28
1766015854.995158,23
1766015854.9951649,21
1766015854.9951732,25
1766015854.9951801,25
1766015854.995187,25
1766015854.9951942,25
1766015854.995201,27
1766015854.995209,26
1766015854.995216,25
1766015854.995224,26
1766015854.995231,22
1766015854.9952378,25
1766015854.995245,25
1766015854.995252,27
1766015854.99526,26
1766015854.9952672,23
1766015854.995274,25
1766015854.995281,26
1766015854.9952881,25
1766015854.995296,23
1766015854.995303,28
1766015854.99531,27
1766015854.995317,24
1766015854.995324,26
1766015854.995334,23
1766015854.995342,24
1766015854.995349,26
1766015854.9953558,24
1766015854.995363,23
1766015854.99537,25
1766015854.995378,26
1766015854.9953852,23
1766015854.995392,26
1766015854.995399,25
1766015854.9954062,23
1766015854.995413,24
1766015854.995421,28
1766015854.995428,26
1766015854.995435,27
1766015854.995442,25
1766015854.995449,25
1766015854.995456,26
1766015854.9954638,26
1766015854.995471,24
1766015854.995478,26
1766015854.9954848,25
1766015854.995492,27
1766015854.9955,23
1766015854.995507,27
1766015854.9955142,23
1766015854.995521,23
1766015854.995529,29
1766015854.9955359,26
1766015854.995543,23
1766015854.99555,27
1766015854.995557,23
1766015854.995564,24
1766015854.995574,24
1766015854.9955819,27
1766015854.995589,22
1766015854.995596,22
1766015854.995604,27
1766015854.9956129,25
1766015854.99562,26
1766015854.995628,25
1766015854.995635,27
1766015854.9956422,24
1766015854.99565,26
1766015854.995657,24
1766015854.995664,27
1766015854.995671,22
1766015854.995678,28
1766015854.9956858,27
1766015854.995693,23
1766015854.9957,26
1766015854.9957068,28
1766015854.995714,26
1766015854.9957209,27
1766015854.995729,23
1766015854.9957361,27
1766015854.995743,25
1766015854.99575,24
1766015854.995757,27
1766015854.995764,27
1766015854.995772,26
1766015854.995779,29
1766015854.995786,28
1766015854.9957929,28
1766015854.9958,30
1766015854.995809,29
1766015854.995817,27
1766015854.995824,29
1766015854.995831,29
1766015854.995838,26
1766015854.9958458,26
1766015854.995853,29
1766015854.9958599,29
1766015854.995868,28
1766015854.9958751,26
1766015854.995882,26
1766015854.995889,29
1766015854.995896,28
1766015854.995903,30
1766015854.995911,27
1766015854.995918,29
1766015854.995925,27
1766015854.9959328,31
1766015854.9959402,29
1766015854.9959471,28
1766015854.995954,28
1766015854.9959612,27
1766015854.995969,30
1766015854.995976,29
1766015854.9959831,29
1766015854.99599,32
1766015854.995998,26
1766015854.996005,29
1766015854.996012,29
1766015854.996019,29
1766015854.996027,29
1766015854.9960341,28
1766015854.996041,29
1766015854.9960582,28
1766015854.996066,28
1766015854.996073,28
1766015854.9960802,27
1766015854.996087,28
1766015854.996094,29
1766015854.9961011,30
1766015854.996109,29
1766015854.996116,28
1766015854.9961228,29
1766015854.99613,28
1766015854.996137,28
1766015854.996144,25
1766015854.996151,29
1766015854.996159,32
1766015854.996166,27
1766015854.9961731,29
1766015854.99618,29
1766015854.996187,27
1766015854.9961941,29
1766015854.996201,28
1766015854.9962082,28
1766015854.996216,30
1766015854.996223,25
1766015854.99623,28
1766015854.996237,28
1766015854.996244,28
1766015854.9962509,31
1766015854.996258,29
1766015854.996266,27
1766015854.9962728,27
1766015854.99628,31
1766015854.996289,29
1766015854.996297,28
1766015854.9963038,29
1766015854.9963121,32
1766015854.996319,30
1766015854.996326,26
1766015854.996334,28
1766015854.996342,31
1766015854.9963489,31
1766015854.996356,29
1766015854.996363,28
1766015854.9963698,31
1766015854.996377,30
1766015854.996384,28
1766015854.996392,28
1766015854.9963992,29
1766015854.996406,29
1766015854.996413,30
1766015854.9964201,28
1766015854.996427,31
1766015854.9964359,31
1766015854.9964428,32
1766015854.99645,30
1766015854.9964569,27
1766015854.996465,30
1766015854.9964721,30
1766015854.996479,28
1766015854.996486,29
1766015854.996493,28
1766015854.9965,30
1766015854.996507,26
1766015854.996514,29
1766015854.996522,28
1766015854.996532,30
1766015854.9965398,27
1766015854.996547,28
1766015854.996554,30
1766015854.9965608,28
1766015854.996568,31
1766015854.9965749,26
1766015854.9965818,27
1766015854.996589,29
1766015854.996597,28
1766015854.996604,29
1766015854.996611,26
1766015854.996618,30
1766015854.996625,27
1766015854.996632,28
1766015854.996639,30
1766015854.996647,29
1766015854.996654,30
1766015854.996661,27
1766015854.9966679,29
1766015854.996675,27
1766015854.996682,28
1766015854.9966888,28
1766015854.996696,27
1766015854.996703,29
1766015854.996711,28
1766015854.9967182,29
1766015854.996725,26
1766015854.996732,26
1766015854.99674,27
1766015854.996747,27
1766015854.996754,28
1766015854.996761,28
1766015854.996772,27
1766015854.996779,28
1766015854.9967859,29
1766015854.996793,29
1766015854.9968,28
1766015854.9968069,28
1766015854.9968152,27
1766015854.996822,29
1766015854.996829,26
1766015854.9968362,27
1766015854.996843,30
1766015854.99685,29
1766015854.9968572,29
1766015854.996865,28
1766015854.996872,28
1766015854.996879,31
1766015854.996886,27
1766015854.996893,29
1766015854.9969,30
1766015854.996908,28
1766015854.9969149,30
1766015854.996922,26
1766015854.996929,30
1766015854.9969358,32
1766015854.996943,29
1766015854.99695,28
1766015854.9969568,30
1766015854.996964,30
1766015854.996971,29
1766015854.996979,28
1766015854.9969862,30
1766015854.996993,29
1766015854.997002,25
1766015854.99701,30
1766015854.9970171,26
1766015854.997024,30
1766015854.997032,33
1766015854.997039,28
1766015854.997046,29
1766015854.997053,31
1766015854.99706,28
1766015854.997068,30
1766015854.9970748,27
1766015854.997082,29
1766015854.997089,28
1766015854.9970958,30
1766015854.9971032,28
1766015854.997111,27
1766015854.997118,31
1766015854.9971251,28
1766015854.997132,29
1766015854.997139,31
1766015854.9971461,29
1766015854.997153,28
1766015854.997161,29
1766015854.997168,30
1766015854.997175,30
1766015854.997182,28
1766015854.99719,29
1766015854.9971972,27
1766015854.997204,30
1766015854.997211,29
1766015854.997219,29
1766015854.997226,28
1766015854.997233,26
1766015854.9972422,32
1766015854.99725,30
1766015854.997257,30
1766015854.997264,28
1766015854.997271,30
1766015854.997279,30
1766015854.9972858,27
1766015854.997293,30
1766015854.9973,28
1766015854.9973068,29
1766015854.997314,26
1766015854.997321,28
1766015854.997329,27
1766015854.997337,27
1766015854.997344,28
1766015854.997351,29
1766015854.997358,28
1766015854.997366,29
1766015854.9973729,25
1766015854.99738,28
1766015854.997387,25
1766015854.9973938,27
1766015854.997401,26
1766015854.997409,30
1766015854.997416,28
1766015854.9974232,29
1766015854.99743,30
1766015854.997437,25
1766015854.9974442,24
1766015854.997452,28
1766015854.997459,26
1766015854.997466,29
1766015854.997473,29
1766015854.997483,25
1766015854.997491,28
1766015854.997498,28
1766015854.997505,26
1766015854.9975119,25
1766015854.997519,27
1766015854.997526,24
1766015854.997534,28
1766015854.9975412,27
1766015854.997548,29
1766015854.997555,27
1766015854.9975622,30
1766015854.997569,31
1766015854.997577,27
1766015854.9975839,32
1766015854.997591,30
1766015854.997598,30
1766015854.9976058,31
1766015854.997613,33
1766015854.9976199,31
1766015854.9976268,28
1766015854.997634,32
1766015854.9976408,29
1766015854.9976478,31
1766015854.997656,27
1766015854.997663,32
1766015854.99767,30
1766015854.997677,31
1766015854.997685,29
1766015854.9976919,32
1766015854.997699,29
1766015854.997706,31
1766015854.997715,28
1766015854.9977229,29
1766015854.99773,30
1766015854.997738,30
1766015854.9977448,32
1766015854.997752,30
1766015854.9977589,29
1766015854.997767,26
1766015854.9977741,28
1766015854.997781,30
1766015854.997788,29
1766015854.997796,29
1766015854.997803,30
1766015854.99781,28
1766015854.997817,28
1766015854.997825,30
1766015854.9978318,31
1766015854.9978392,29
1766015854.9978461,31
1766015854.997854,31
1766015854.9978611,27
1766015854.997868,32
1766015854.997876,27
1766015854.9978828,32
1766015854.99789,31
1766015854.997898,31
1766015854.9979048,29
1766015854.9979122,27
1766015854.997919,30
1766015854.997926,31
1766015854.9979331,30
1766015854.997941,29
1766015854.997948,31
1766015854.997958,30
1766015854.997966,27
1766015854.997973,29
1766015854.9979799,29
1766015854.997987,31
1766015854.997994,29
1766015854.9980018,32
1766015854.9980092,30
1766015854.998017,32
1766015854.998024,31
1766015854.9980311,31
1766015854.998038,29
1766015854.998045,29
1766015854.9980521,28
1766015854.99806,31
1766015854.998067,29
1766015854.998074,28
1766015854.998081,28
1766015854.998088,30
1766015854.998095,27
1766015854.9981031,30
1766015854.99811,33
1766015854.9981172,30
1766015854.9981241,33
1766015854.998131,32
1766015854.9981382,33
1766015854.998145,33
1766015854.998152,34
1766015854.99816,36
1766015854.998167,35
1766015854.998174,31
1766015854.998181,36
1766015854.9981902,32
1766015854.998199,33
1766015854.998206,35
1766015854.998213,34
1766015854.99822,32
1766015854.998227,32
1766015854.998235,35
1766015854.9982421,32
1766015854.998249,34
1766015854.9982562,34
1766015854.9982631,31
1766015854.99827,36
1766015854.9982772,34
1766015854.998285,34
1766015854.998292,38
1766015854.998299,38
1766015854.998306,33
1766015854.998313,38
1766015854.99832,41
1766015854.998327,40
1766015854.998335,37
1766015854.9983418,41
1766015854.998349,38
1766015854.9983559,40
1766015854.9983628,37
1766015854.99837,38
1766015854.9983768,39
1766015854.998385,43
1766015854.998392,42
1766015854.998399,40
1766015854.998406,41
1766015854.998413,43
1766015854.998421,44
1766015854.998431,41
1766015854.998438,42
1766015854.998445,39
1766015854.998452,44
1766015854.9984589,39
1766015854.998466,41
1766015854.998474,40
1766015854.9984808,40
1766015854.998488,37
1766015854.9984949,39
1766015854.9985018,39
1766015854.9985101,41
1766015854.998517,40
1766015854.998524,39
1766015854.998532,42
1766015854.998539,39
1766015854.9985468,44
1766015854.9985542,37
1766015854.998561,36
1766015854.9985678,40
1766015854.9985762,40
1766015854.998583,39
1766015854.99859,41
1766015854.9985971,40
1766015854.998605,41
1766015854.998612,40
1766015854.9986188,41
1766015854.9986272,41
1766015854.998634,39
1766015854.998641,39
1766015854.9986482,39
1766015854.998655,40
1766015854.998664,41
1766015854.9986718,42
1766015854.998679,41
1766015854.998687,39
1766015854.998694,41
1766015854.998701,43
1766015854.998709,39
1766015854.9987159,39
1766015854.998723,41
1766015854.99873,38
1766015854.9987378,41
1766015854.9987452,43
1766015854.998752,42
1766015854.9987588,43
1766015854.9987671,43
1766015854.998774,41
1766015854.998781,40
1766015854.998788,42
1766015854.998795,39
1766015854.998803,40
1766015854.99881,39
1766015854.998817,43
1766015854.998824,40
1766015854.998831,42
1766015854.9988391,42
1766015854.998846,48
1766015854.9988532,46
1766015854.9988601,43
1766015854.998867,44
1766015854.998875,48
1766015854.998882,47
1766015854.99889,48
1766015854.9988968,49
1766015854.9989078,49
1766015854.998915,45
1766015854.9989219,46
1766015854.9989288,49
1766015854.9989371,48
1766015854.998944,48
1766015854.998951,51
1766015854.998958,50
1766015854.998965,52
1766015854.998972,49
1766015854.99898,50
1766015854.998987,54
1766015854.9989939,56
1766015854.999001,52
1766015854.999008,55
1766015854.9990149,58
1766015854.9990232,55
1766015854.99903,58
1766015854.999052,55
1766015854.999061,59
1766015854.999069,55
1766015854.9990761,57
1766015854.999084,58
1766015854.999091,55
1766015854.99913,56
1766015854.9991412,55
1766015854.9991481,56
1766015854.999156,56
1766015854.999163,55
1766015854.999223,52
1766015854.9992309,55
1766015854.999239,54
1766015854.9992478,55
1766015854.9992561,54
1766015854.999264,56
1766015854.999271,57
1766015854.999278,58
1766015854.999285,60
1766015854.999292,62
1766015854.999299,61
1766015854.999306,59
1766015854.9993129,62
1766015854.999321,62
1766015854.999328,58
1766015854.9993348,60
1766015854.999342,62
1766015854.9993489,62
1766015854.9993558,61
1766015854.9993632,57
1766015854.99937,58
1766015854.999378,62
1766015854.999385,61
1766015854.999392,58
1766015854.999399,59
1766015854.999406,60
1766015854.999414,63
1766015854.99943,60
1766015854.999438,60
1766015854.999445,57
1766015854.9994519,61
1766015854.999459,61
1766015854.999467,58
1766015854.9994738,62
1766015854.9994822,56
1766015854.999489,59
1766015854.999498,61
1766015854.999506,62
1766015854.9995131,60
1766015854.999521,60
1766015854.999528,61
1766015854.999535,57
1766015854.999542,57
1766015854.999549,63
1766015854.999556,63
1766015854.999564,62
1766015854.9995708,59
1766015854.999578,60
1766015854.999585,61
1766015854.9995918,63
1766015854.9995992,61
1766015854.999607,62
1766015854.999614,62
1766015854.9996212,61
1766015854.999628,60
1766015854.999636,60
1766015854.9996428,60
1766015854.99965,62
1766015854.999657,62
1766015854.999664,61
1766015854.999671,66
1766015854.999679,61
1766015854.999686,62
1766015854.9996932,64
1766015854.999701,62
1766015854.999708,62
1766015854.999715,62
1766015854.999722,60
1766015854.9997299,62
1766015854.999739,60
1766015854.999747,58
1766015854.999754,61
1766015854.9997618,61
1766015854.999769,61
1766015854.999777,63
1766015854.999784,63
1766015854.9997911,59
1766015854.999799,61
1766015854.999806,61
1766015854.9998138,63
1766015854.999821,65
1766015854.9998279,62
1766015854.9998348,64
1766015854.9998422,62
1766015854.999848,58
1766015854.999855,63
1766015854.999861,63
1766015854.999868,63
1766015854.999875,60
1766015854.999881,62
1766015854.999888,63
1766015854.999895,59
1766015854.9999008,65
1766015854.9999082,63
1766015854.9999151,62
1766015854.9999208,61
1766015854.999928,61
1766015854.999935,61
1766015854.999941,64
1766015854.999948,60
1766015854.999954,61
1766015854.9999611,60
1766015854.99997,59
1766015854.9999769,59
1766015854.999984,59
1766015854.99999,58
1766015854.999997,60
1766015855.000004,57
1766015855.00001,62
1766015855.000017,58
1766015855.000024,60
1766015855.000031,62
1766015855.000038,59
1766015855.000044,62
1766015855.000051,57
1766015855.000057,59
1766015855.000064,60
1766015855.0000708,61
1766015855.000077,62
1766015855.000084,60
1766015855.0000908,60
1766015855.000097,60
1766015855.000104,58
1766015855.000111,61
1766015855.000117,59
1766015855.000124,60
1766015855.00013,56
1766015855.0001369,59
1766015855.000143,59
1766015855.00015,60
1766015855.0001569,63
1766015855.000163,58
1766015855.00017,58
1766015855.0001762,58
1766015855.000185,57
1766015855.000193,59
1766015855.0001988,58
1766015855.000206,58
1766015855.000212,59
1766015855.0002189,60
1766015855.000225,59
1766015855.000232,60
1766015855.0002382,58
1766015855.000245,60
1766015855.000252,63
1766015855.000258,57
1766015855.000265,55
1766015855.000271,55
1766015855.000278,56
1766015855.000284,58
1766015855.000291,55
1766015855.000298,58
1766015855.0003042,57
1766015855.0003111,57
1766015855.000318,58
1766015855.000324,55
1766015855.000331,56
1766015855.000337,59
1766015855.000344,57
1766015855.000351,60
1766015855.0003572,56
1766015855.000364,57
1766015855.00037,54
1766015855.0003772,57
1766015855.000384,58
1766015855.0003898,56
1766015855.000397,54
1766015855.000406,56
1766015855.000412,57
1766015855.0004191,55
1766015855.00047,54
1766015855.0004768,56
1766015855.000484,59
1766015855.000491,55
1766015855.0004969,56
1766015855.000504,55
1766015855.000511,57
1766015855.0005188,58
1766015855.0005262,55
1766015855.000532,57
1766015855.0005388,58
1766015855.000546,58
1766015855.000552,55
1766015855.000559,57
1766015855.000566,57
1766015855.000572,56
1766015855.000579,57
1766015855.000585,54
1766015855.0005918,57
1766015855.000598,54
1766015855.0006049,55
1766015855.000612,55
1766015855.000618,55
1766015855.000625,55
1766015855.000632,55
1766015855.000638,53
1766015855.0006452,53
1766015855.000652,55
1766015855.000659,54
1766015855.0006669,54
1766015855.000675,55
1766015855.000681,56
1766015855.000688,57
1766015855.000695,53
1766015855.000702,51
1766015855.000709,55
1766015855.000716,55
1766015855.000723,51
1766015855.000729,51
1766015855.000736,56
1766015855.000743,52
1766015855.00075,54
1766015855.000756,51
1766015855.000763,53
1766015855.00077,54
1766015855.000777,51
1766015855.0007832,54
1766015855.00079,53
1766015855.000797,52
1766015855.000803,53
1766015855.00081,52
1766015855.0008168,52
1766015855.000823,49
1766015855.00083,50
1766015855.000837,52
1766015855.000843,52
1766015855.00085,52
1766015855.000857,53
1766015855.000864,48
1766015855.00087,50
1766015855.0008771,52
1766015855.000884,53
1766015855.0008929,49
1766015855.0009,50
1766015855.000907,51
1766015855.0009139,51
1766015855.000921,48
1766015855.000927,48
1766015855.000934,49
1766015855.00094,50
1766015855.000947,47
1766015855.0009542,50
1766015855.00096,49
1766015855.000967,48
1766015855.0009742,50
1766015855.00098,50
1766015855.0009868,47
1766015855.000994,49
1766015855.001,48
1766015855.001007,49
1766015855.001014,50
1766015855.00102,50
1766015855.001027,44
1766015855.001034,47
1766015855.00104,46
1766015855.0010471,47
1766015855.001054,47
1766015855.00106,49
1766015855.001067,47
1766015855.0010738,47
1766015855.001081,45
1766015855.001087,48
1766015855.0010939,48
1766015855.001101,44
1766015855.001109,46
1766015855.001117,48
1766015855.0011232,48
1766015855.0011299,45
1766015855.001136,45
1766015855.001143,44
1766015855.00115,45
1766015855.001156,46
1766015855.001163,43
1766015855.00117,46
1766015855.001176,44
1766015855.001183,45
1766015855.0011892,44
1766015855.0011961,46
1766015855.001203,43
1766015855.0012102,44
1766015855.001216,46
1766015855.0012228,46
1766015855.00123,44
1766015855.001236,43
1766015855.0012429,44
1766015855.001249,43
1766015855.001256,42
1766015855.0012631,38
1766015855.001269,40
1766015855.001276,45
1766015855.0012832,41
1766015855.001289,40
1766015855.0012958,37
1766015855.001303,41
1766015855.001309,41
1766015855.001316,40
1766015855.001323,41
1766015855.0013309,38
1766015855.001338,39
1766015855.001345,43
1766015855.0013509,39
1766015855.001358,37
1766015855.001364,40
1766015855.001371,35
1766015855.001377,39
1766015855.001384,38
1766015855.0013912,40
1766015855.001397,39
1766015855.0014038,37
1766015855.001411,36
1766015855.0014179,40
1766015855.0014238,40
1766015855.001431,35
1766015855.001438,36
1766015855.001444,33
1766015855.001451,38
1766015855.001458,35
1766015855.0014641,34
1766015855.001471,34
1766015855.001478,37
1766015855.001484,36
1766015855.0014908,37
1766015855.0014982,36
1766015855.001504,32
1766015855.0015109,34
1766015855.001517,36
1766015855.001524,33
1766015855.001531,35
1766015855.001537,34
1766015855.001546,35
1766015855.0015528,34
1766015855.00156,35
1766015855.001566,33
1766015855.001573,37
1766015855.001579,35
1766015855.001586,31
1766015855.001593,36
1766015855.001599,31
1766015855.001606,32
1766015855.001612,30
1766015855.0016189,31
1766015855.001626,34
1766015855.001632,31
1766015855.001639,29
1766015855.001646,32
1766015855.001652,33
1766015855.001659,32
1766015855.001666,35
1766015855.001672,31
1766015855.0016792,31
1766015855.001686,30
1766015855.001693,29
1766015855.001699,30
1766015855.001706,31
1766015855.0017128,34
1766015855.001719,33
1766015855.001726,32
1766015855.001733,31
1766015855.00174,31
1766015855.001746,33
1766015855.001753,30
1766015855.00176,29
1766015855.0017679,31
1766015855.001775,29
1766015855.001782,31
1766015855.0017889,31
1766015855.001795,32
1766015855.001802,29
1766015855.001809,31
1766015855.001817,32
1766015855.001824,29
1766015855.0018308,28
1766015855.001838,31
1766015855.001844,28
1766015855.0018508,29
1766015855.001857,30
1766015855.001864,29
1766015855.001871,32
1766015855.001878,29
1766015855.001884,28
1766015855.0018911,28
1766015855.0018969,31
1766015855.001904,30
1766015855.001911,27
1766015855.0019178,26
1766015855.0019252,25
1766015855.0019321,29
1766015855.0019379,27
1766015855.001945,26
1766015855.001952,28
1766015855.0019588,29
1766015855.001965,27
1766015855.001972,31
1766015855.0019789,25
1766015855.001987,27
1766015855.001995,28
1766015855.002002,29
1766015855.002008,26
1766015855.0020149,27
1766015855.0020218,26
1766015855.002028,28
1766015855.002042,29
1766015855.002048,26
1766015855.002055,27
1766015855.002062,25
1766015855.002068,24
1766015855.002075,26
1766015855.002082,25
1766015855.002089,25
1766015855.0020962,27
1766015855.002103,25
1766015855.0021088,26
1766015855.0021162,25
1766015855.002123,26
1766015855.00213,28
1766015855.002136,25
1766015855.002143,24
1766015855.0021498,24
1766015855.002157,25
1766015855.002163,28
1766015855.00217,26
1766015855.002176,26
1766015855.002183,24
1766015855.00219,25
1766015855.002196,29
1766015855.002203,25
1766015855.002209,28
1766015855.00222,23
1766015855.0022268,24
1766015855.0022342,25
1766015855.0022411,26
1766015855.0022469,26
1766015855.002254,22
1766015855.002261,24
1766015855.002267,23
1766015855.002274,25
1766015855.002281,25
1766015855.0022871,24
1766015855.002294,24
1766015855.002301,27
1766015855.0023072,26
1766015855.002314,24
1766015855.002321,24
1766015855.002327,23
1766015855.0023339,26
1766015855.002341,26
1766015855.002347,26
1766015855.002354,26
1766015855.002361,25
1766015855.002368,22
1766015855.002374,22
1766015855.002381,23
1766015855.002388,24
1766015855.0023942,22
1766015855.002401,22
1766015855.0024068,22
1766015855.002414,22
1766015855.002421,22
1766015855.0024278,24
1766015855.002435,25
1766015855.002443,23
1766015855.002451,24
1766015855.0024571,22
1766015855.002464,25
1766015855.002471,26
1766015855.0024772,22
1766015855.002484,22
1766015855.002491,23
1766015855.002497,23
1766015855.0025039,22
1766015855.002511,23
1766015855.002517,26
1766015855.002524,22
1766015855.002531,26
1766015855.002537,26
1766015855.0025442,22
1766015855.002551,21
1766015855.002557,26
1766015855.0025642,26
1766015855.002571,20
1766015855.002578,24
1766015855.002584,24
1766015855.002591,23
1766015855.002597,27
1766015855.002604,22
1766015855.002611,20
1766015855.0026171,22
1766015855.002624,24
1766015855.00263,24
1766015855.0026371,21
1766015855.002644,23
1766015855.002651,23
1766015855.002657,20
1766015855.002666,23
1766015855.002673,24
1766015855.00268,22
1766015855.002687,20
1766015855.0026932,25
1766015855.0027,25
1766015855.002707,23
1766015855.0027132,25
1766015855.00272,20
1766015855.0027268,21
1766015855.002733,23
1766015855.00274,23
1766015855.0027468,23
1766015855.002754,22
1766015855.002761,23
1766015855.002767,21
1766015855.002774,22
1766015855.002781,23
1766015855.002787,22
1766015855.002794,21
1766015855.002801,24
1766015855.002808,24
1766015855.002814,24
1766015855.0028212,22
1766015855.0028281,22
1766015855.0028338,25
1766015855.002841,22
1766015855.002848,23
1766015855.0028539,24
1766015855.002861,20
1766015855.002868,22
1766015855.0028741,23
1766015855.002881,24
1766015855.0028899,23
1766015855.002898,22
1766015855.0029051,22
1766015855.002911,26
1766015855.002918,21
1766015855.0029252,23
1766015855.0029309,18
1766015855.002938,22
1766015855.002945,25
1766015855.002951,22
1766015855.002958,22
1766015855.002965,21
1766015855.002971,21
1766015855.002978,25
1766015855.002985,23
1766015855.0029922,21
1766015855.003,23
1766015855.003007,24
1766015855.0030138,22
1766015855.003021,22
1766015855.003028,21
1766015855.003039,21
1766015855.0030458,21
1766015855.003053,22
1766015855.003059,23
1766015855.003066,20
1766015855.003073,20
1766015855.00308,21
1766015855.003087,19
1766015855.003094,21
1766015855.0031,25
1766015855.003107,23
1766015855.003114,24
1766015855.0031219,22
1766015855.0031302,19
1766015855.003137,25
1766015855.0031428,22
1766015855.00315,23
1766015855.003157,22
1766015855.0031638,20
1766015855.003171,23
1766015855.003177,23
1766015855.003184,25
1766015855.00319,23
1766015855.003197,22
1766015855.003204,24
1766015855.003211,22
1766015855.003217,22
1766015855.0032241,24
1766015855.003231,21
1766015855.003237,21
1766015855.003244,22
1766015855.0032508,24
1766015855.0032582,22
1766015855.0033028,23
1766015855.00331,24
1766015855.003316,23
1766015855.0033228,23
1766015855.00333,21
1766015855.003336,26
1766015855.003343,22
1766015855.00335,23
1766015855.003357,23
1766015855.0033631,20
1766015855.00337,21
1766015855.003377,24
1766015855.003386,21
1766015855.003393,21
1766015855.0033998,24
1766015855.003406,24
1766015855.003413,22
1766015855.0034199,24
1766015855.003426,26
1766015855.003433,21
1766015855.0034401,22
1766015855.003446,22
1766015855.003453,21
1766015855.003459,23
1766015855.003466,20
1766015855.0034728,25
1766015855.003484,23
1766015855.00349,23
1766015855.003497,25
1766015855.003504,24
1766015855.00351,24
1766015855.003517,25
1766015855.003523,22
1766015855.00353,23
1766015855.003537,23
1766015855.0035431,22
1766015855.00355,25
1766015855.003556,24
1766015855.003563,22
1766015855.0035698,21
1766015855.003576,22
1766015855.003583,22
1766015855.0035899,21
1766015855.003596,23
1766015855.003603,23
1766015855.0036108,25
1766015855.003619,22
1766015855.003625,24
1766015855.003632,22
1766015855.003638,23
1766015855.003645,22
1766015855.003652,24
1766015855.003658,24
1766015855.003665,22
1766015855.003676,24
1766015855.003683,19
1766015855.003689,25
1766015855.0036962,26
1766015855.003702,23
1766015855.0037088,23
1766015855.003716,26
1766015855.003722,26
1766015855.003728,24
1766015855.003735,25
1766015855.003742,25
1766015855.0037482,27
1766015855.003755,24
1766015855.0037608,27
1766015855.003768,27
1766015855.003774,27
1766015855.003781,26
1766015855.003788,24
1766015855.003794,25
1766015855.003801,26
1766015855.003808,28
1766015855.003814,26
1766015855.00382,26
1766015855.0038242,29
1766015855.00383,28
1766015855.003834,26
1766015855.003839,30
1766015855.003844,26
1766015855.0038478,25
1766015855.0038521,25
1766015855.003856,27
1766015855.003861,26
1766015855.003865,27
1766015855.0038688,27
1766015855.003874,29
1766015855.0038779,26
1766015855.003882,24
1766015855.0038872,26
1766015855.003891,26
1766015855.003895,26
1766015855.0038998,26
1766015855.003904,26
1766015855.0039082,26
1766015855.003913,28
1766015855.003917,28
1766015855.0039208,27
1766015855.003926,28
1766015855.00393,26
1766015855.003934,27
1766015855.0039392,27
1766015855.003943,27
1766015855.003947,27
1766015855.003952,27
1766015855.003956,28
1766015855.0039601,28
1766015855.003965,27
1766015855.003969,25
1766015855.003973,28
1766015855.003978,29
1766015855.003982,25
1766015855.003986,28
1766015855.0039911,27
1766015855.003995,27
1766015855.003999,30
1766015855.004003,25
1766015855.004008,29
1766015855.004012,26
1766015855.0040162,24
1766015855.00402,27
1766015855.004025,28
1766015855.004029,24
1766015855.004033,26
1766015855.0040379,27
1766015855.004042,28
1766015855.004046,29
1766015855.004051,28
1766015855.004055,27
1766015855.0040588,29
1766015855.004064,27
1766015855.004069,28
1766015855.004073,29
1766015855.004077,29
1766015855.004081,26
1766015855.004086,27
1766015855.00409,29
1766015855.004094,28
1766015855.0040991,30
1766015855.004103,25
1766015855.004108,31
1766015855.0041118,27
1766015855.004116,29
1766015855.00412,28
1766015855.0041249,32
1766015855.004129,30
1766015855.0041332,27
1766015855.004137,31
1766015855.004142,29
1766015855.0041459,31
1766015855.00415,30
1766015855.0041542,27
1766015855.004159,29
1766015855.004163,26
1766015855.0041668,32
1766015855.004172,27
1766015855.004176,31
1766015855.00418,31
1766015855.0041852,27
1766015855.004189,29
1766015855.004193,31
1766015855.0041978,32
1766015855.004202,30
1766015855.0042062,34
1766015855.004211,30
1766015855.004215,29
1766015855.0042188,31
1766015855.004224,30
1766015855.004228,31
1766015855.004232,30
1766015855.004236,30
1766015855.004241,31
1766015855.004245,29
1766015855.004249,32
1766015855.0042539,33
1766015855.0042582,30
1766015855.004262,29
1766015855.004266,29
1766015855.004271,32
1766015855.0042748,32
1766015855.004283,31
1766015855.004288,28
1766015855.004292,28
1766015855.0042958,28
1766015855.004301,30
1766015855.004305,31
1766015855.004309,34
1766015855.004313,30
1766015855.004318,28
1766015855.004322,30
1766015855.0043259,30
1766015855.004331,34
1766015855.0043352,32
1766015855.004339,31
1766015855.004344,33
1766015855.0043478,31
1766015855.004352,33
1766015855.0043561,33
1766015855.004361,32
1766015855.004365,31
1766015855.0043688,32
1766015855.004374,29
1766015855.004378,32
1766015855.004382,31
1766015855.0043871,30
1766015855.004391,32
1766015855.004395,33
1766015855.004399,33
1766015855.004404,34
1766015855.0044081,33
1766015855.004412,34
1766015855.004416,33
1766015855.0044212,33
1766015855.004425,33
1766015855.004429,32
1766015855.004433,35
1766015855.004438,33
1766015855.0044422,31
1766015855.004446,33
1766015855.004451,31
1766015855.0044549,34
1766015855.004459,31
1766015855.0044641,32
1766015855.004468,33
1766015855.004472,30
1766015855.004477,35
1766015855.004481,36
1766015855.0044851,31
1766015855.00449,33
1766015855.0044942,35
1766015855.004498,34
1766015855.004502,33
1766015855.0045068,32
1766015855.0045109,31
1766015855.0045152,31
1766015855.00452,34
1766015855.004524,35
1766015855.004528,34
1766015855.0045319,33
1766015855.004537,34
1766015855.004541,33
1766015855.004545,34
1766015855.00455,34
1766015855.004554,33
1766015855.004558,33
1766015855.0045629,31
1766015855.0045671,34
1766015855.004571,32
1766015855.004576,31
1766015855.00458,32
1766015855.0045838,33
1766015855.0045881,32
1766015855.004596,31
1766015855.0046,29
1766015855.0046039,32
1766015855.004608,33
1766015855.0046132,31
1766015855.004617,33
1766015855.004621,31
1766015855.004626,31
1766015855.00463,34
1766015855.0046341,34
1766015855.004639,31
1766015855.004643,32
1766015855.004647,33
1766015855.004652,31
1766015855.004656,27
1766015855.00466,30
1766015855.0046642,32
1766015855.004669,31
1766015855.004673,30
1766015855.004677,29
1766015855.004682,32
1766015855.004686,31
1766015855.00469,31
1766015855.004694,29
1766015855.004699,30
1766015855.004703,28
1766015855.004707,27
1766015855.0047119,31
1766015855.004716,34
1766015855.0047202,35
1766015855.004724,29
1766015855.004729,32
1766015855.004736,30
1766015855.00474,32
1766015855.004744,33
1766015855.004749,31
1766015855.0047529,30
1766015855.004757,34
1766015855.004761,32
1766015855.004766,31
1766015855.00477,31
1766015855.0047739,30
1766015855.004779,32
1766015855.0047832,32
1766015855.004787,30
1766015855.004791,31
1766015855.0047958,32
1766015855.0048,34
1766015855.0048041,33
1766015855.004809,32
1766015855.004813,31
1766015855.004817,33
1766015855.004822,30
1766015855.004826,35
1766015855.00483,34
1766015855.004834,33
1766015855.004839,34
1766015855.004843,33
1766015855.004847,33
1766015855.004852,35
1766015855.004856,34
1766015855.00486,37
1766015855.004865,34
1766015855.0048692,35
1766015855.004873,33
1766015855.004878,31
1766015855.0048819,36
1766015855.004886,35
1766015855.004891,35
1766015855.004895,36
1766015855.004899,34
1766015855.0049028,33
1766015855.004908,35
1766015855.0049121,35
1766015855.004916,33
1766015855.0049212,37
1766015855.004925,35
1766015855.004929,33
1766015855.004933,34
1766015855.004938,34
1766015855.0050828,36
1766015855.006092,34
1766015855.007086,33
1766015855.008089,33
1766015855.009095,30
1766015855.010089,34
1766015855.011085,34
1766015855.012086,35
1766015855.013089,32
1766015855.014124,36
1766015855.015126,34
1766015855.0161269,33
1766015855.017159,31
1766015855.018102,33
1766015855.019113,34
1766015855.020138,35
1766015855.021152,36
1766015855.022142,37
1766015855.023154,31
1766015855.024134,35
1766015855.025152,33
1766015855.026092,35
1766015855.02717,31
1766015855.028168,34
1766015855.029162,35
1766015855.030161,33
1766015855.031174,31
1766015855.032161,34
1766015855.033191,36
1766015855.0341609,33
1766015855.0351942,33
1766015855.03618,31
1766015855.037175,34
1766015855.0381598,37
1766015855.039181,31
1766015855.0401652,34
1766015855.041184,32
1766015855.0421708,33
1766015855.043203,34
1766015855.044208,33
1766015855.0452201,32
1766015855.0462122,36
1766015855.047183,34
1766015855.048225,32
1766015855.0491898,36
1766015855.050206,33
1766015855.051203,35
1766015855.052247,36
1766015855.053182,33
1766015855.0542378,35
1766015855.055209,37
1766015855.056235,34
1766015855.057276,37
1766015855.058261,37
1766015855.0592508,38
1766015855.060236,38
1766015855.061292,36
1766015855.062279,38
1766015855.0632808,37
1766015855.0642638,37
1766015855.06527,33
1766015855.066299,37
1766015855.067286,36
1766015855.0682938,38
1766015855.069281,35
1766015855.0702982,38
1766015855.0713081,36
1766015855.072295,37
1766015855.073299,37
1766015855.074263,36
1766015855.075326,33
1766015855.076291,35
1766015855.077307,37
1766015855.07833,35
1766015855.07932,38
1766015855.080311,37
1766015855.081314,38
1766015855.082314,36
1766015855.0833228,38
1766015855.084316,39
1766015855.085321,38
1766015855.0863209,37
1766015855.087347,38
1766015855.0883431,39
1766015855.08935,39
1766015855.0903418,38
1766015855.0913432,42
1766015855.092352,40
1766015855.0933518,39
1766015855.0943491,36
1766015855.095346,38
1766015855.0963688,40
1766015855.097364,37
1766015855.098356,36
1766015855.099336,38
1766015855.100381,38
1766015855.101366,37
1766015855.102381,40
1766015855.103376,38
1766015855.104382,38
1766015855.10539,38
1766015855.106391,36
1766015855.1073909,35
1766015855.108404,36
1766015855.109405,36
1766015855.1103868,35
1766015855.111398,41
1766015855.112409,37
1766015855.113467,39
1766015855.114414,40
1766015855.115407,40
1766015855.116374,39
1766015855.11741,42
1766015855.118412,41
1766015855.119414,40
1766015855.1204019,41
1766015855.121388,38
1766015855.1223838,40
1766015855.1233869,40
1766015855.1243908,40
1766015855.1254332,42
1766015855.12644,42
1766015855.1274061,42
1766015855.128455,40
1766015855.1294599,44
1766015855.1304462,41
1766015855.131417,41
1766015855.132447,43
1766015855.133466,39
1766015855.1344268,42
1766015855.1354592,40
1766015855.1364648,37
1766015855.137439,39
1766015855.138453,41
1766015855.139466,38
1766015855.140466,37
1766015855.141454,38
1766015855.142455,43
1766015855.143494,43
1766015855.144471,40
1766015855.145513,39
1766015855.1464489,40
1766015855.147496,44
1766015855.148462,41
1766015855.149479,42
1766015855.1505148,43
1766015855.1515179,42
1766015855.15252,44
1766015855.1535318,42
1766015855.154513,43
1766015855.155516,41
1766015855.156516,41
1766015855.157492,43
1766015855.158535,41
1766015855.159543,43
1766015855.160545,41
1766015855.161552,39
1766015855.162536,42
1766015855.1635451,41
1766015855.164547,43
1766015855.1655529,42
1766015855.16656,39
1766015855.167565,40
1766015855.168567,39
1766015855.169568,44
1766015855.1705558,40
1766015855.171574,41
1766015855.1725938,43
1766015855.173585,41
1766015855.174596,40
1766015855.175584,40
1766015855.1766,42
1766015855.1776268,41
1766015855.178663,40
1766015855.179615,40
1766015855.180606,39
1766015855.181658,37
1766015855.182608,40
1766015855.1836002,36
1766015855.184602,38
1766015855.1856158,37
1766015855.1866071,41
1766015855.187636,39
1766015855.188607,43
1766015855.189621,40
1766015855.19063,43
1766015855.191635,40
1766015855.192632,42
1766015855.193611,40
1766015855.194644,41
1766015855.195637,45
1766015855.196636,44
1766015855.197633,40
1766015855.1986392,42
1766015855.1996381,37
1766015855.20063,41
1766015855.201632,42
1766015855.2026298,39
1766015855.203626,43
1766015855.2046468,44
1766015855.205676,44
1766015855.20667,45
1766015855.20768,41
1766015855.2086668,44
1766015855.2096581,43
1766015855.2106712,42
1766015855.211752,45
1766015855.212666,47
1766015855.213699,47
1766015855.214679,45
1766015855.2156658,44
1766015855.2166772,45
1766015855.217684,45
1766015855.2186859,45
1766015855.21969,45
1766015855.2206988,46
1766015855.221719,47
1766015855.222705,47
1766015855.223701,43
1766015855.224689,45
1766015855.225695,45
1766015855.226702,46
1766015855.227713,44
1766015855.2287202,43
1766015855.229721,44
1766015855.230727,46
1766015855.231733,43
1766015855.232713,46
1766015855.2337332,46
1766015855.2347221,46
1766015855.235731,43
1766015855.236736,44
1766015855.2377331,47
1766015855.238728,45
1766015855.239756,47
1766015855.240757,44
1766015855.2417269,45
1766015855.2427661,45
1766015855.243768,44
1766015855.244811,41
1766015855.245784,42
1766015855.246819,43
1766015855.247788,42
1766015855.248781,41
1766015855.249751,45
1766015855.250774,43
1766015855.251782,43
1766015855.2527602,42
1766015855.2537851,42
1766015855.254807,43
1766015855.2557828,42
1766015855.256806,42
1766015855.257796,45
1766015855.258794,42
1766015855.259788,42
1766015855.2607949,42
1766015855.261819,45
1766015855.2628028,43
1766015855.263815,42
1766015855.2648199,45
1766015855.265815,43
1766015855.266818,41
1766015855.2678258,46
1766015855.268828,43
1766015855.269832,43
1766015855.270825,45
1766015855.27184,46
1766015855.2728379,41
1766015855.2738261,47
1766015855.2748291,43
1766015855.275834,41
1766015855.276832,45
1766015855.277838,42
1766015855.2788491,45
1766015855.27986,44
1766015855.2808452,48
1766015855.2818549,49
1766015855.282868,51
1766015855.28386,52
1766015855.2848792,53
1766015855.2858722,56
1766015855.286874,59
1766015855.287887,64
1766015855.288882,65
1766015855.289886,66
1766015855.290896,69
1766015855.291897,67
1766015855.292892,69
1766015855.293895,69
1766015855.29491,71
1766015855.295891,74
1766015855.296913,72
1766015855.297905,73
1766015855.298902,74
1766015855.299916,76
1766015855.300909,79
1766015855.301916,73
1766015855.3029099,77
1766015855.303914,79
1766015855.304928,80
1766015855.305917,86
1766015855.306914,87
1766015855.307963,88
1766015855.310996,89
1766015855.311004,90
1766015855.311009,89
1766015855.3126762,88
1766015855.312955,90
1766015855.313956,85
1766015855.3150349,87
1766015855.316014,88
1766015855.317324,90
1766015855.317973,95
1766015855.318966,98
1766015855.319979,97
1766015855.320967,98
1766015855.321968,98
1766015855.322985,98
1766015855.3239949,95
1766015855.3249679,95
1766015855.325977,97
1766015855.326984,96
1766015855.328107,98
1766015855.329011,95
1766015855.330004,96
1766015855.331083,96
1766015855.331989,93
1766015855.333007,94
1766015855.3340852,92
1766015855.335094,91
1766015855.336121,90
1766015855.337031,91
1766015855.3381162,91
1766015855.339135,93
1766015855.3401139,94
1766015855.341116,98
1766015855.343012,106
1766015855.343255,107
1766015855.3441741,111
1766015855.34516,116
1766015855.3461928,117
1766015855.347169,115
1766015855.348164,115
1766015855.3491478,113
1766015855.3501508,115
1766015855.351134,113
1766015855.35214,114
1766015855.353142,113
1766015855.354145,111
1766015855.355144,113
1766015855.3561401,110
1766015855.357173,112
1766015855.358151,110
1766015855.359168,111
1766015855.360173,113
1766015855.361183,116
1766015855.362176,124
1766015855.363183,134
1766015855.364181,139
1766015855.365171,147
1766015855.3661718,146
1766015855.3672068,148
1766015855.368198,147
1766015855.369193,146
1766015855.370194,150
1766015855.371192,151
1766015855.372194,152
1766015855.3732202,151
1766015855.3742,154
1766015855.375201,149
1766015855.3761978,152
1766015855.377236,154
1766015855.378217,151
1766015855.3792179,151
1766015855.380251,154
1766015855.381264,156
1766015855.382231,154
1766015855.383224,155
1766015855.384246,154
1766015855.3852491,157
1766015855.386261,167
1766015855.3872461,185
1766015855.388267,210
1766015855.389281,231
1766015855.390285,237
1766015855.3912792,240
1766015855.39229,243
1766015855.3932958,248
1766015855.394281,254
1766015855.3952682,257
1766015855.396275,257
1766015855.397269,256
1766015855.398256,251
1766015855.399286,248
1766015855.400297,248
1766015855.401282,247
1766015855.402346,248
1766015855.40332,240
1766015855.404351,240
1766015855.4052951,238
1766015855.406306,233
1766015855.407317,233
1766015855.40832,232
1766015855.4093251,229
1766015855.410312,229
1766015855.411306,227
1766015855.412315,227
1766015855.4132988,227
1766015855.414342,223
1766015855.415348,224
1766015855.416331,226
1766015855.417347,226
1766015855.418345,224
1766015855.41936,222
1766015855.4203389,223
1766015855.4214048,226
1766015855.422345,225
1766015855.423348,226
1766015855.424404,226
1766015855.425387,224
1766015855.426373,222
1766015855.427351,218
1766015855.428389,217
1766015855.429421,220
1766015855.430424,224
1766015855.431437,230
1766015855.432357,238
1766015855.433376,238
1766015855.4343839,237
1766015855.4353862,232
1766015855.436382,231
1766015855.437418,226
1766015855.438398,227
1766015855.43941,225
1766015855.440395,223
1766015855.441385,218
1766015855.442396,218
1766015855.4434009,216
1766015855.4444742,215
1766015855.445432,214
1766015855.446403,213
1766015855.447437,212
1766015855.448415,209
1766015855.449436,205
1766015855.4504251,206
1766015855.451434,204
1766015855.452406,199
1766015855.453419,197
1766015855.454429,196
1766015855.455437,192
1766015855.456427,193
1766015855.457442,199
1766015855.458457,204
1766015855.459436,208
1766015855.460449,211
1766015855.461473,209
1766015855.46245,208
1766015855.463458,204
1766015855.464464,201
1766015855.465475,203
1766015855.46648,199
1766015855.467476,198
1766015855.468482,195
1766015855.469486,192
1766015855.4704762,192
1766015855.471473,191
1766015855.472487,190
1766015855.473491,196
1766015855.474477,201
1766015855.4754791,208
1766015855.476498,211
1766015855.477487,212
1766015855.478496,212
1766015855.4794822,208
1766015855.48049,208
1766015855.481488,206
1766015855.482489,203
1766015855.483485,203
1766015855.484511,203
1766015855.485556,200
1766015855.4865558,199
1766015855.487574,199
1766015855.488545,197
1766015855.4895308,196
1766015855.4905338,193
1766015855.491541,192
1766015855.492552,188
1766015855.493523,185
1766015855.4967759,183
1766015855.496793,179
1766015855.496806,183
1766015855.4975848,182
1766015855.498799,187
1766015855.499574,189
1766015855.5007691,190
1766015855.501856,190
1766015855.502733,190
1766015855.503755,189
1766015855.505885,185
1766015855.5059001,186
1766015855.508738,184
1766015855.5087528,180
1766015855.508767,178
1766015855.509593,177
1766015855.5106099,175
1766015855.512,172
1766015855.5146182,171
1766015855.514633,167
1766015855.514646,169
1766015855.5164568,164
1766015855.516711,163
1766015855.517947,161
1766015855.518621,159
1766015855.519617,158
1766015855.5206342,159
1766015855.521604,156
1766015855.522645,162
1766015855.5236669,161
1766015855.524638,161
1766015855.525652,167
1766015855.5266612,168
1766015855.527636,167
1766015855.52865,167
1766015855.5296352,162
1766015855.5306308,161
1766015855.5316632,164
1766015855.53266,160
1766015855.5336692,160
1766015855.534676,156
1766015855.535719,155
1766015855.5366578,151
1766015855.5376651,150
1766015855.538677,151
1766015855.539671,148
1766015855.540653,146
1766015855.5416949,148
1766015855.542707,144
1766015855.5436711,141
1766015855.5447419,143
1766015855.545685,142
1766015855.5467079,146
1766015855.5477068,144
1766015855.548723,145
1766015855.549702,151
1766015855.5507112,151
1766015855.551717,151
1766015855.552717,151
1766015855.553725,149
1766015855.554728,147
1766015855.55575,147
1766015855.556731,151
1766015855.5577312,148
1766015855.558731,149
1766015855.559756,150
1766015855.560748,156
1766015855.56194,166
1766015855.562753,178
1766015855.563746,185
1766015855.5647418,185
1766015855.565769,187
1766015855.5667572,190
1766015855.567748,186
1766015855.568748,188
1766015855.5697742,184
1766015855.570775,187
1766015855.571763,187
1766015855.572779,184
1766015855.573771,183
1766015855.574788,181
1766015855.575774,178
1766015855.576781,177
1766015855.5777888,179
1766015855.578808,176
1766015855.579811,174
1766015855.5808132,171
1766015855.58182,169
1766015855.582805,167
1766015855.583828,167
1766015855.584817,163
1766015855.585823,162
1766015855.586841,159
1766015855.587839,159
1766015855.588824,158
1766015855.589834,156
1766015855.590813,154
1766015855.5918238,148
1766015855.592824,147
1766015855.593835,146
1766015855.5948422,147
1766015855.595832,144
1766015855.596837,142
1766015855.597835,138
1766015855.598861,137
1766015855.59987,138
1766015855.6008608,134
1766015855.601866,132
1766015855.602866,132
1766015855.603879,129
1766015855.6048992,127
1766015855.605898,129
1766015855.606879,125
1766015855.607889,128
1766015855.6088982,121
1766015855.609896,124
1766015855.610893,123
1766015855.611923,120
1766015855.6129122,117
1766015855.613924,120
1766015855.61492,127
1766015855.61593,133
1766015855.616912,140
1766015855.6179242,150
1766015855.618927,149
1766015855.619922,150
1766015855.620933,152
1766015855.621939,152
1766015855.6229372,156
1766015855.6239161,158
1766015855.624918,158
1766015855.625939,159
1766015855.626954,159
1766015855.627925,160
1766015855.6289558,159
1766015855.629944,157
1766015855.6309729,157
1766015855.631953,154
1766015855.632951,153
1766015855.6339781,157
1766015855.634986,157
1766015855.635968,157
1766015855.6369689,155
1766015855.63797,152
1766015855.638995,151
1766015855.63997,151
1766015855.640993,148
1766015855.6420019,148
1766015855.643002,146
1766015855.644068,143
1766015855.6450748,145
1766015855.646074,143
1766015855.647081,141
1766015855.6480918,140
1766015855.6491032,139
1766015855.6500769,136
1766015855.65109,134
1766015855.652143,133
1766015855.653107,130
1766015855.654101,128
1766015855.6550882,129
1766015855.656074,127
1766015855.6570728,123
1766015855.658068,124
1766015855.6590898,122
1766015855.660091,120
1766015855.661076,116
1766015855.662077,117
1766015855.663074,115
1766015855.6640892,116
1766015855.6650822,117
1766015855.66607,112
1766015855.66709,113
1766015855.66809,113
1766015855.66908,111
1766015855.67008,108
1766015855.671077,110
1766015855.6720798,106
1766015855.673096,105
1766015855.674102,106
1766015855.6750898,105
1766015855.676109,103
1766015855.677108,104
1766015855.678093,103
1766015855.6790988,102
1766015855.6800718,99
1766015855.681108,98
1766015855.6820679,98
1766015855.6830971,97
1766015855.684129,95
1766015855.6851041,94
1766015855.6860852,93
1766015855.687079,93
1766015855.6880739,94
1766015855.689118,98
1766015855.690217,106
1766015855.69121,110
1766015855.692169,114
1766015855.6931672,121
1766015855.694156,119
1766015855.6951559,122
1766015855.6961532,123
1766015855.697152,117
1766015855.6981661,119
1766015855.699177,117
1766015855.7001479,115
1766015855.701184,117
1766015855.702192,113
1766015855.7031932,116
1766015855.704166,117
1766015855.705198,119
1766015855.706209,115
1766015855.7071848,116
1766015855.708184,118
1766015855.7092009,120
1766015855.710201,121
1766015855.711186,119
1766015855.7121909,120
1766015855.71321,117
1766015855.7142138,118
1766015855.7152221,116
1766015855.7162309,121
1766015855.7172532,125
1766015855.718255,131
1766015855.719233,136
1766015855.7202802,134
1766015855.7213519,137
1766015855.722257,136
1766015855.7232409,137
1766015855.7243168,139
1766015855.7252731,138
1766015855.726273,132
1766015855.727283,131
1766015855.728283,133
1766015855.729281,131
1766015855.730259,130
1766015855.731277,127
1766015855.7322628,127
1766015855.733258,126
1766015855.734277,125
1766015855.735287,126
1766015855.736275,119
1766015855.737262,121
1766015855.738282,118
1766015855.739276,117
1766015855.740282,118
1766015855.741292,115
1766015855.742313,112
1766015855.743298,115
1766015855.7443042,113
1766015855.745333,111
1766015855.746342,112
1766015855.747405,110
1766015855.748357,112
1766015855.749351,115
1766015855.7503638,114
1766015855.751327,121
1766015855.752337,125
1766015855.753323,124
1766015855.754328,128
1766015855.755319,130
1766015855.7563388,129
1766015855.75733,132
1766015855.758337,135
1766015855.7593348,133
1766015855.7603369,134
1766015855.7613409,134
1766015855.762341,131
1766015855.7633438,135
1766015855.764373,132
1766015855.765353,134
1766015855.766366,130
1766015855.767348,131
1766015855.768359,128
1766015855.769362,127
1766015855.7703621,126
1766015855.7713962,125
1766015855.7724109,125
1766015855.77343,119
1766015855.774401,121
1766015855.77539,118
1766015855.776396,117
1766015855.777453,117
1766015855.7784479,116
1766015855.779444,116
1766015855.780458,115
1766015855.7814379,114
1766015855.7824671,113
1766015855.783455,110
1766015855.784456,111
1766015855.785455,109
1766015855.78645,110
1766015855.787423,110
1766015855.7884622,108
1766015855.789516,109
1766015855.7904692,107
1766015855.791442,110
1766015855.792469,108
1766015855.793538,110
1766015855.794464,110
1766015855.795522,115
1766015855.796493,112
1766015855.7975092,115
1766015855.798486,117
1766015855.799475,119
1766015855.800524,121
1766015855.801517,120
1766015855.802458,121
1766015855.803497,123
1766015855.804519,122
1766015855.8054678,123
1766015855.806519,121
1766015855.807498,125
1766015855.808533,128
1766015855.8095691,123
1766015855.810527,123
1766015855.811542,119
1766015855.812534,123
1766015855.8135521,120
1766015855.814548,121
1766015855.8155808,122
1766015855.8165262,122
1766015855.817516,119
1766015855.8185139,120
1766015855.8195782,117
1766015855.820601,116
1766015855.821532,116
1766015855.8225951,117
1766015855.8235478,115
1766015855.824575,116
1766015855.825536,114
1766015855.826585,114
1766015855.82755,113
1766015855.828533,111
1766015855.8295639,112
1766015855.8305779,106
1766015855.83158,110
1766015855.83257,112
1766015855.8336158,116
1766015855.834624,113
1766015855.8356,111
1766015855.836593,109
1766015855.8375921,113
1766015855.838612,109
1766015855.839584,113
1766015855.840617,110
1766015855.841629,108
1766015855.842634,110
1766015855.843634,107
1766015855.8446348,108
1766015855.845626,106
1766015855.8466299,104
1766015855.847645,104
1766015855.848643,102
1766015855.849646,103
1766015855.8505669,99
1766015855.851653,103
1766015855.8526561,101
1766015855.8536608,105
1766015855.854669,103
1766015855.855662,101
1766015855.856608,102
1766015855.8576262,102
1766015855.85871,103
1766015855.859673,101
1766015855.860675,101
1766015855.8615859,98
1766015855.862595,99
1766015855.8635972,97
1766015855.8646069,92
1766015855.8655858,97
1766015855.866591,96
1766015855.8676171,96
1766015855.868598,93
1766015855.8695931,93
1766015855.8705988,93
1766015855.8716102,92
1766015855.872606,92
1766015855.873634,93
1766015855.874658,91
1766015855.875615,92
1766015855.876622,95
1766015855.877623,92
1766015855.878656,94
1766015855.8796532,92
1766015855.880648,91
1766015855.8816488,94
1766015855.8826308,93
1766015855.8836548,91
1766015855.884635,93
1766015855.8856618,93
1766015855.8866718,91
1766015855.887664,93
1766015855.888662,94
1766015855.889656,94
1766015855.890667,91
1766015855.891687,96
1766015855.892681,93
1766015855.893655,95
1766015855.89468,93
1766015855.895699,90
1766015855.8966799,91
1766015855.897656,96
1766015855.898682,97
1766015855.8998,101
1766015855.9006999,99
1766015855.901748,100
1766015855.902795,101
1766015855.903821,100
1766015855.904709,97
1766015855.905683,94
1766015855.906708,97
1766015855.907686,95
1766015855.9087071,94
1766015855.909688,95
1766015855.9107342,91
1766015855.9117272,92
1766015855.9127219,95
1766015855.913697,95
1766015855.914738,92
1766015855.9157279,92
1766015855.916727,96
1766015855.917772,91
1766015855.918761,98
1766015855.919752,97
1766015855.920776,98
1766015855.9217558,97
1766015855.92276,99
1766015855.923765,98
1766015855.924761,95
1766015855.92577,99
1766015855.9267688,99
1766015855.927756,96
1766015855.928807,94
1766015855.929787,96
1766015855.9307961,95
1766015855.931799,95
1766015855.932776,92
1766015855.9338071,93
1766015855.934805,93
1766015855.935814,95
1766015855.93683,94
1766015855.937818,93
1766015855.9388149,91
1766015855.939805,94
1766015855.94079,93
1766015855.9418209,93
1766015855.942824,91
1766015855.943829,95
1766015855.944813,97
1766015855.945822,95
1766015855.946826,96
1766015855.947822,97
1766015855.948822,94
1766015855.9498339,95
1766015855.950837,94
1766015855.95184,95
1766015855.952846,98
1766015855.953842,99
1766015855.954845,93
1766015855.955859,97
1766015855.9568799,94
1766015855.957869,94
