timestamp,emg_value
1766015825.9692411,77
1766015825.969256,75
1766015825.969268,77
1766015825.969279,76
1766015825.969289,78
1766015825.9693,76
1766015825.969311,75
1766015825.969321,76
1766015825.969331,75
1766015825.969342,76
1766015825.969352,77
1766015825.969362,74
1766015825.9693718,77
1766015825.9693818,73
1766015825.969393,72
1766015825.9694028,73
1766015825.969413,76
1766015825.969425,72
1766015825.969435,71
1766015825.969447,69
1766015825.9694579,69
1766015825.9694679,72
1766015825.9694788,70
1766015825.9694889,69
1766015825.9694989,67
1766015825.9695091,68
1766015825.9695208,70
1766015825.9695308,69
1766015825.969544,70
1766015825.969555,69
1766015825.969565,71
1766015825.969577,74
1766015825.9696052,74
1766015825.969617,75
1766015825.969627,79
1766015825.9696372,78
1766015825.9696472,79
1766015825.9696572,80
1766015825.969667,77
1766015825.969677,81
1766015825.969687,79
1766015825.9696991,81
1766015825.96971,82
1766015825.969721,80
1766015825.9697301,76
1766015825.96974,79
1766015825.9697568,78
1766015825.969769,77
1766015825.969781,77
1766015825.969791,78
1766015825.969801,74
1766015825.969811,76
1766015825.969821,77
1766015825.969832,72
1766015825.969842,72
1766015825.969852,75
1766015825.969862,73
1766015825.9698718,70
1766015825.969882,70
1766015825.969892,74
1766015825.969901,72
1766015825.969911,73
1766015825.96992,72
1766015825.96993,72
1766015825.969941,67
1766015825.9699578,70
1766015825.9699688,67
1766015825.9699788,72
1766015825.969988,69
1766015825.9699981,67
1766015825.970007,66
1766015825.970017,63
1766015825.970027,69
1766015825.970038,71
1766015825.970048,73
1766015825.970058,77
1766015825.970068,73
1766015825.970081,76
1766015825.970091,75
1766015825.9701,76
1766015825.970111,74
1766015825.970121,72
1766015825.97013,73
1766015825.97014,76
1766015825.970149,73
1766015825.970159,76
1766015825.970169,74
1766015825.970179,78
1766015825.9701881,75
1766015825.970198,74
1766015825.970208,73
1766015825.970217,70
1766015825.970227,71
1766015825.970238,70
1766015825.970248,74
1766015825.970258,75
1766015825.9702668,74
1766015825.970281,75
1766015825.970293,79
1766015825.970303,73
1766015825.970313,75
1766015825.9703228,70
1766015825.970335,69
1766015825.970347,71
1766015825.970359,71
1766015825.970371,73
1766015825.9703832,72
1766015825.9703941,79
1766015825.970405,78
1766015825.970455,79
1766015825.970468,77
1766015825.970481,83
1766015825.9704928,78
1766015825.970509,78
1766015825.970527,80
1766015825.97054,81
1766015825.970554,78
1766015825.970569,77
1766015825.970581,77
1766015825.970594,77
1766015825.970607,78
1766015825.97062,79
1766015825.970633,82
1766015825.970646,79
1766015825.970659,77
1766015825.9706728,77
1766015825.970686,77
1766015825.970699,75
1766015825.970712,76
1766015825.97073,74
1766015825.970746,76
1766015825.970759,72
1766015825.970772,74
1766015825.970787,76
1766015825.9708002,71
1766015825.970813,74
1766015825.970826,72
1766015825.970839,70
1766015825.9708521,71
1766015825.970864,70
1766015825.970877,69
1766015825.97089,68
1766015825.9709032,67
1766015825.970916,74
1766015825.970929,73
1766015825.970942,78
1766015825.970957,86
1766015825.9709702,81
1766015825.970983,82
1766015825.970996,83
1766015825.97101,84
1766015825.971023,84
1766015825.971036,83
1766015825.971049,84
1766015825.971062,87
1766015825.971076,81
1766015825.971089,84
1766015825.971102,80
1766015825.971115,85
1766015825.9711292,85
1766015825.9711418,83
1766015825.971155,85
1766015825.971172,88
1766015825.971185,87
1766015825.9711978,86
1766015825.971211,86
1766015825.971225,88
1766015825.971238,88
1766015825.971251,88
1766015825.971264,86
1766015825.971277,90
1766015825.97129,92
1766015825.971303,93
1766015825.971317,92
1766015825.9713368,94
1766015825.971353,94
1766015825.971367,92
1766015825.97138,94
1766015825.971393,92
1766015825.971406,91
1766015825.9714189,87
1766015825.971432,91
1766015825.9714508,89
1766015825.9714649,87
1766015825.971478,86
1766015825.971492,86
1766015825.9715042,85
1766015825.971518,86
1766015825.971531,82
1766015825.971544,82
1766015825.9715588,84
1766015825.971572,83
1766015825.971627,83
1766015825.971643,82
1766015825.971657,79
1766015825.971699,82
1766015825.971714,80
1766015825.9717278,79
1766015825.971742,79
1766015825.971755,81
1766015825.9717681,82
1766015825.971783,76
1766015825.971796,76
1766015825.971809,81
1766015825.971822,87
1766015825.971877,88
1766015825.9719,84
1766015825.971914,83
1766015825.971927,84
1766015825.97194,85
1766015825.9719539,86
1766015825.971967,87
1766015825.971981,86
1766015825.9719942,85
1766015825.9720068,85
1766015825.97202,83
1766015825.972034,82
1766015825.972047,84
1766015825.97206,82
1766015825.972073,84
1766015825.972086,83
1766015825.9721,79
1766015825.972113,83
1766015825.972126,80
1766015825.972196,81
1766015825.972214,81
1766015825.972229,80
1766015825.9723158,78
1766015825.972345,82
1766015825.972359,77
1766015825.972387,81
1766015825.9724422,81
1766015825.972461,84
1766015825.972476,79
1766015825.97249,78
1766015825.972503,82
1766015825.972516,78
1766015825.97253,79
1766015825.972543,82
1766015825.972557,77
1766015825.9725702,79
1766015825.9725828,74
1766015825.972596,75
1766015825.972609,75
1766015825.9726222,75
1766015825.9726348,75
1766015825.972648,73
1766015825.972661,70
1766015825.9726741,73
1766015825.972687,72
1766015825.9726999,73
1766015825.972713,74
1766015825.972726,74
1766015825.972739,75
1766015825.9727519,73
1766015825.972765,73
1766015825.972779,72
1766015825.9727921,74
1766015825.972804,74
1766015825.972821,75
1766015825.972835,75
1766015825.972847,76
1766015825.9728599,70
1766015825.972873,73
1766015825.972886,73
1766015825.972899,70
1766015825.972912,71
1766015825.972926,75
1766015825.972938,73
1766015825.9729521,73
1766015825.972965,75
1766015825.9729779,72
1766015825.972991,76
1766015825.973004,77
1766015825.973017,76
1766015825.9730299,75
1766015825.973043,75
1766015825.973056,74
1766015825.973069,74
1766015825.973082,74
1766015825.973095,73
1766015825.973108,71
1766015825.973121,72
1766015825.973134,73
1766015825.973147,71
1766015825.97316,71
1766015825.973173,72
1766015825.973186,68
1766015825.9731991,69
1766015825.973212,71
1766015825.9732249,70
1766015825.973239,68
1766015825.973275,71
1766015825.973291,70
1766015825.973305,68
1766015825.9733188,67
1766015825.973332,67
1766015825.973355,65
1766015825.973383,69
1766015825.973397,66
1766015825.9734101,71
1766015825.973423,74
1766015825.9734368,76
1766015825.97345,78
1766015825.973463,76
1766015825.9734762,77
1766015825.9734888,75
1766015825.973502,76
1766015825.973515,75
1766015825.9735308,75
1766015825.973544,74
1766015825.973557,74
1766015825.97357,71
1766015825.9735832,71
1766015825.9735959,74
1766015825.973609,71
1766015825.973622,69
1766015825.973635,74
1766015825.9736478,72
1766015825.973662,71
1766015825.973675,71
1766015825.9736881,68
1766015825.9737012,73
1766015825.9737139,67
1766015825.973731,70
1766015825.9737442,69
1766015825.973757,70
1766015825.97377,71
1766015825.973783,71
1766015825.9737961,71
1766015825.973809,72
1766015825.9738219,76
1766015825.973835,73
1766015825.973849,76
1766015825.973863,77
1766015825.973876,73
1766015825.973889,76
1766015825.973902,76
1766015825.9739149,78
1766015825.973928,77
1766015825.973941,78
1766015825.973954,80
1766015825.973967,79
1766015825.97398,75
1766015825.973993,79
1766015825.974006,72
1766015825.974019,77
1766015825.974032,76
1766015825.974045,76
1766015825.974058,73
1766015825.974072,76
1766015825.974085,77
1766015825.9740999,80
1766015825.974114,84
1766015825.974127,86
1766015825.974141,90
1766015825.9741561,87
1766015825.9741702,89
1766015825.9741828,93
1766015825.974197,95
1766015825.974217,96
1766015825.974259,99
1766015825.974277,94
1766015825.9742908,98
1766015825.974305,96
1766015825.974318,94
1766015825.974331,92
1766015825.974345,91
1766015825.974358,97
1766015825.974371,95
1766015825.9743848,91
1766015825.974398,92
1766015825.974411,95
1766015825.9744241,91
1766015825.9744372,91
1766015825.9744499,87
1766015825.974463,86
1766015825.974476,86
1766015825.974489,86
1766015825.9745018,82
1766015825.974515,86
1766015825.974528,82
1766015825.9745421,85
1766015825.9745548,83
1766015825.974568,82
1766015825.974581,84
1766015825.974594,80
1766015825.974607,77
1766015825.9746199,79
1766015825.974637,77
1766015825.9746501,79
1766015825.974663,73
1766015825.974676,75
1766015825.974689,77
1766015825.9747021,73
1766015825.974716,75
1766015825.974729,73
1766015825.974742,77
1766015825.974755,75
1766015825.9747682,72
1766015825.974781,73
1766015825.974796,71
1766015825.9748101,71
1766015825.974823,74
1766015825.9748359,74
1766015825.974849,74
1766015825.9748638,76
1766015825.9748769,80
1766015825.97489,82
1766015825.974903,84
1766015825.974916,85
1766015825.9749298,87
1766015825.974943,83
1766015825.974955,83
1766015825.974968,85
1766015825.974981,81
1766015825.974995,78
1766015825.975008,81
1766015825.97502,82
1766015825.975034,81
1766015825.9750469,82
1766015825.97506,79
1766015825.9750998,78
1766015825.975115,78
1766015825.9751291,78
1766015825.975142,80
1766015825.9751549,80
1766015825.975169,85
1766015825.975182,87
1766015825.975195,86
1766015825.975209,85
1766015825.975222,86
1766015825.975235,82
1766015825.9752479,85
1766015825.975261,85
1766015825.975275,84
1766015825.9752882,88
1766015825.975301,89
1766015825.975314,88
1766015825.975329,87
1766015825.975342,89
1766015825.975355,88
1766015825.975368,83
1766015825.975382,84
1766015825.975395,84
1766015825.975408,86
1766015825.975421,85
1766015825.975434,83
1766015825.975447,86
1766015825.97546,83
1766015825.9754739,80
1766015825.975488,82
1766015825.975501,80
1766015825.975515,80
1766015825.975532,82
1766015825.9755461,80
1766015825.975559,78
1766015825.975574,77
1766015825.9755871,79
1766015825.975601,79
1766015825.975614,76
1766015825.975627,76
1766015825.97564,76
1766015825.9756532,76
1766015825.9756658,75
1766015825.975679,75
1766015825.975693,75
1766015825.975708,72
1766015825.975721,69
1766015825.975734,70
1766015825.975747,70
1766015825.975761,69
1766015825.975774,71
1766015825.975787,70
1766015825.9758,68
1766015825.9758132,69
1766015825.975826,69
1766015825.975841,70
1766015825.9758542,68
1766015825.9758668,70
1766015825.97588,72
1766015825.975893,67
1766015825.9759061,67
1766015825.975919,69
1766015825.975932,68
1766015825.975946,65
1766015825.975959,66
1766015825.9759748,67
1766015825.975988,69
1766015825.976001,68
1766015825.9760141,68
1766015825.976028,66
1766015825.976041,64
1766015825.976054,66
1766015825.976067,65
1766015825.97608,64
1766015825.9760928,65
1766015825.976106,65
1766015825.976119,64
1766015825.9761338,63
1766015825.976148,65
1766015825.976161,69
1766015825.976174,66
1766015825.976188,68
1766015825.976201,71
1766015825.976214,73
1766015825.976227,74
1766015825.9762409,72
1766015825.976254,73
1766015825.976267,70
1766015825.9762812,77
1766015825.9762938,79
1766015825.9763079,79
1766015825.976321,81
1766015825.976334,76
1766015825.976347,75
1766015825.9764018,75
1766015825.976419,79
1766015825.9764328,77
1766015825.976465,74
1766015825.976522,74
1766015825.976539,75
1766015825.976552,74
1766015825.976566,73
1766015825.9765792,74
1766015825.976614,73
1766015825.976629,73
1766015825.9766579,70
1766015825.976671,71
1766015825.976684,68
1766015825.9766982,68
1766015825.9767108,73
1766015825.976724,71
1766015825.976737,72
1766015825.976751,67
1766015825.976764,71
1766015825.976778,68
1766015825.9767911,67
1766015825.976804,67
1766015825.976831,65
1766015825.976851,64
1766015825.976865,67
1766015825.9768782,67
1766015825.976892,63
1766015825.9769049,69
1766015825.976919,69
1766015825.976932,71
1766015825.9769459,66
1766015825.976959,64
1766015825.976972,67
1766015825.9769862,69
1766015825.9769988,71
1766015825.977015,69
1766015825.9770281,68
1766015825.977041,69
1766015825.977055,72
1766015825.977068,68
1766015825.977081,66
1766015825.977095,67
1766015825.977108,69
1766015825.977121,68
1766015825.977134,65
1766015825.9771478,63
1766015825.977162,64
1766015825.977175,65
1766015825.977188,64
1766015825.977201,67
1766015825.9772139,68
1766015825.977227,72
1766015825.97724,76
1766015825.9772532,75
1766015825.977267,77
1766015825.97728,79
1766015825.977293,81
1766015825.9773061,82
1766015825.977319,81
1766015825.977333,84
1766015825.977346,85
1766015825.9773598,84
1766015825.977373,84
1766015825.977387,81
1766015825.9774,82
1766015825.977414,81
1766015825.977427,83
1766015825.977442,82
1766015825.977456,80
1766015825.977469,81
1766015825.977482,79
1766015825.9774961,75
1766015825.977509,79
1766015825.9775229,75
1766015825.977536,76
1766015825.977549,73
1766015825.9775648,76
1766015825.977578,75
1766015825.977592,69
1766015825.977605,71
1766015825.977618,71
1766015825.977631,71
1766015825.9776452,70
1766015825.977658,70
1766015825.9776719,71
1766015825.977685,71
1766015825.977699,70
1766015825.9777122,70
1766015825.977725,71
1766015825.977739,71
1766015825.977752,66
1766015825.977765,68
1766015825.977778,68
1766015825.977791,66
1766015825.977804,67
1766015825.977817,66
1766015825.97783,64
1766015825.977844,68
1766015825.977857,69
1766015825.97787,68
1766015825.977887,67
1766015825.9779,62
1766015825.977914,64
1766015825.977927,63
1766015825.97794,62
1766015825.977953,65
1766015825.977966,63
1766015825.977979,62
1766015825.9779918,61
1766015825.978005,61
1766015825.978019,61
1766015825.978032,62
1766015825.978045,61
1766015825.978058,62
1766015825.9780722,63
1766015825.978085,59
1766015825.978098,63
1766015825.978111,63
1766015825.9781241,63
1766015825.978137,61
1766015825.97815,61
1766015825.9781609,59
1766015825.978173,59
1766015825.978184,63
1766015825.978195,62
1766015825.9782069,60
1766015825.978218,58
1766015825.97823,59
1766015825.978241,57
1766015825.9782531,56
1766015825.978265,58
1766015825.978276,57
1766015825.978289,59
1766015825.9783008,61
1766015825.978312,61
1766015825.978324,57
1766015825.978335,57
1766015825.978347,57
1766015825.978358,57
1766015825.97837,60
1766015825.9783812,57
1766015825.978393,58
1766015825.978404,53
1766015825.9784162,54
1766015825.978427,55
1766015825.978438,56
1766015825.9784498,52
1766015825.978462,54
1766015825.978473,55
1766015825.978485,53
1766015825.978497,54
1766015825.978509,52
1766015825.9785202,52
1766015825.9785311,50
1766015825.978543,50
1766015825.978554,51
1766015825.9785678,49
1766015825.978579,48
1766015825.978591,49
1766015825.978602,51
1766015825.978614,51
1766015825.978625,49
1766015825.978637,48
1766015825.978648,48
1766015825.97866,49
1766015825.978673,48
1766015825.978685,48
1766015825.978697,48
1766015825.978708,48
1766015825.978719,50
1766015825.978731,47
1766015825.9787421,46
1766015825.978754,45
1766015825.978765,42
1766015825.9787772,46
1766015825.9787881,46
1766015825.9788,47
1766015825.9788108,45
1766015825.978822,47
1766015825.978834,44
1766015825.978845,43
1766015825.9788558,46
1766015825.978868,45
1766015825.978879,45
1766015825.978891,48
1766015825.978902,43
1766015825.978914,43
1766015825.978925,42
1766015825.978936,44
1766015825.978948,46
1766015825.978959,45
1766015825.9789708,42
1766015825.978982,42
1766015825.978993,45
1766015825.9790049,44
1766015825.9790158,43
1766015825.979027,44
1766015825.979039,47
1766015825.979053,43
1766015825.979064,46
1766015825.979075,44
1766015825.979087,45
1766015825.979098,45
1766015825.97911,44
1766015825.979121,48
1766015825.979133,44
1766015825.979145,44
1766015825.979157,44
1766015825.979168,44
1766015825.979179,44
1766015825.979191,41
1766015825.979202,44
1766015825.979213,44
1766015825.9792252,46
1766015825.9792361,43
1766015825.979247,43
1766015825.9792619,45
1766015825.9792728,42
1766015825.979284,42
1766015825.979299,45
1766015825.979311,44
1766015825.979323,42
1766015825.9793339,38
1766015825.979346,39
1766015825.979357,40
1766015825.979369,41
1766015825.97938,40
1766015825.9793909,41
1766015825.979403,43
1766015825.979414,43
1766015825.979427,41
1766015825.979439,39
1766015825.9794502,38
1766015825.979462,43
1766015825.9794729,38
1766015825.979485,42
1766015825.979496,41
1766015825.979508,42
1766015825.97952,42
1766015825.979531,38
1766015825.979542,40
1766015825.979554,37
1766015825.9795651,40
1766015825.979576,37
1766015825.9795892,40
1766015825.9796,41
1766015825.9796119,37
1766015825.9796228,38
1766015825.979635,39
1766015825.979646,38
1766015825.979657,36
1766015825.979669,42
1766015825.97968,39
1766015825.979692,35
1766015825.9797041,35
1766015825.979715,40
1766015825.979726,38
1766015825.979738,37
1766015825.9797492,38
1766015825.979761,37
1766015825.9797719,36
1766015825.9797828,41
1766015825.979795,36
1766015825.9798431,34
1766015825.979857,39
1766015825.979869,38
1766015825.979881,39
1766015825.979892,39
1766015825.979904,34
1766015825.979916,39
1766015825.979927,38
1766015825.979939,36
1766015825.9799502,39
1766015825.9799612,35
1766015825.9799721,35
1766015825.9799838,36
1766015825.9799948,38
1766015825.980006,36
1766015825.980018,39
1766015825.9800289,36
1766015825.9800398,38
1766015825.980052,37
1766015825.980063,38
1766015825.980074,37
1766015825.980086,34
1766015825.980097,35
1766015825.980109,38
1766015825.9801202,35
1766015825.9801311,36
1766015825.980142,37
1766015825.980154,39
1766015825.980165,37
1766015825.980176,37
1766015825.980188,37
1766015825.9801989,38
1766015825.980213,37
1766015825.980225,36
1766015825.980236,40
1766015825.980248,37
1766015825.9802592,36
1766015825.9802701,38
1766015825.980281,35
1766015825.980293,37
1766015825.9803038,37
1766015825.980315,36
1766015825.980326,35
1766015825.9803379,34
1766015825.9803488,37
1766015825.98036,34
1766015825.9803789,37
1766015825.980391,37
1766015825.980402,37
1766015825.980413,37
1766015825.980424,35
1766015825.980436,34
1766015825.980447,40
1766015825.980458,40
1766015825.98047,38
1766015825.980481,36
1766015825.980493,36
1766015825.980504,36
1766015825.9805162,37
1766015825.9805272,37
1766015825.9805381,35
1766015825.9805498,36
1766015825.9805608,37
1766015825.980573,37
1766015825.980584,32
1766015825.980597,35
1766015825.980609,38
1766015825.9806201,35
1766015825.980631,38
1766015825.980642,37
1766015825.980653,36
1766015825.9806652,37
1766015825.9806762,37
1766015825.9806871,38
1766015825.980698,34
1766015825.9807098,37
1766015825.980721,37
1766015825.980732,37
1766015825.980744,37
1766015825.9807549,35
1766015825.980766,37
1766015825.9807801,36
1766015825.980792,36
1766015825.980803,36
1766015825.980814,32
1766015825.9808252,38
1766015825.9808362,37
1766015825.980848,38
1766015825.9808588,36
1766015825.9808698,41
1766015825.980881,39
1766015825.980893,41
1766015825.9809039,43
1766015825.9809148,44
1766015825.980927,42
1766015825.980938,41
1766015825.980949,43
1766015825.98098,43
1766015825.981002,40
1766015825.981014,45
1766015825.981026,42
1766015825.9810371,46
1766015825.981049,43
1766015825.9810612,41
1766015825.981072,46
1766015825.981083,43
1766015825.9810948,43
1766015825.9811058,45
1766015825.981117,43
1766015825.981129,40
1766015825.98114,43
1766015825.981152,41
1766015825.981163,44
1766015825.981175,42
1766015825.9811862,43
1766015825.981197,42
1766015825.981209,38
1766015825.98122,40
1766015825.9812322,43
1766015825.981243,44
1766015825.9812548,43
1766015825.981266,46
1766015825.981277,45
1766015825.981289,45
1766015825.9812999,44
1766015825.981311,45
1766015825.981322,44
1766015825.981334,47
1766015825.981345,44
1766015825.9813561,43
1766015825.981386,46
1766015825.981398,43
1766015825.981409,41
1766015825.981421,43
1766015825.9814332,41
1766015825.981445,41
1766015825.9814558,44
1766015825.9814668,44
1766015825.981478,41
1766015825.98149,42
1766015825.9815009,44
1766015825.981513,41
1766015825.981524,43
1766015825.981536,43
1766015825.981547,41
1766015825.981559,39
1766015825.98157,39
1766015825.9815822,44
1766015825.9815931,43
1766015825.981604,39
1766015825.981615,41
1766015825.981627,40
1766015825.981639,42
1766015825.9816499,43
1766015825.9816608,40
1766015825.981672,38
1766015825.981684,41
1766015825.981695,39
1766015825.981706,39
1766015825.981718,42
1766015825.981729,43
1766015825.981741,41
1766015825.981754,43
1766015825.981765,39
1766015825.981777,38
1766015825.981788,40
1766015825.981799,42
1766015825.981811,43
1766015825.981822,40
1766015825.981833,42
1766015825.981845,44
1766015825.981856,40
1766015825.981867,39
1766015825.981879,42
1766015825.98189,40
1766015825.9819012,44
1766015825.9819121,43
1766015825.981924,40
1766015825.981935,41
1766015825.9819462,39
1766015825.981958,39
1766015825.9819689,39
1766015825.9819798,42
1766015825.981992,45
1766015825.982003,41
1766015825.982015,38
1766015825.982026,42
1766015825.982038,40
1766015825.982049,39
1766015825.98206,38
1766015825.982073,40
1766015825.9820852,42
1766015825.982095,43
1766015825.9821079,43
1766015825.982118,41
1766015825.982132,38
1766015825.982143,40
1766015825.982153,41
1766015825.982163,40
1766015825.982173,44
1766015825.982183,45
1766015825.982193,42
1766015825.9822028,43
1766015825.982213,43
1766015825.982223,42
1766015825.982233,39
1766015825.982243,41
1766015825.982253,42
1766015825.982264,43
1766015825.982274,40
1766015825.982284,43
1766015825.982294,45
1766015825.982304,39
1766015825.9823139,42
1766015825.982324,41
1766015825.982334,44
1766015825.982344,43
1766015825.9823549,41
1766015825.982371,41
1766015825.9824069,42
1766015825.982419,42
1766015825.98243,41
1766015825.98244,37
1766015825.98245,41
1766015825.982461,40
1766015825.982471,41
1766015825.982481,47
1766015825.9824939,43
1766015825.9825048,46
1766015825.9825149,42
1766015825.982526,45
1766015825.9825358,46
1766015825.9825459,47
1766015825.9825559,50
1766015825.9825659,48
1766015825.9825761,48
1766015825.9825861,46
1766015825.982597,47
1766015825.9826071,45
1766015825.9826171,46
1766015825.9826272,45
1766015825.9826372,46
1766015825.982647,44
1766015825.982657,47
1766015825.982668,48
1766015825.982678,47
1766015825.982688,47
1766015825.982698,51
1766015825.982708,47
1766015825.982718,50
1766015825.982728,47
1766015825.982738,49
1766015825.9827478,45
1766015825.9827578,47
1766015825.982769,47
1766015825.9827788,50
1766015825.982789,52
1766015825.982799,55
1766015825.982809,56
1766015825.982819,54
1766015825.9828322,55
1766015825.9828422,53
1766015825.982852,56
1766015825.982862,53
1766015825.982872,54
1766015825.982883,58
1766015825.982893,56
1766015825.982903,58
1766015825.982913,59
1766015825.982923,55
1766015825.982933,58
1766015825.982943,56
1766015825.982953,55
1766015825.9829628,57
1766015825.982974,56
1766015825.9829838,56
1766015825.9829938,54
1766015825.9830039,56
1766015825.9830139,55
1766015825.9830241,56
1766015825.9830341,55
1766015825.9830441,59
1766015825.9830542,60
1766015825.9830642,56
1766015825.9830751,57
1766015825.9830852,57
1766015825.983095,55
1766015825.983105,59
1766015825.983115,59
1766015825.983125,62
1766015825.983136,62
1766015825.983146,61
1766015825.983157,62
1766015825.983168,64
1766015825.983178,61
1766015825.983188,63
1766015825.983198,61
1766015825.983208,66
1766015825.983219,65
1766015825.983229,65
1766015825.983239,65
1766015825.983249,66
1766015825.983259,69
1766015825.9832692,71
1766015825.9832802,71
1766015825.9832902,73
1766015825.9833002,71
1766015825.98331,73
1766015825.9833212,72
1766015825.983331,69
1766015825.983341,74
1766015825.983351,72
1766015825.983361,72
1766015825.983371,75
1766015825.983381,75
1766015825.983391,77
1766015825.983402,76
1766015825.983412,76
1766015825.983422,76
1766015825.983432,75
1766015825.9834418,73
1766015825.983455,73
1766015825.983465,76
1766015825.983475,75
1766015825.983486,72
1766015825.983498,71
1766015825.9835079,75
1766015825.983518,74
1766015825.983528,72
1766015825.983538,71
1766015825.9835489,70
1766015825.983559,68
1766015825.983569,69
1766015825.983579,70
1766015825.9835892,71
1766015825.9835992,69
1766015825.9836092,72
1766015825.983619,73
1766015825.9836302,74
1766015825.983639,73
1766015825.98365,73
1766015825.98366,73
1766015825.98367,74
1766015825.98368,72
1766015825.98369,73
1766015825.9837,71
1766015825.983711,75
1766015825.983721,74
1766015825.983731,75
1766015825.983741,77
1766015825.9837508,76
1766015825.9837608,76
1766015825.9837718,76
1766015825.983781,74
1766015825.983792,76
1766015825.983802,78
1766015825.983812,75
1766015825.983822,75
1766015825.983834,80
1766015825.983844,78
1766015825.983854,75
1766015825.983864,78
1766015825.983874,78
1766015825.983884,85
1766015825.983895,83
1766015825.983905,80
1766015825.983915,78
1766015825.983925,81
1766015825.9839349,81
1766015825.983945,80
1766015825.9839559,81
1766015825.9839659,79
1766015825.983976,78
1766015825.983986,78
1766015825.983996,77
1766015825.984006,76
1766015825.98402,81
1766015825.984031,76
1766015825.984093,78
1766015825.984155,80
1766015825.984169,77
1766015825.984183,82
1766015825.9841962,82
1766015825.9842088,85
1766015825.984222,86
1766015825.984235,84
1766015825.984247,87
1766015825.98426,85
1766015825.984274,89
1766015825.984286,83
1766015825.984299,80
1766015825.984318,85
1766015825.984331,87
1766015825.9843452,88
1766015825.984357,90
1766015825.98437,88
1766015825.9843829,89
1766015825.984396,89
1766015825.984409,89
1766015825.984422,89
1766015825.9844348,89
1766015825.984447,89
1766015825.984461,88
1766015825.9844742,85
1766015825.9844868,84
1766015825.9845,84
1766015825.984513,87
1766015825.984525,84
1766015825.984538,84
1766015825.984552,85
1766015825.984564,82
1766015825.984577,83
1766015825.98459,84
1766015825.984603,80
1766015825.984616,81
1766015825.984629,82
1766015825.984642,82
1766015825.9846542,79
1766015825.9846668,82
1766015825.98468,81
1766015825.984693,75
1766015825.984705,79
1766015825.984719,78
1766015825.984734,76
1766015825.9847481,77
1766015825.984761,76
1766015825.9847739,83
1766015825.984786,78
1766015825.984799,77
1766015825.984812,78
1766015825.9848251,76
1766015825.984837,79
1766015825.98485,81
1766015825.984863,81
1766015825.984875,78
1766015825.984888,80
1766015825.9849012,81
1766015825.9849138,77
1766015825.984927,79
1766015825.98494,78
1766015825.9849532,79
1766015825.984965,74
1766015825.984978,76
1766015825.984991,73
1766015825.985004,75
1766015825.985017,73
1766015825.98503,74
1766015825.985043,73
1766015825.985056,72
1766015825.985069,74
1766015825.9850812,73
1766015825.9850938,76
1766015825.985107,74
1766015825.9851189,75
1766015825.985132,71
1766015825.985145,72
1766015825.9851599,73
1766015825.9851751,70
1766015825.985187,74
1766015825.9852002,71
1766015825.985213,71
1766015825.985226,67
1766015825.985239,70
1766015825.9852521,74
1766015825.985264,70
1766015825.985281,70
1766015825.985294,70
1766015825.985307,68
1766015825.9853199,71
1766015825.985332,70
1766015825.9853451,72
1766015825.985358,71
1766015825.9853709,69
1766015825.985384,65
1766015825.985397,69
1766015825.985409,69
1766015825.9854221,68
1766015825.9854348,69
1766015825.985448,68
1766015825.98546,66
1766015825.985473,67
1766015825.985486,68
1766015825.985499,70
1766015825.985512,68
1766015825.985524,68
1766015825.985586,67
1766015825.985605,67
1766015825.9857101,68
1766015825.985724,66
1766015825.985771,65
1766015825.985784,68
1766015825.985795,67
1766015825.9858072,68
1766015825.9858959,67
1766015825.9859169,63
1766015825.9859278,63
1766015825.98594,60
1766015825.985952,65
1766015825.985964,64
1766015825.985974,62
1766015825.9859872,64
1766015825.9859998,66
1766015825.9860108,64
1766015825.986021,63
1766015825.986032,63
1766015825.986043,66
1766015825.9860532,62
1766015825.986064,66
1766015825.9860759,65
1766015825.9860868,66
1766015825.9860969,60
1766015825.9861069,63
1766015825.98612,61
1766015825.986132,61
1766015825.986142,63
1766015825.986153,62
1766015825.986163,62
1766015825.98619,58
1766015825.986202,63
1766015825.986214,63
1766015825.9862258,61
1766015825.986241,61
1766015825.9862862,60
1766015825.9862971,60
1766015825.986309,59
1766015825.986332,60
1766015825.986343,57
1766015825.986398,56
1766015825.986444,57
1766015825.986463,58
1766015825.9864771,56
1766015825.98649,58
1766015825.986503,59
1766015825.986516,58
1766015825.986529,57
1766015825.986542,58
1766015825.9865549,59
1766015825.986568,57
1766015825.986581,57
1766015825.986594,57
1766015825.986628,59
1766015825.986639,58
1766015825.9866502,58
1766015825.98666,54
1766015825.98667,57
1766015825.98668,54
1766015825.9867158,58
1766015825.98673,53
1766015825.986743,59
1766015825.9867551,54
1766015825.986769,55
1766015825.986781,58
1766015825.986794,58
1766015825.986807,53
1766015825.986825,57
1766015825.986839,57
1766015825.9868522,56
1766015825.986902,54
1766015825.986917,54
1766015825.98693,55
1766015825.986943,53
1766015825.9869561,54
1766015825.986969,55
1766015825.9869812,52
1766015825.986994,53
1766015825.987007,54
1766015825.98702,52
1766015825.9870322,54
1766015825.987045,54
1766015825.987057,51
1766015825.9870698,50
1766015825.987083,53
1766015825.987095,53
1766015825.987108,49
1766015825.9871209,54
1766015825.987133,52
1766015825.987146,54
1766015825.987158,51
1766015825.9871712,49
1766015825.987183,49
1766015825.987196,51
1766015825.987208,49
1766015825.987221,49
1766015825.987233,50
1766015825.987246,50
1766015825.9872582,48
1766015825.9872708,50
1766015825.9872892,50
1766015825.9873018,47
1766015825.987314,46
1766015825.9873269,50
1766015825.987339,50
1766015825.987351,50
1766015825.987364,47
1766015825.9873762,48
1766015825.9873888,48
1766015825.987401,47
1766015825.9874141,47
1766015825.987426,48
1766015825.9874392,46
1766015825.9874508,47
1766015825.987464,46
1766015825.9874759,45
1766015825.987488,46
1766015825.9875011,46
1766015825.987514,47
1766015825.987526,46
1766015825.987539,44
1766015825.987551,46
1766015825.987564,44
1766015825.987576,43
1766015825.9875891,43
1766015825.987602,43
1766015825.987614,44
1766015825.987627,41
1766015825.987639,41
1766015825.987652,43
1766015825.987664,42
1766015825.9876769,43
1766015825.987693,43
1766015825.9877062,43
1766015825.9877188,38
1766015825.987731,40
1766015825.987744,39
1766015825.987756,44
1766015825.987777,40
1766015825.98779,44
1766015825.987802,40
1766015825.987814,39
1766015825.987827,39
1766015825.987839,38
1766015825.987851,39
1766015825.987864,42
1766015825.9878762,41
1766015825.9878888,37
1766015825.987901,38
1766015825.987913,40
1766015825.987926,39
1766015825.9879391,36
1766015825.987951,36
1766015825.987963,37
1766015825.9879758,37
1766015825.987989,38
1766015825.988001,36
1766015825.988014,39
1766015825.9880269,34
1766015825.988076,34
1766015825.988087,37
1766015825.988097,34
1766015825.988108,37
1766015825.988118,35
1766015825.9881291,34
1766015825.988142,34
1766015825.9881542,36
1766015825.9881651,34
1766015825.9881752,36
1766015825.9881861,33
1766015825.9881961,34
1766015825.9882061,33
1766015825.988217,37
1766015825.9882271,36
1766015825.988238,36
1766015825.988248,33
1766015825.9882581,34
1766015825.988269,32
1766015825.988279,34
1766015825.988289,38
1766015825.9883,34
1766015825.98831,34
1766015825.988321,32
1766015825.988331,32
1766015825.988341,32
1766015825.988352,36
1766015825.988362,36
1766015825.9883718,34
1766015825.988383,32
1766015825.988393,30
1766015825.9884028,33
1766015825.988414,31
1766015825.9884238,34
1766015825.9884338,31
1766015825.988445,32
1766015825.9884548,32
1766015825.988466,33
1766015825.9884758,32
1766015825.9884942,33
1766015825.9885042,34
1766015825.9885151,31
1766015825.9885252,32
1766015825.988535,31
1766015825.9885461,30
1766015825.9885561,32
1766015825.988566,33
1766015825.9885771,33
1766015825.988588,33
1766015825.988599,31
1766015825.988609,28
1766015825.98862,32
1766015825.98863,30
1766015825.988641,29
1766015825.988651,29
1766015825.988662,25
1766015825.988672,28
1766015825.988683,30
1766015825.988693,30
1766015825.988704,28
1766015825.988714,30
1766015825.988724,28
1766015825.988735,32
1766015825.988746,30
1766015825.988756,31
1766015825.988766,27
1766015825.988777,26
1766015825.988787,27
1766015825.988798,29
1766015825.988808,29
1766015825.988818,29
1766015825.988831,28
1766015825.988843,28
1766015825.988853,27
1766015825.988864,28
1766015825.988874,27
1766015825.988885,27
1766015825.988895,29
1766015825.988906,27
1766015825.988916,26
1766015825.988927,28
1766015825.988938,25
1766015825.9889479,29
1766015825.988959,28
1766015825.9889688,29
1766015825.98898,30
1766015825.98899,27
1766015825.989001,28
1766015825.989012,29
1766015825.989022,29
1766015825.989033,27
1766015825.989043,28
1766015825.989054,26
1766015825.989064,26
1766015825.989074,26
1766015825.989085,27
1766015825.989095,30
1766015825.989105,28
1766015825.989116,30
1766015825.989126,27
1766015825.989137,28
1766015825.989147,24
1766015825.9891572,29
1766015825.9891672,28
1766015825.9891798,28
1766015825.989193,24
1766015825.989203,25
1766015825.989214,29
1766015825.989224,25
1766015825.989235,24
1766015825.989245,27
1766015825.989256,26
1766015825.989266,29
1766015825.989276,27
1766015825.989287,29
1766015825.989297,26
1766015825.989307,27
1766015825.9893172,27
1766015825.989328,26
1766015825.9893389,24
1766015825.9893491,25
1766015825.9893591,27
1766015825.9893692,26
1766015825.9893801,26
1766015825.9893901,25
1766015825.989401,28
1766015825.989411,27
1766015825.9894211,27
1766015825.989432,28
1766015825.989442,23
1766015825.989453,26
1766015825.989463,28
1766015825.989474,28
1766015825.989484,28
1766015825.989494,24
1766015825.989504,24
1766015825.989515,27
1766015825.9895282,26
1766015825.9895391,28
1766015825.9895492,29
1766015825.989559,25
1766015825.9895701,27
1766015825.98958,26
1766015825.9895911,27
1766015825.9896011,24
1766015825.989611,26
1766015825.989622,23
1766015825.989632,29
1766015825.989643,26
1766015825.989653,26
1766015825.989663,26
1766015825.989674,27
1766015825.9896839,28
1766015825.9896939,23
1766015825.9897048,26
1766015825.9897149,27
1766015825.9897249,24
1766015825.9897358,27
1766015825.9897459,26
1766015825.9897568,23
1766015825.9897668,22
1766015825.9897778,26
1766015825.9897878,26
1766015825.989799,26
1766015825.9898088,28
1766015825.9898188,27
1766015825.9898298,26
1766015825.9898398,25
1766015825.989851,25
1766015825.989861,26
1766015825.989876,27
1766015825.989887,23
1766015825.989897,27
1766015825.989907,23
1766015825.989918,25
1766015825.989928,24
1766015825.989938,22
1766015825.989949,26
1766015825.98996,25
1766015825.98997,25
1766015825.98998,27
1766015825.989991,20
1766015825.990001,24
1766015825.990012,24
1766015825.990022,22
1766015825.990032,25
1766015825.990043,24
1766015825.9900532,27
1766015825.9900632,26
1766015825.9900742,26
1766015825.9900842,26
1766015825.9900942,21
1766015825.9901052,24
1766015825.9901152,26
1766015825.9901261,22
1766015825.9901361,22
1766015825.9901812,23
1766015825.990196,26
1766015825.990208,26
1766015825.990219,25
1766015825.99023,24
1766015825.990241,23
1766015825.9902852,21
1766015825.9903,24
1766015825.9903119,26
1766015825.9903219,24
1766015825.9903328,22
1766015825.990344,25
1766015825.990355,25
1766015825.990365,24
1766015825.990376,26
1766015825.990387,26
1766015825.990397,25
1766015825.990408,25
1766015825.990419,24
1766015825.990429,25
1766015825.99044,26
1766015825.99045,25
1766015825.9904609,23
1766015825.990471,20
1766015825.9904819,21
1766015825.9904919,26
1766015825.9905028,23
1766015825.9905128,23
1766015825.9905238,26
1766015825.9905338,21
1766015825.9905448,21
1766015825.990556,20
1766015825.990567,26
1766015825.990577,22
1766015825.990588,23
1766015825.990598,24
1766015825.990609,19
1766015825.99062,22
1766015825.99063,28
1766015825.990645,23
1766015825.990655,19
1766015825.990666,25
1766015825.990676,24
1766015825.990687,22
1766015825.990697,24
1766015825.9907079,21
1766015825.990718,24
1766015825.9907289,24
1766015825.9907389,24
1766015825.9907498,24
1766015825.9907598,24
1766015825.990771,22
1766015825.9907808,23
1766015825.990792,24
1766015825.9908018,22
1766015825.990813,24
1766015825.990823,25
1766015825.990834,22
1766015825.990844,20
1766015825.990855,25
1766015825.990865,24
1766015825.990876,21
1766015825.990887,22
1766015825.990897,23
1766015825.990908,23
1766015825.990918,21
1766015825.990929,20
1766015825.990939,23
1766015825.9909499,25
1766015825.9909601,24
1766015825.9909708,22
1766015825.9909859,22
1766015825.990998,23
1766015825.991008,24
1766015825.99102,23
1766015825.99103,24
1766015825.991041,22
1766015825.991051,27
1766015825.991062,24
1766015825.991072,24
1766015825.991083,21
1766015825.991093,23
1766015825.991104,23
1766015825.991115,24
1766015825.991126,24
1766015825.991137,21
1766015825.991149,22
1766015825.991159,25
1766015825.991169,24
1766015825.99118,23
1766015825.9911911,21
1766015825.991202,23
1766015825.991213,23
1766015825.991223,23
1766015825.991234,25
1766015825.991244,21
1766015825.991255,21
1766015825.991266,21
1766015825.991276,25
1766015825.991287,20
1766015825.991297,22
1766015825.991308,23
1766015825.991318,20
1766015825.991329,22
1766015825.991342,23
1766015825.9913542,24
1766015825.9913652,21
1766015825.9913752,24
1766015825.9913862,21
1766015825.9913962,21
1766015825.9914072,22
1766015825.9914181,23
1766015825.991429,21
1766015825.991439,21
1766015825.99145,23
1766015825.99146,20
1766015825.991471,22
1766015825.991481,23
1766015825.991492,24
1766015825.991502,25
1766015825.991513,22
1766015825.991523,24
1766015825.991534,20
1766015825.991544,22
1766015825.991555,23
1766015825.991565,22
1766015825.991576,20
1766015825.991586,23
1766015825.991597,20
1766015825.991607,22
1766015825.991617,22
1766015825.991628,22
1766015825.9916391,19
1766015825.991649,20
1766015825.991659,24
1766015825.991672,25
1766015825.991682,22
1766015825.9916952,22
1766015825.9917068,26
1766015825.991717,23
1766015825.991727,22
1766015825.991738,22
1766015825.991748,24
1766015825.991759,24
1766015825.991769,23
1766015825.99178,22
1766015825.99179,22
1766015825.991801,19
1766015825.991811,22
1766015825.991821,23
1766015825.991832,21
1766015825.991842,26
1766015825.991853,23
1766015825.991863,24
1766015825.991874,24
1766015825.991884,26
1766015825.991895,27
1766015825.991905,20
1766015825.991916,24
1766015825.991926,24
1766015825.991937,21
1766015825.9919481,27
1766015825.991958,23
1766015825.991969,19
1766015825.99198,24
1766015825.99199,25
1766015825.992001,21
1766015825.9920251,27
1766015825.992036,25
1766015825.992046,24
1766015825.9920561,22
1766015825.992067,22
1766015825.992077,24
1766015825.992088,23
1766015825.992098,23
1766015825.992109,24
1766015825.992119,20
1766015825.992131,23
1766015825.992141,24
1766015825.992152,24
1766015825.992162,22
1766015825.992173,23
1766015825.992183,22
1766015825.992194,23
1766015825.992204,21
1766015825.9922152,22
1766015825.992225,22
1766015825.992235,24
1766015825.992246,21
1766015825.992256,21
1766015825.992267,23
1766015825.992278,21
1766015825.992288,24
1766015825.992299,22
1766015825.992309,19
1766015825.99232,24
1766015825.99233,24
1766015825.992341,22
1766015825.992351,24
1766015825.992362,24
1766015825.992372,22
1766015825.992383,21
1766015825.992393,23
1766015825.992404,22
1766015825.992414,23
1766015825.992425,20
1766015825.992436,25
1766015825.992446,25
1766015825.992457,23
1766015825.992467,23
1766015825.992478,24
1766015825.992488,21
1766015825.9924989,23
1766015825.992509,21
1766015825.9925199,24
1766015825.9925299,22
1766015825.99254,21
1766015825.9925508,24
1766015825.992569,22
1766015825.992579,24
1766015825.9925902,24
1766015825.9926,23
1766015825.9926112,24
1766015825.992621,24
1766015825.9926322,23
1766015825.9926422,25
1766015825.9926531,22
1766015825.992664,24
1766015825.992675,21
1766015825.992685,21
1766015825.992695,23
1766015825.992706,20
1766015825.992716,22
1766015825.992727,23
1766015825.992738,23
1766015825.992749,23
1766015825.992759,20
1766015825.99277,23
1766015825.99278,21
1766015825.992791,24
1766015825.992801,25
1766015825.992812,22
1766015825.992822,23
1766015825.992832,24
1766015825.992843,21
1766015825.992854,23
1766015825.992865,22
1766015825.992876,20
1766015825.992886,23
1766015825.992897,21
1766015825.992907,23
1766015825.992918,21
1766015825.992928,20
1766015825.992939,21
1766015825.992949,21
1766015825.992959,24
1766015825.99297,23
1766015825.99298,20
1766015825.99299,26
1766015825.993001,20
1766015825.993011,22
1766015825.993021,19
1766015825.993032,22
1766015825.993042,22
1766015825.993052,21
1766015825.9930618,20
1766015825.993073,20
1766015825.9930828,21
1766015825.993094,23
1766015825.993104,24
1766015825.993114,22
1766015825.9931252,22
1766015825.9931352,24
1766015825.9931462,22
1766015825.9931571,22
1766015825.9931679,21
1766015825.9931781,22
1766015825.9931881,19
1766015825.993199,22
1766015825.9932091,22
1766015825.9932191,21
1766015825.99323,22
1766015825.99324,18
1766015825.993251,21
1766015825.993261,22
1766015825.993272,23
1766015825.993282,23
1766015825.993293,21
1766015825.993304,22
1766015825.993314,24
1766015825.993325,22
1766015825.993335,23
1766015825.993345,24
1766015825.993356,21
1766015825.993366,23
1766015825.993377,22
1766015825.993387,20
1766015825.993398,23
1766015825.993408,22
1766015825.993418,24
1766015825.99343,22
1766015825.99344,21
1766015825.99345,21
1766015825.993461,21
1766015825.993471,22
1766015825.9934819,21
1766015825.993492,23
1766015825.993503,21
1766015825.9935129,26
1766015825.993523,21
1766015825.9935338,23
1766015825.9935439,22
1766015825.9935548,24
1766015825.9935648,22
1766015825.9935749,20
1766015825.9935858,23
1766015825.9935958,22
1766015825.9936068,23
1766015825.9936168,21
1766015825.9936268,21
1766015825.9936378,23
1766015825.993648,19
1766015825.993658,22
1766015825.993669,23
1766015825.993679,21
1766015825.99369,19
1766015825.9937,22
1766015825.993711,21
1766015825.993721,24
1766015825.993731,20
1766015825.993742,22
1766015825.993752,23
1766015825.993762,21
1766015825.993773,24
1766015825.993783,21
1766015825.993793,21
1766015825.993804,19
1766015825.993814,21
1766015825.993824,20
1766015825.993835,23
1766015825.993845,22
1766015825.993855,21
1766015825.993866,23
1766015825.993876,23
1766015825.993886,25
1766015825.993897,24
1766015825.993907,24
1766015825.993917,23
1766015825.993928,22
1766015825.993938,22
1766015825.9939468,22
1766015825.993956,23
1766015825.9939651,22
1766015825.993974,23
1766015825.993983,25
1766015825.9939919,23
1766015825.994001,24
1766015825.9940102,20
1766015825.994019,25
1766015825.994028,21
1766015825.994037,22
1766015825.994046,23
1766015825.9940548,23
1766015825.9940639,26
1766015825.9940732,22
1766015825.9940832,23
1766015825.994092,22
1766015825.994456,23
1766015825.995462,23
1766015825.996456,21
1766015825.997472,22
1766015825.998456,24
1766015825.9994721,24
1766015826.00049,22
1766015826.0014951,22
1766015826.002511,22
1766015826.0034938,20
1766015826.004468,22
1766015826.0054688,22
1766015826.006471,25
1766015826.007487,23
1766015826.008488,22
1766015826.009491,20
1766015826.010495,19
1766015826.011498,22
1766015826.012506,24
1766015826.0135071,22
1766015826.014505,23
1766015826.015522,21
1766015826.016528,21
1766015826.017525,23
1766015826.018508,22
1766015826.019507,21
1766015826.02052,21
1766015826.021528,23
1766015826.02253,25
1766015826.023551,27
1766015826.0245519,25
1766015826.025551,27
1766015826.026591,30
1766015826.02755,28
1766015826.028565,29
1766015826.0295238,28
1766015826.030614,27
1766015826.031552,28
1766015826.0326169,26
1766015826.033603,28
1766015826.0346339,26
1766015826.0355892,25
1766015826.0366201,26
1766015826.037596,24
1766015826.038631,26
1766015826.039625,27
1766015826.0406451,23
1766015826.0416331,24
1766015826.0426571,29
1766015826.04362,28
1766015826.0446122,26
1766015826.045635,27
1766015826.0466409,28
1766015826.047651,26
1766015826.048626,28
1766015826.049623,28
1766015826.050664,27
1766015826.051658,28
1766015826.052617,26
1766015826.0536609,27
1766015826.054667,27
1766015826.055666,28
1766015826.0566761,29
1766015826.057638,29
1766015826.058702,30
1766015826.059687,29
1766015826.0606809,32
1766015826.06168,35
1766015826.0627022,35
1766015826.06368,33
1766015826.0646799,36
1766015826.065702,34
1766015826.0667222,35
1766015826.067693,34
1766015826.0687182,33
1766015826.069705,36
1766015826.0707252,36
1766015826.071721,32
1766015826.0727098,36
1766015826.07372,35
1766015826.0747461,34
1766015826.075732,38
1766015826.0767329,35
1766015826.077802,32
1766015826.078739,31
1766015826.0797598,32
1766015826.0807521,32
1766015826.081753,33
1766015826.0827131,35
1766015826.08376,30
1766015826.084759,31
1766015826.085763,34
1766015826.086771,34
1766015826.087775,32
1766015826.088748,31
1766015826.089795,31
1766015826.0907352,31
1766015826.091768,29
1766015826.092741,32
1766015826.093787,32
1766015826.094763,33
1766015826.095804,31
1766015826.096771,33
1766015826.0977979,32
1766015826.098757,29
1766015826.099814,33
1766015826.1007922,31
1766015826.101795,33
1766015826.1027882,31
1766015826.103808,32
1766015826.104825,29
1766015826.10582,32
1766015826.106824,28
1766015826.107792,30
1766015826.108812,30
1766015826.1098108,33
1766015826.110815,30
1766015826.1118348,30
1766015826.1128252,32
1766015826.113822,30
1766015826.114829,31
1766015826.11585,31
1766015826.11684,29
1766015826.117843,29
1766015826.118846,29
1766015826.11986,33
1766015826.120842,32
1766015826.121846,31
1766015826.122862,26
1766015826.12386,29
1766015826.1248682,31
1766015826.125862,29
1766015826.126869,29
1766015826.127868,31
1766015826.128869,27
1766015826.129876,27
1766015826.130891,28
1766015826.131878,30
1766015826.132873,29
1766015826.1338902,30
1766015826.134884,27
1766015826.135902,30
1766015826.136891,28
1766015826.137898,29
1766015826.138904,28
1766015826.139903,30
1766015826.1408918,27
1766015826.14189,29
1766015826.142922,27
1766015826.143906,30
1766015826.144904,25
1766015826.1459131,31
1766015826.1469069,28
1766015826.1479092,26
1766015826.148994,30
1766015826.149898,26
1766015826.150923,30
1766015826.151937,28
1766015826.1529322,29
1766015826.1539352,26
1766015826.154937,29
1766015826.15593,24
1766015826.1569228,28
1766015826.157912,29
1766015826.1589189,27
1766015826.15996,30
1766015826.1610188,27
1766015826.161945,26
1766015826.16297,28
1766015826.163977,28
1766015826.1649852,28
1766015826.165935,26
1766015826.166982,28
1766015826.167975,25
1766015826.16898,28
1766015826.170012,28
1766015826.170989,29
1766015826.172008,25
1766015826.1729972,25
1766015826.173994,28
1766015826.174978,25
1766015826.176011,23
1766015826.177017,26
1766015826.1780019,26
1766015826.179014,24
1766015826.180011,27
1766015826.181025,27
1766015826.182024,26
1766015826.182976,25
1766015826.18402,27
1766015826.185023,22
1766015826.186033,27
1766015826.1870341,26
1766015826.1880178,27
1766015826.189031,23
1766015826.190036,23
1766015826.1910331,24
1766015826.192048,22
1766015826.1930408,23
1766015826.194038,25
1766015826.1950452,26
1766015826.1960351,25
1766015826.197033,25
1766015826.198074,27
1766015826.199052,23
1766015826.200056,26
1766015826.201061,28
1766015826.20208,25
1766015826.203083,26
1766015826.204082,25
1766015826.2050729,25
1766015826.2060769,28
1766015826.207089,26
1766015826.208089,27
1766015826.209105,27
1766015826.2101161,30
1766015826.211178,26
1766015826.2121751,28
1766015826.213087,28
1766015826.2141728,26
1766015826.2150989,30
1766015826.216186,29
1766015826.2171829,26
1766015826.2181811,31
1766015826.2191958,27
1766015826.2201831,28
1766015826.221188,28
1766015826.222184,29
1766015826.223179,30
1766015826.224181,29
1766015826.2251892,29
1766015826.226177,30
1766015826.227181,30
1766015826.228183,30
1766015826.229177,30
1766015826.2301812,31
1766015826.231188,28
1766015826.232181,28
1766015826.2331789,29
1766015826.2341728,27
1766015826.235181,26
1766015826.2361841,31
1766015826.237174,29
1766015826.238186,28
1766015826.23918,26
1766015826.24018,30
1766015826.241183,30
1766015826.242183,31
1766015826.243194,30
1766015826.2441962,28
1766015826.245194,27
1766015826.246186,27
1766015826.2472022,30
1766015826.248203,26
1766015826.249206,29
1766015826.250203,27
1766015826.2512078,27
1766015826.252213,29
1766015826.253228,29
1766015826.254221,29
1766015826.255219,28
1766015826.256236,29
1766015826.257231,28
1766015826.2582169,26
1766015826.259238,26
1766015826.260232,29
1766015826.26124,27
1766015826.262238,29
1766015826.263246,27
1766015826.26425,26
1766015826.265252,30
1766015826.26626,29
1766015826.267256,29
1766015826.268265,25
1766015826.269247,29
1766015826.270249,31
1766015826.2712672,26
1766015826.272267,27
1766015826.2732759,27
1766015826.274274,26
1766015826.2752829,27
1766015826.276273,26
1766015826.277302,27
1766015826.278296,27
1766015826.2793002,24
1766015826.280297,30
1766015826.281298,29
1766015826.282306,27
1766015826.283318,28
1766015826.284309,24
1766015826.285301,28
1766015826.286309,29
1766015826.287306,28
1766015826.28831,33
1766015826.2893162,31
1766015826.290328,36
1766015826.2913249,33
1766015826.292319,33
1766015826.2933388,34
1766015826.294337,32
1766015826.295342,34
1766015826.2963378,33
1766015826.29733,34
1766015826.298334,36
1766015826.299351,33
1766015826.300341,36
1766015826.301346,35
1766015826.302345,33
1766015826.303356,34
1766015826.30435,37
1766015826.305347,34
1766015826.3063622,32
1766015826.3073752,35
1766015826.308369,29
1766015826.309349,33
1766015826.3103712,34
1766015826.3113909,35
1766015826.312375,34
1766015826.3133812,37
1766015826.3143911,31
1766015826.315399,32
1766015826.316385,30
1766015826.317398,32
1766015826.318391,32
1766015826.319415,33
1766015826.320398,35
1766015826.321412,33
1766015826.322439,34
1766015826.3234088,36
1766015826.324415,37
1766015826.3254058,39
1766015826.326423,37
1766015826.32742,41
1766015826.328439,42
1766015826.3294442,41
1766015826.3304498,44
1766015826.3314528,39
1766015826.332452,43
1766015826.333445,41
1766015826.3344698,43
1766015826.3354728,41
1766015826.336473,43
1766015826.337474,41
1766015826.338472,42
1766015826.3394618,41
1766015826.340472,39
1766015826.341471,41
1766015826.342454,39
1766015826.343457,39
1766015826.344458,40
1766015826.345464,40
1766015826.346465,40
1766015826.347471,41
1766015826.348476,43
1766015826.349529,39
1766015826.350531,43
1766015826.351478,39
1766015826.35247,41
1766015826.353484,40
1766015826.354507,42
1766015826.355526,43
1766015826.356506,47
1766015826.3575191,46
1766015826.35853,46
1766015826.359539,50
1766015826.360509,55
1766015826.36154,60
1766015826.362545,62
1766015826.363532,64
1766015826.3645382,62
1766015826.3655438,60
1766015826.366551,60
1766015826.367536,62
1766015826.3685288,65
1766015826.3695319,64
1766015826.370558,65
1766015826.3715498,66
1766015826.3725529,67
1766015826.373556,66
1766015826.3745642,71
1766015826.37555,73
1766015826.3765628,79
1766015826.3775628,82
1766015826.378585,83
1766015826.3795772,88
1766015826.380587,90
1766015826.381587,90
1766015826.38258,88
1766015826.383573,92
1766015826.384586,88
1766015826.3855932,92
1766015826.386595,91
1766015826.387587,90
1766015826.38859,90
1766015826.389596,93
1766015826.3906062,97
1766015826.3916109,94
1766015826.3926132,95
1766015826.393613,96
1766015826.394617,95
1766015826.395605,99
1766015826.3966138,94
1766015826.397621,97
1766015826.3986251,97
1766015826.399632,99
1766015826.400738,100
1766015826.4017239,103
1766015826.402724,103
1766015826.403736,106
1766015826.404742,108
1766015826.40575,104
1766015826.406749,105
1766015826.407752,101
1766015826.40876,106
1766015826.409769,107
1766015826.410771,108
1766015826.411764,116
1766015826.412758,117
1766015826.413769,124
1766015826.414767,127
1766015826.415765,126
1766015826.416767,131
1766015826.417779,132
1766015826.418782,132
1766015826.419789,131
1766015826.420783,133
1766015826.421788,132
1766015826.4227898,131
1766015826.423796,134
1766015826.4248059,138
1766015826.425809,137
1766015826.426808,132
1766015826.427802,133
1766015826.428805,136
1766015826.429804,137
1766015826.4308102,138
1766015826.431812,141
1766015826.432811,139
1766015826.4338229,140
1766015826.434825,141
1766015826.43583,137
1766015826.436836,139
1766015826.437839,143
1766015826.438816,142
1766015826.4398599,146
1766015826.440861,153
1766015826.4418402,155
1766015826.44284,164
1766015826.443851,175
1766015826.444855,182
1766015826.4458659,181
1766015826.446866,178
1766015826.447872,178
1766015826.44886,175
1766015826.449871,176
1766015826.4508631,172
1766015826.451863,173
1766015826.4528692,170
1766015826.453884,172
1766015826.454877,171
1766015826.4558809,169
1766015826.456888,168
1766015826.457886,169
1766015826.458886,171
1766015826.459883,173
1766015826.4609,178
1766015826.461899,192
1766015826.462922,195
1766015826.463916,203
1766015826.4649138,202
1766015826.4659278,209
1766015826.466909,220
1766015826.4679081,235
1766015826.4689112,257
1766015826.46991,281
1766015826.470929,298
1766015826.47194,303
1766015826.472924,302
1766015826.473946,298
1766015826.474951,295
1766015826.4759429,294
1766015826.476949,294
1766015826.4779599,293
1766015826.4789429,294
1766015826.4799738,297
1766015826.480972,301
1766015826.481941,299
1766015826.4829462,297
1766015826.4839659,299
1766015826.484967,292
1766015826.4859688,291
1766015826.486974,287
1766015826.487988,282
1766015826.48899,282
1766015826.489974,278
1766015826.4909859,276
1766015826.491988,275
1766015826.492992,277
1766015826.493987,276
1766015826.4950058,276
1766015826.495958,273
1766015826.49697,271
1766015826.497967,271
1766015826.4989681,268
1766015826.499965,265
1766015826.500967,265
1766015826.5019798,270
1766015826.5029938,268
1766015826.50398,268
1766015826.5049942,261
1766015826.505985,263
1766015826.506988,260
1766015826.5080059,258
1766015826.508994,254
1766015826.509988,251
1766015826.5109959,249
1766015826.512032,245
1766015826.513021,242
1766015826.514037,238
1766015826.51503,233
1766015826.516014,233
1766015826.517046,231
1766015826.518027,227
1766015826.51903,225
1766015826.520055,231
1766015826.521087,233
1766015826.5220869,234
1766015826.523093,237
1766015826.524075,237
1766015826.5251,235
1766015826.5260842,236
1766015826.5270898,237
1766015826.528099,232
1766015826.529102,233
1766015826.53011,233
1766015826.531114,234
1766015826.5322082,228
1766015826.533198,230
1766015826.534197,231
1766015826.535199,234
1766015826.5361989,230
1766015826.5372002,230
1766015826.538198,228
1766015826.5391948,227
1766015826.5401978,223
1766015826.541195,222
1766015826.542197,219
1766015826.5431948,216
1766015826.544197,219
1766015826.545198,218
1766015826.546178,214
1766015826.547192,213
1766015826.548185,210
1766015826.549196,207
1766015826.550178,205
1766015826.5511968,204
1766015826.552193,203
1766015826.5531871,207
1766015826.554228,203
1766015826.555182,201
1766015826.556174,200
1766015826.557205,199
1766015826.5581892,197
1766015826.559188,195
1766015826.5601869,190
1766015826.561194,190
1766015826.562189,190
1766015826.563179,192
1766015826.564193,195
1766015826.565204,192
1766015826.566207,190
1766015826.567195,189
1766015826.568207,190
1766015826.569206,191
1766015826.570202,193
1766015826.571167,192
1766015826.572224,190
1766015826.5732238,188
1766015826.574219,185
1766015826.575237,185
1766015826.576236,182
1766015826.577239,180
1766015826.578219,179
1766015826.5792341,178
1766015826.580239,177
1766015826.581234,174
1766015826.5822349,175
1766015826.583254,172
1766015826.584209,171
1766015826.585239,170
1766015826.586247,168
1766015826.587221,165
1766015826.588222,164
1766015826.589257,165
1766015826.5902631,162
1766015826.591269,163
1766015826.592222,164
1766015826.593269,165
1766015826.594288,164
1766015826.5952709,169
1766015826.596255,173
1766015826.597257,172
1766015826.598271,171
1766015826.599286,170
1766015826.600286,171
1766015826.601297,172
1766015826.602284,171
1766015826.6032908,165
1766015826.604301,163
1766015826.605303,162
1766015826.606303,161
1766015826.607299,163
1766015826.608331,161
1766015826.609317,159
1766015826.610315,160
1766015826.6113122,160
1766015826.612323,157
1766015826.613334,158
1766015826.614344,155
1766015826.615346,151
1766015826.6163468,149
1766015826.6173282,150
1766015826.6183412,147
1766015826.6193438,150
1766015826.620343,152
1766015826.621349,150
1766015826.62235,154
1766015826.623355,157
1766015826.624327,161
1766015826.6253319,170
1766015826.626322,178
1766015826.6273222,185
1766015826.628372,191
1766015826.629368,199
1766015826.630361,200
1766015826.631375,206
1766015826.632371,207
1766015826.6333709,210
1766015826.6343732,212
1766015826.635371,214
1766015826.636388,216
1766015826.6373918,218
1766015826.638394,214
1766015826.639408,214
1766015826.6403909,212
1766015826.6413949,210
1766015826.642407,212
1766015826.643405,208
1766015826.644414,205
1766015826.6454191,206
1766015826.6464179,203
1766015826.6474261,197
1766015826.6484091,197
1766015826.6494389,194
1766015826.6504278,192
1766015826.65143,190
1766015826.652427,185
1766015826.653449,187
1766015826.6544588,183
1766015826.655454,181
1766015826.656466,182
1766015826.657471,180
1766015826.658464,182
1766015826.659466,178
1766015826.660484,177
1766015826.661473,177
1766015826.662477,173
1766015826.6634922,170
1766015826.6644769,171
1766015826.6654751,168
1766015826.6664891,166
1766015826.667495,163
1766015826.668494,163
1766015826.669495,160
1766015826.670496,156
1766015826.6714911,159
1766015826.672491,157
1766015826.6735082,157
1766015826.674494,157
1766015826.6755111,151
1766015826.6765041,150
1766015826.6775098,149
1766015826.678522,150
1766015826.67953,147
1766015826.680522,149
1766015826.68151,148
1766015826.682517,146
1766015826.683533,145
1766015826.68453,143
1766015826.685539,145
1766015826.686528,145
1766015826.6875432,146
1766015826.68853,146
1766015826.689525,146
1766015826.690536,148
1766015826.69155,143
1766015826.692557,144
1766015826.693554,144
1766015826.694564,143
1766015826.695563,145
1766015826.696553,142
1766015826.697553,137
1766015826.698573,137
1766015826.699562,136
1766015826.700572,132
1766015826.7015748,132
1766015826.702579,134
1766015826.703574,135
1766015826.704596,136
1766015826.705579,134
1766015826.7065752,135
1766015826.7075891,134
1766015826.7085938,133
1766015826.709604,131
1766015826.7106109,134
1766015826.7115982,131
1766015826.712619,128
1766015826.713621,129
1766015826.7146099,129
1766015826.715613,126
1766015826.716609,127
1766015826.717616,128
1766015826.7186282,127
1766015826.7196212,131
1766015826.7206311,134
1766015826.721635,142
1766015826.722628,144
1766015826.723639,149
1766015826.724633,149
1766015826.725643,148
1766015826.7266471,147
1766015826.7276502,153
1766015826.7286541,154
1766015826.7296598,153
1766015826.730659,156
1766015826.731655,154
1766015826.732664,153
1766015826.7336671,152
1766015826.7346659,149
1766015826.735669,148
1766015826.736759,147
1766015826.737696,147
1766015826.738691,146
1766015826.739678,144
1766015826.740685,148
1766015826.7416892,149
1766015826.742698,146
1766015826.74368,143
1766015826.744705,147
1766015826.745684,147
1766015826.7466938,144
1766015826.7477021,140
1766015826.748708,141
1766015826.7497191,139
1766015826.750716,141
1766015826.751729,137
1766015826.752733,135
1766015826.7537248,140
1766015826.754731,140
1766015826.755741,144
1766015826.756726,147
1766015826.757725,149
1766015826.7587242,148
1766015826.7597299,146
1766015826.7607229,146
1766015826.761726,146
1766015826.762727,145
1766015826.763776,143
1766015826.764805,141
1766015826.765745,142
1766015826.766746,142
1766015826.767763,139
1766015826.76878,138
1766015826.769755,133
1766015826.770782,133
1766015826.771759,131
1766015826.772778,134
1766015826.7737641,132
1766015826.7747772,128
1766015826.7757819,127
1766015826.776793,125
1766015826.777793,124
1766015826.778781,124
1766015826.7798002,119
1766015826.7807958,125
1766015826.781791,124
1766015826.782795,124
1766015826.783802,125
1766015826.784805,127
1766015826.785816,132
1766015826.786815,130
1766015826.7878242,131
1766015826.7887979,131
1766015826.789821,131
1766015826.790818,129
1766015826.791811,130
1766015826.7928162,128
1766015826.793822,127
1766015826.79483,129
1766015826.795823,126
1766015826.796833,127
1766015826.797844,126
1766015826.798837,127
1766015826.799829,124
1766015826.800831,123
1766015826.801853,125
1766015826.802859,122
1766015826.803842,125
1766015826.804845,125
1766015826.805849,124
1766015826.80686,124
1766015826.807868,123
1766015826.808866,122
1766015826.809886,118
1766015826.81086,122
1766015826.811863,116
1766015826.812882,116
1766015826.813884,117
1766015826.81488,112
1766015826.815889,112
1766015826.8168561,112
1766015826.8178618,110
1766015826.81886,112
1766015826.81986,107
1766015826.820883,108
1766015826.821864,107
1766015826.82288,105
1766015826.823914,107
1766015826.824887,103
1766015826.8258939,102
1766015826.826897,105
1766015826.827924,104
1766015826.8289092,102
1766015826.829918,100
1766015826.8309178,102
1766015826.831924,103
1766015826.832939,107
1766015826.833916,116
1766015826.83491,123
1766015826.835938,124
1766015826.836927,125
1766015826.8379278,127
1766015826.83893,124
1766015826.839945,127
1766015826.84094,126
1766015826.84195,123
1766015826.8429499,123
1766015826.843977,122
1766015826.8449569,122
1766015826.845967,121
1766015826.846977,124
1766015826.847977,124
1766015826.8489752,120
1766015826.849993,121
1766015826.851001,122
1766015826.851997,120
1766015826.85301,116
1766015826.853986,114
1766015826.854987,115
1766015826.856002,116
1766015826.8570051,113
1766015826.8580081,112
1766015826.8590238,114
1766015826.860016,107
1766015826.861016,108
1766015826.862016,104
1766015826.863019,106
1766015826.8640268,107
1766015826.86501,102
1766015826.866017,103
1766015826.866932,99
1766015826.868025,100
1766015826.869034,102
1766015826.8700302,102
1766015826.871037,103
1766015826.872043,103
1766015826.8730319,105
1766015826.874051,107
1766015826.875041,107
1766015826.876056,108
1766015826.877035,109
1766015826.8780448,109
1766015826.8790479,111
1766015826.8800619,109
1766015826.881061,110
1766015826.882068,109
1766015826.883065,107
1766015826.884064,110
1766015826.885067,103
1766015826.886086,108
1766015826.887062,109
1766015826.888082,110
1766015826.8890948,115
1766015826.890102,114
1766015826.891099,114
1766015826.8920991,115
1766015826.893091,117
1766015826.8940978,115
1766015826.8950982,114
1766015826.896183,117
1766015826.897192,112
1766015826.898186,116
1766015826.8991842,113
1766015826.900188,113
1766015826.901186,110
1766015826.902187,109
1766015826.903184,107
1766015826.904188,109
1766015826.9051871,106
1766015826.906188,109
1766015826.9071841,104
1766015826.9081862,105
1766015826.909187,108
1766015826.910183,109
1766015826.911176,113
1766015826.912179,117
1766015826.913183,121
1766015826.914182,126
1766015826.915179,126
1766015826.91618,136
1766015826.9171772,139
1766015826.918184,139
1766015826.9191759,143
1766015826.920179,142
1766015826.9211771,143
1766015826.922178,145
1766015826.923189,145
1766015826.9241889,149
1766015826.925185,148
1766015826.926176,147
1766015826.927201,144
1766015826.9281962,147
1766015826.929201,146
1766015826.930193,142
1766015826.931201,142
1766015826.932213,140
1766015826.933234,138
1766015826.934229,139
1766015826.9352179,139
1766015826.936204,135
1766015826.937214,136
1766015826.938215,136
1766015826.939244,132
1766015826.940236,132
1766015826.9412422,132
1766015826.94224,132
1766015826.943264,131
1766015826.944234,126
1766015826.945251,127
1766015826.9462368,128
1766015826.947254,128
1766015826.948252,127
1766015826.9492679,129
1766015826.950262,129
1766015826.951261,130
1766015826.952258,129
1766015826.953272,130
1766015826.954277,126
1766015826.955282,125
1766015826.956277,124
1766015826.9572768,123
1766015826.958279,122
1766015826.959295,122
1766015826.960274,122
1766015826.9613068,121
1766015826.9622788,123
1766015826.963295,122
1766015826.964302,122
1766015826.9653099,121
1766015826.966295,119
1766015826.967304,119
1766015826.9683058,118
1766015826.969308,119
