timestamp,emg_value
1766015817.3104131,86
1766015817.310433,90
1766015817.310449,89
1766015817.310465,83
1766015817.3104799,85
1766015817.310497,84
1766015817.310512,86
1766015817.310527,85
1766015817.310543,91
1766015817.310559,90
1766015817.310575,88
1766015817.310592,92
1766015817.3106098,90
1766015817.310624,94
1766015817.310642,89
1766015817.3106592,89
1766015817.310674,93
1766015817.310691,91
1766015817.310706,92
1766015817.310721,93
1766015817.310735,93
1766015817.310751,90
1766015817.310766,90
1766015817.310781,91
1766015817.310796,92
1766015817.3108108,96
1766015817.310826,93
1766015817.310841,92
1766015817.3108559,88
1766015817.310872,87
1766015817.310886,86
1766015817.310901,87
1766015817.3109262,86
1766015817.310942,84
1766015817.310957,85
1766015817.310972,84
1766015817.310987,84
1766015817.311002,82
1766015817.311017,81
1766015817.311032,82
1766015817.3110468,82
1766015817.311063,83
1766015817.3110778,85
1766015817.311094,80
1766015817.311108,78
1766015817.311124,77
1766015817.311139,77
1766015817.311154,76
1766015817.311169,75
1766015817.311184,77
1766015817.311199,76
1766015817.311214,76
1766015817.311229,73
1766015817.311245,75
1766015817.31126,76
1766015817.311275,73
1766015817.311289,71
1766015817.3113039,71
1766015817.311319,76
1766015817.311334,75
1766015817.311352,76
1766015817.311368,77
1766015817.3113852,75
1766015817.3114,74
1766015817.311423,77
1766015817.311445,76
1766015817.31146,79
1766015817.311477,80
1766015817.3114939,83
1766015817.311509,82
1766015817.3115242,82
1766015817.311539,85
1766015817.3115551,88
1766015817.311573,86
1766015817.31159,88
1766015817.311606,90
1766015817.311622,90
1766015817.311639,88
1766015817.311656,84
1766015817.311674,90
1766015817.311689,88
1766015817.311705,93
1766015817.31172,93
1766015817.3117352,90
1766015817.311751,89
1766015817.311765,88
1766015817.3117802,87
1766015817.311795,85
1766015817.31181,87
1766015817.3118248,84
1766015817.31184,87
1766015817.311855,85
1766015817.3118699,85
1766015817.311886,84
1766015817.3119009,86
1766015817.311916,82
1766015817.311931,85
1766015817.3119512,84
1766015817.311967,85
1766015817.3119822,85
1766015817.311997,84
1766015817.312012,82
1766015817.312027,83
1766015817.312042,83
1766015817.3120582,83
1766015817.312073,80
1766015817.312088,81
1766015817.3121028,82
1766015817.312118,84
1766015817.312137,87
1766015817.3121521,88
1766015817.312167,90
1766015817.312182,90
1766015817.3121972,89
1766015817.312212,91
1766015817.3122292,91
1766015817.312245,88
1766015817.3122602,87
1766015817.312277,89
1766015817.312292,87
1766015817.312307,87
1766015817.312324,86
1766015817.312341,89
1766015817.312362,84
1766015817.3123782,83
1766015817.312393,82
1766015817.312408,82
1766015817.312423,81
1766015817.312438,82
1766015817.312458,79
1766015817.312474,82
1766015817.312491,83
1766015817.3125062,82
1766015817.312521,83
1766015817.312536,85
1766015817.312551,85
1766015817.312566,82
1766015817.3125818,84
1766015817.312595,81
1766015817.312608,79
1766015817.312621,80
1766015817.3126342,77
1766015817.3126469,79
1766015817.312659,80
1766015817.312672,79
1766015817.312685,80
1766015817.3126981,78
1766015817.312711,79
1766015817.3127239,78
1766015817.312737,78
1766015817.31275,80
1766015817.312763,81
1766015817.3127759,81
1766015817.31279,79
1766015817.312803,79
1766015817.3128152,79
1766015817.3128278,80
1766015817.312841,80
1766015817.312854,81
1766015817.3128672,80
1766015817.31288,81
1766015817.3128939,79
1766015817.312911,75
1766015817.312926,77
1766015817.312938,79
1766015817.312951,76
1766015817.3129642,79
1766015817.3129768,83
1766015817.31299,86
1766015817.313003,90
1766015817.3130162,92
1766015817.313029,96
1766015817.313042,95
1766015817.3130581,98
1766015817.3130722,99
1766015817.313088,101
1766015817.3131,99
1766015817.313117,101
1766015817.313133,103
1766015817.31315,101
1766015817.313163,99
1766015817.313177,98
1766015817.31319,98
1766015817.3132029,99
1766015817.313217,97
1766015817.313231,97
1766015817.313243,98
1766015817.313256,98
1766015817.313269,97
1766015817.313282,94
1766015817.3132951,94
1766015817.3133068,94
1766015817.31332,94
1766015817.313335,93
1766015817.313351,91
1766015817.313365,91
1766015817.3133838,92
1766015817.313399,94
1766015817.3134131,94
1766015817.313426,90
1766015817.313439,91
1766015817.313452,91
1766015817.313465,90
1766015817.313478,89
1766015817.3134909,88
1766015817.313504,86
1766015817.3135161,87
1766015817.313529,87
1766015817.313542,89
1766015817.313555,85
1766015817.313568,84
1766015817.313581,83
1766015817.313594,83
1766015817.3136058,81
1766015817.3136199,82
1766015817.313632,81
1766015817.3136451,79
1766015817.313657,80
1766015817.313683,81
1766015817.313697,82
1766015817.31371,88
1766015817.3137228,91
1766015817.313736,89
1766015817.313749,89
1766015817.313762,91
1766015817.313775,95
1766015817.313791,95
1766015817.313807,96
1766015817.31382,97
1766015817.313833,92
1766015817.313845,95
1766015817.313858,91
1766015817.3138711,92
1766015817.313885,91
1766015817.313899,89
1766015817.3139122,87
1766015817.313925,89
1766015817.313938,87
1766015817.313951,86
1766015817.3139641,89
1766015817.313976,86
1766015817.3139892,87
1766015817.314002,86
1766015817.314016,83
1766015817.314028,84
1766015817.3140411,83
1766015817.314055,83
1766015817.314069,86
1766015817.3140821,85
1766015817.314097,86
1766015817.314112,84
1766015817.314126,84
1766015817.314139,83
1766015817.3141508,84
1766015817.314164,81
1766015817.314177,80
1766015817.3141901,79
1766015817.3142028,79
1766015817.3142169,76
1766015817.314234,76
1766015817.3142478,76
1766015817.31426,75
1766015817.314273,78
1766015817.314286,73
1766015817.3142989,77
1766015817.314312,77
1766015817.314325,81
1766015817.314338,89
1766015817.314351,94
1766015817.314369,94
1766015817.314384,93
1766015817.314399,93
1766015817.314412,92
1766015817.314425,89
1766015817.3144379,91
1766015817.314451,93
1766015817.314463,91
1766015817.314476,92
1766015817.3144891,95
1766015817.314502,97
1766015817.3145149,96
1766015817.314527,92
1766015817.3145401,95
1766015817.314553,95
1766015817.314566,93
1766015817.314579,92
1766015817.314591,91
1766015817.314604,93
1766015817.3146172,91
1766015817.3146298,91
1766015817.314643,92
1766015817.31466,90
1766015817.314674,88
1766015817.314687,87
1766015817.3147001,88
1766015817.3147142,85
1766015817.3147259,87
1766015817.314741,86
1766015817.314753,86
1766015817.3147662,85
1766015817.314781,83
1766015817.314796,87
1766015817.314809,86
1766015817.314823,84
1766015817.314836,81
1766015817.3148491,83
1766015817.314862,82
1766015817.314875,84
1766015817.314888,84
1766015817.3149009,83
1766015817.314914,83
1766015817.314928,80
1766015817.314943,78
1766015817.314958,79
1766015817.314971,76
1766015817.314985,77
1766015817.315,76
1766015817.3150132,73
1766015817.3150258,76
1766015817.315039,74
1766015817.315052,74
1766015817.315064,72
1766015817.3150778,78
1766015817.315092,71
1766015817.315107,75
1766015817.3151202,71
1766015817.3151329,72
1766015817.315148,72
1766015817.315161,71
1766015817.3151731,74
1766015817.315187,72
1766015817.3152,71
1766015817.315213,71
1766015817.315226,74
1766015817.315238,77
1766015817.315253,75
1766015817.315268,75
1766015817.31528,75
1766015817.3152928,74
1766015817.315306,76
1766015817.315319,76
1766015817.3153322,75
1766015817.3153448,77
1766015817.315358,75
1766015817.315371,74
1766015817.315386,73
1766015817.315399,73
1766015817.315412,71
1766015817.315425,73
1766015817.3154402,71
1766015817.3154528,70
1766015817.315466,69
1766015817.31548,68
1766015817.3154938,71
1766015817.315507,74
1766015817.31552,72
1766015817.3155358,73
1766015817.315549,75
1766015817.315562,74
1766015817.3155751,76
1766015817.315588,74
1766015817.3156009,76
1766015817.315614,75
1766015817.315627,72
1766015817.31564,74
1766015817.315653,75
1766015817.315666,75
1766015817.315679,75
1766015817.315691,73
1766015817.315705,72
1766015817.315718,70
1766015817.315731,72
1766015817.315744,73
1766015817.315756,73
1766015817.3157701,74
1766015817.3157818,74
1766015817.315796,72
1766015817.315809,75
1766015817.3158221,75
1766015817.315835,72
1766015817.3158479,73
1766015817.315861,75
1766015817.315873,73
1766015817.315886,70
1766015817.315899,73
1766015817.315912,70
1766015817.315925,72
1766015817.315938,74
1766015817.3159528,75
1766015817.315966,75
1766015817.315979,78
1766015817.315993,77
1766015817.3160052,77
1766015817.3160179,77
1766015817.316031,77
1766015817.316046,80
1766015817.3160598,80
1766015817.316072,83
1766015817.316085,81
1766015817.316098,82
1766015817.316111,83
1766015817.316125,83
1766015817.316137,81
1766015817.316152,83
1766015817.3161652,75
1766015817.316182,80
1766015817.316194,76
1766015817.3162072,78
1766015817.3162198,77
1766015817.316232,75
1766015817.316245,73
1766015817.316258,77
1766015817.316271,75
1766015817.316284,71
1766015817.3162959,72
1766015817.316309,72
1766015817.316322,71
1766015817.3163352,72
1766015817.3163478,71
1766015817.316361,72
1766015817.3163798,70
1766015817.316399,69
1766015817.3164191,71
1766015817.3164318,69
1766015817.3164449,72
1766015817.316459,69
1766015817.316472,70
1766015817.3164852,67
1766015817.3164978,67
1766015817.316513,66
1766015817.316525,69
1766015817.316541,67
1766015817.316555,67
1766015817.3165681,71
1766015817.316581,75
1766015817.316594,75
1766015817.316607,77
1766015817.31662,77
1766015817.316633,79
1766015817.3166459,79
1766015817.316658,77
1766015817.316671,78
1766015817.316684,78
1766015817.3166988,81
1766015817.316712,79
1766015817.316725,80
1766015817.316739,76
1766015817.316753,78
1766015817.316766,77
1766015817.316779,78
1766015817.316792,77
1766015817.3168051,77
1766015817.316818,75
1766015817.31683,73
1766015817.316848,73
1766015817.316861,73
1766015817.316874,72
1766015817.316889,73
1766015817.3169038,75
1766015817.3169181,78
1766015817.316931,83
1766015817.316944,84
1766015817.316957,88
1766015817.3169699,89
1766015817.316983,87
1766015817.316996,88
1766015817.317009,90
1766015817.3170218,94
1766015817.317035,99
1766015817.317048,95
1766015817.3170629,96
1766015817.317077,96
1766015817.317091,95
1766015817.317104,95
1766015817.317117,99
1766015817.317131,96
1766015817.3171442,95
1766015817.317159,95
1766015817.317173,93
1766015817.317187,91
1766015817.3172,93
1766015817.3172128,91
1766015817.3172271,94
1766015817.31724,89
1766015817.317253,90
1766015817.317266,87
1766015817.317301,89
1766015817.317316,86
1766015817.317329,83
1766015817.317343,83
1766015817.317356,82
1766015817.3174121,83
1766015817.317429,83
1766015817.3174431,80
1766015817.317457,81
1766015817.3174698,77
1766015817.317483,80
1766015817.317497,77
1766015817.31751,77
1766015817.317523,78
1766015817.317536,77
1766015817.317549,76
1766015817.317562,76
1766015817.317575,77
1766015817.317589,76
1766015817.317603,72
1766015817.317615,75
1766015817.317628,73
1766015817.317641,73
1766015817.3176541,77
1766015817.317667,71
1766015817.3176801,72
1766015817.317694,73
1766015817.317709,70
1766015817.317722,73
1766015817.317735,71
1766015817.317749,67
1766015817.3177652,69
1766015817.317781,71
1766015817.317798,69
1766015817.317811,69
1766015817.317827,67
1766015817.3178408,69
1766015817.317854,69
1766015817.317868,67
1766015817.317881,68
1766015817.317894,67
1766015817.3179069,67
1766015817.31792,65
1766015817.317934,65
1766015817.317947,65
1766015817.31796,64
1766015817.317973,63
1766015817.317987,63
1766015817.318,63
1766015817.318013,62
1766015817.318026,63
1766015817.3180401,63
1766015817.318053,63
1766015817.318066,67
1766015817.318079,60
1766015817.318092,62
1766015817.3181062,62
1766015817.3181188,63
1766015817.318132,63
1766015817.318145,62
1766015817.318159,63
1766015817.318172,65
1766015817.3181849,67
1766015817.318198,68
1766015817.318211,76
1766015817.318227,72
1766015817.31824,72
1766015817.318253,73
1766015817.3182669,78
1766015817.31828,75
1766015817.318292,78
1766015817.318306,79
1766015817.318319,76
1766015817.318332,78
1766015817.318345,75
1766015817.318358,76
1766015817.318372,73
1766015817.3183858,74
1766015817.3184,75
1766015817.318413,74
1766015817.3184261,74
1766015817.318439,72
1766015817.318452,71
1766015817.318465,75
1766015817.318479,68
1766015817.318492,69
1766015817.318505,66
1766015817.318518,71
1766015817.318531,68
1766015817.318544,67
1766015817.318557,67
1766015817.31857,66
1766015817.318583,68
1766015817.3185952,66
1766015817.318609,64
1766015817.318621,67
1766015817.318634,64
1766015817.3186471,62
1766015817.318665,65
1766015817.318678,60
1766015817.318691,62
1766015817.3187041,64
1766015817.318717,60
1766015817.3187299,61
1766015817.318743,60
1766015817.318756,60
1766015817.318769,60
1766015817.3187861,59
1766015817.318799,60
1766015817.318812,57
1766015817.318825,59
1766015817.3188381,55
1766015817.318851,56
1766015817.3188639,56
1766015817.318877,55
1766015817.31889,55
1766015817.318903,55
1766015817.318916,54
1766015817.318929,56
1766015817.318942,52
1766015817.3189561,53
1766015817.318969,50
1766015817.318984,51
1766015817.318998,53
1766015817.3190122,52
1766015817.319027,52
1766015817.31904,54
1766015817.3190532,50
1766015817.319066,52
1766015817.3190799,52
1766015817.319097,50
1766015817.319114,50
1766015817.319127,48
1766015817.3191402,48
1766015817.3191528,48
1766015817.319168,49
1766015817.319181,47
1766015817.319194,47
1766015817.319208,47
1766015817.319223,47
1766015817.319236,46
1766015817.3192499,45
1766015817.3192651,48
1766015817.319278,49
1766015817.319293,44
1766015817.319307,48
1766015817.319322,47
1766015817.319335,47
1766015817.3193479,44
1766015817.319361,45
1766015817.319374,43
1766015817.3193889,46
1766015817.319403,46
1766015817.319416,44
1766015817.3194292,41
1766015817.319442,44
1766015817.319455,42
1766015817.319469,41
1766015817.319482,42
1766015817.319495,43
1766015817.319508,42
1766015817.319521,40
1766015817.319534,42
1766015817.319551,43
1766015817.319564,41
1766015817.319577,42
1766015817.3195908,40
1766015817.3196049,42
1766015817.319618,43
1766015817.319631,46
1766015817.319644,41
1766015817.3196568,42
1766015817.3196712,41
1766015817.319684,42
1766015817.319697,40
1766015817.31971,42
1766015817.319723,46
1766015817.319736,44
1766015817.319749,43
1766015817.319762,46
1766015817.3197749,48
1766015817.319788,45
1766015817.319801,43
1766015817.319814,46
1766015817.3198268,40
1766015817.31984,46
1766015817.319853,42
1766015817.319867,44
1766015817.31988,43
1766015817.319893,43
1766015817.319906,40
1766015817.319919,44
1766015817.319932,44
1766015817.3199449,45
1766015817.319958,40
1766015817.3199732,42
1766015817.319988,43
1766015817.3200011,43
1766015817.320013,42
1766015817.3200262,43
1766015817.3200388,43
1766015817.320052,40
1766015817.320065,41
1766015817.3200781,39
1766015817.3200908,41
1766015817.320104,37
1766015817.320117,38
1766015817.32013,37
1766015817.320144,38
1766015817.320158,37
1766015817.320171,35
1766015817.320184,37
1766015817.320197,38
1766015817.32021,39
1766015817.3202271,37
1766015817.320241,36
1766015817.3202538,39
1766015817.320267,36
1766015817.32028,39
1766015817.320294,34
1766015817.320307,40
1766015817.32032,36
1766015817.320333,36
1766015817.320346,34
1766015817.320359,37
1766015817.320411,38
1766015817.320426,37
1766015817.32044,38
1766015817.320457,39
1766015817.32047,37
1766015817.3204842,39
1766015817.320496,35
1766015817.3205068,37
1766015817.320519,39
1766015817.320532,38
1766015817.320544,36
1766015817.320558,39
1766015817.3205702,36
1766015817.3205838,33
1766015817.320596,39
1766015817.32061,37
1766015817.320622,37
1766015817.3206332,33
1766015817.320645,36
1766015817.320657,37
1766015817.320669,36
1766015817.3206809,38
1766015817.320692,35
1766015817.320704,35
1766015817.320715,34
1766015817.320727,39
1766015817.320739,36
1766015817.32075,34
1766015817.3207622,39
1766015817.3207738,34
1766015817.3207848,33
1766015817.320797,32
1766015817.320808,34
1766015817.3208199,33
1766015817.320831,35
1766015817.3208451,34
1766015817.320856,33
1766015817.320868,37
1766015817.3208792,36
1766015817.320891,38
1766015817.3209028,34
1766015817.320914,36
1766015817.320926,35
1766015817.320937,38
1766015817.320948,39
1766015817.32096,36
1766015817.320971,36
1766015817.320983,34
1766015817.321002,34
1766015817.321013,36
1766015817.3210309,33
1766015817.3210418,35
1766015817.321054,35
1766015817.321065,36
1766015817.321077,35
1766015817.321088,34
1766015817.3211,33
1766015817.321111,33
1766015817.3211231,36
1766015817.321134,33
1766015817.321146,36
1766015817.3211572,32
1766015817.321169,36
1766015817.3211799,34
1766015817.3211908,37
1766015817.321203,39
1766015817.321214,35
1766015817.321226,38
1766015817.321239,40
1766015817.321271,41
1766015817.321283,40
1766015817.321294,38
1766015817.3213062,40
1766015817.3213172,38
1766015817.3213289,37
1766015817.3213398,37
1766015817.321352,43
1766015817.321363,39
1766015817.321375,38
1766015817.321391,40
1766015817.321402,38
1766015817.321414,39
1766015817.321426,40
1766015817.32145,38
1766015817.321461,39
1766015817.3214731,37
1766015817.321484,41
1766015817.321496,39
1766015817.321507,37
1766015817.3215191,39
1766015817.3215308,39
1766015817.321543,38
1766015817.321554,37
1766015817.321565,35
1766015817.321577,36
1766015817.321588,37
1766015817.321599,34
1766015817.321611,40
1766015817.3216221,38
1766015817.321633,36
1766015817.3216472,37
1766015817.321661,39
1766015817.321673,36
1766015817.321685,40
1766015817.321696,37
1766015817.321707,41
1766015817.3217201,37
1766015817.321732,38
1766015817.321743,40
1766015817.321755,40
1766015817.321766,41
1766015817.3217778,39
1766015817.321789,37
1766015817.3218,38
1766015817.321812,38
1766015817.321824,37
1766015817.321836,39
1766015817.321847,39
1766015817.3218591,35
1766015817.32187,37
1766015817.321882,39
1766015817.3218932,34
1766015817.3219042,38
1766015817.321915,38
1766015817.3219268,36
1766015817.321938,37
1766015817.32195,37
1766015817.321961,39
1766015817.321974,37
1766015817.321986,41
1766015817.3219981,39
1766015817.322011,42
1766015817.322022,39
1766015817.322037,37
1766015817.322051,39
1766015817.322064,42
1766015817.3220758,37
1766015817.322089,37
1766015817.322103,39
1766015817.322114,37
1766015817.322127,39
1766015817.32214,37
1766015817.322152,35
1766015817.3221629,36
1766015817.322176,34
1766015817.32219,38
1766015817.322203,36
1766015817.322214,37
1766015817.3222258,40
1766015817.322237,39
1766015817.32225,37
1766015817.322261,37
1766015817.322273,39
1766015817.322284,38
1766015817.3222961,37
1766015817.322309,35
1766015817.32232,36
1766015817.322332,36
1766015817.3223429,34
1766015817.3223538,36
1766015817.322366,36
1766015817.322377,38
1766015817.3223941,36
1766015817.3224058,34
1766015817.322419,33
1766015817.322434,34
1766015817.3224478,39
1766015817.32246,35
1766015817.3224719,36
1766015817.322483,36
1766015817.322494,32
1766015817.322506,36
1766015817.322517,34
1766015817.322528,35
1766015817.32254,38
1766015817.322551,37
1766015817.322562,36
1766015817.322573,38
1766015817.322585,37
1766015817.322596,35
1766015817.322607,37
1766015817.322619,34
1766015817.32263,39
1766015817.322641,37
1766015817.3226528,39
1766015817.322664,37
1766015817.322675,35
1766015817.322686,39
1766015817.3226979,42
1766015817.322709,38
1766015817.32272,40
1766015817.322732,43
1766015817.322743,47
1766015817.3227541,47
1766015817.322766,49
1766015817.3227782,48
1766015817.32279,47
1766015817.322804,48
1766015817.322819,46
1766015817.3228312,49
1766015817.3228421,46
1766015817.322853,47
1766015817.322865,49
1766015817.322876,47
1766015817.322888,43
1766015817.3228989,46
1766015817.322911,44
1766015817.322922,45
1766015817.322933,41
1766015817.322944,44
1766015817.322957,42
1766015817.322968,42
1766015817.322979,44
1766015817.3229911,41
1766015817.323002,44
1766015817.323013,40
1766015817.323025,42
1766015817.323036,46
1766015817.3230479,46
1766015817.3230588,43
1766015817.32307,45
1766015817.323081,42
1766015817.323093,43
1766015817.323104,41
1766015817.323115,42
1766015817.323127,40
1766015817.323138,40
1766015817.323149,41
1766015817.3231611,37
1766015817.323172,43
1766015817.323184,40
1766015817.3231978,38
1766015817.323211,39
1766015817.323222,38
1766015817.323234,39
1766015817.323246,37
1766015817.323257,44
1766015817.3232682,41
1766015817.3232799,41
1766015817.323292,42
1766015817.323303,42
1766015817.323314,37
1766015817.323327,42
1766015817.323338,41
1766015817.323352,44
1766015817.323363,41
1766015817.323375,40
1766015817.323391,40
1766015817.323405,38
1766015817.3234181,37
1766015817.3234298,42
1766015817.3234408,42
1766015817.323453,40
1766015817.323464,41
1766015817.323479,40
1766015817.323491,39
1766015817.323502,43
1766015817.323513,39
1766015817.3235269,41
1766015817.323539,42
1766015817.323552,40
1766015817.323564,40
1766015817.323582,40
1766015817.323596,44
1766015817.323609,41
1766015817.323621,42
1766015817.3236322,39
1766015817.3236449,43
1766015817.3236558,42
1766015817.323667,43
1766015817.323678,39
1766015817.323691,39
1766015817.323702,38
1766015817.323713,41
1766015817.323724,38
1766015817.323735,39
1766015817.323746,41
1766015817.3237581,39
1766015817.323769,40
1766015817.32378,41
1766015817.323791,37
1766015817.323802,38
1766015817.3238132,42
1766015817.3238258,42
1766015817.323837,42
1766015817.323849,42
1766015817.323861,44
1766015817.323873,42
1766015817.323884,43
1766015817.323895,41
1766015817.3239071,42
1766015817.323918,39
1766015817.323929,40
1766015817.32394,45
1766015817.3239522,41
1766015817.3239639,43
1766015817.323978,44
1766015817.323991,43
1766015817.324002,43
1766015817.3240142,43
1766015817.3240252,45
1766015817.3240361,43
1766015817.324047,47
1766015817.324058,48
1766015817.324069,50
1766015817.3240802,45
1766015817.324092,44
1766015817.3241029,46
1766015817.3241138,46
1766015817.3241248,43
1766015817.324136,46
1766015817.324147,46
1766015817.324159,45
1766015817.3241699,46
1766015817.324181,44
1766015817.324193,41
1766015817.324204,43
1766015817.324217,44
1766015817.32423,43
1766015817.324241,46
1766015817.3242528,45
1766015817.3242629,44
1766015817.3242729,49
1766015817.324283,48
1766015817.3242931,45
1766015817.3243022,41
1766015817.324312,45
1766015817.324322,43
1766015817.3243341,44
1766015817.324346,45
1766015817.324357,47
1766015817.324367,46
1766015817.324377,46
1766015817.3243918,47
1766015817.324403,47
1766015817.324415,49
1766015817.324426,47
1766015817.324435,45
1766015817.324445,48
1766015817.324455,48
1766015817.3244648,46
1766015817.3244748,45
1766015817.3244858,47
1766015817.3244958,45
1766015817.324505,46
1766015817.324515,48
1766015817.324526,45
1766015817.324536,47
1766015817.324546,45
1766015817.324556,44
1766015817.3245661,47
1766015817.324576,46
1766015817.324586,45
1766015817.324596,46
1766015817.324606,49
1766015817.324616,48
1766015817.324626,50
1766015817.3246348,50
1766015817.324646,51
1766015817.324656,49
1766015817.324666,52
1766015817.324678,50
1766015817.3246899,49
1766015817.3247008,48
1766015817.3247108,50
1766015817.3247209,53
1766015817.3247309,52
1766015817.3247411,52
1766015817.3247511,52
1766015817.3247612,53
1766015817.3247712,55
1766015817.324781,53
1766015817.324791,54
1766015817.324801,53
1766015817.324811,52
1766015817.324821,56
1766015817.324831,54
1766015817.324841,56
1766015817.324851,55
1766015817.3248608,58
1766015817.3248708,56
1766015817.3248808,57
1766015817.3248909,56
1766015817.324901,63
1766015817.324911,61
1766015817.3249211,65
1766015817.3249311,61
1766015817.3249412,65
1766015817.324951,63
1766015817.324961,62
1766015817.324972,61
1766015817.324982,62
1766015817.324991,61
1766015817.325003,64
1766015817.325015,63
1766015817.325027,66
1766015817.3250382,65
1766015817.325047,66
1766015817.325058,67
1766015817.325067,66
1766015817.325077,68
1766015817.325087,68
1766015817.3250968,65
1766015817.3251069,67
1766015817.3251169,63
1766015817.325127,64
1766015817.325137,63
1766015817.325147,64
1766015817.3251572,65
1766015817.3251681,65
1766015817.3251781,65
1766015817.3251882,65
1766015817.325197,67
1766015817.325207,65
1766015817.325217,67
1766015817.325227,68
1766015817.325237,65
1766015817.325247,68
1766015817.325258,68
1766015817.325268,70
1766015817.325278,71
1766015817.3252878,69
1766015817.3252978,70
1766015817.3253078,67
1766015817.3253179,70
1766015817.32533,68
1766015817.325342,65
1766015817.325352,63
1766015817.325362,62
1766015817.325372,62
1766015817.325382,64
1766015817.3254368,63
1766015817.325449,70
1766015817.32546,66
1766015817.32547,68
1766015817.325481,68
1766015817.325492,67
1766015817.325502,67
1766015817.325513,69
1766015817.325523,67
1766015817.3255339,70
1766015817.3255439,66
1766015817.325554,67
1766015817.3255649,69
1766015817.3255749,68
1766015817.3255858,66
1766015817.3255959,68
1766015817.3256068,68
1766015817.3256168,70
1766015817.3256278,66
1766015817.3256378,66
1766015817.3256478,67
1766015817.3256588,66
1766015817.325669,64
1766015817.32568,66
1766015817.32569,68
1766015817.3257,64
1766015817.325711,64
1766015817.325721,63
1766015817.325801,65
1766015817.3258119,64
1766015817.3258219,67
1766015817.325832,64
1766015817.325842,65
1766015817.3258529,63
1766015817.325862,65
1766015817.3258722,64
1766015817.325883,64
1766015817.3258932,67
1766015817.3259032,61
1766015817.3259132,65
1766015817.325923,68
1766015817.325933,64
1766015817.325943,67
1766015817.325953,65
1766015817.325963,69
1766015817.325973,64
1766015817.325983,65
1766015817.325993,63
1766015817.3260028,65
1766015817.3260128,67
1766015817.3260229,64
1766015817.3260329,64
1766015817.326043,62
1766015817.3260531,66
1766015817.3260632,64
1766015817.3260732,63
1766015817.3260832,64
1766015817.326093,65
1766015817.326103,65
1766015817.326113,65
1766015817.326143,63
1766015817.326155,64
1766015817.326166,61
1766015817.326176,60
1766015817.326187,64
1766015817.326217,62
1766015817.326229,62
1766015817.32624,63
1766015817.32625,63
1766015817.326307,64
1766015817.326318,64
1766015817.326328,61
1766015817.326365,62
1766015817.326417,61
1766015817.326452,63
1766015817.326466,63
1766015817.3264792,63
1766015817.3264918,60
1766015817.326505,62
1766015817.326518,63
1766015817.3265312,61
1766015817.3265438,58
1766015817.326557,61
1766015817.32657,62
1766015817.3265831,62
1766015817.326595,60
1766015817.326608,64
1766015817.3266199,62
1766015817.326633,64
1766015817.326646,64
1766015817.326658,63
1766015817.3266711,62
1766015817.326689,61
1766015817.326703,62
1766015817.326716,64
1766015817.3267279,61
1766015817.326741,61
1766015817.326754,61
1766015817.326766,61
1766015817.326779,62
1766015817.326792,60
1766015817.326804,63
1766015817.326817,62
1766015817.326832,60
1766015817.326845,60
1766015817.3268569,61
1766015817.32687,63
1766015817.3268821,62
1766015817.326895,58
1766015817.326907,63
1766015817.3269188,58
1766015817.326932,62
1766015817.326944,62
1766015817.326957,61
1766015817.3269691,59
1766015817.3269818,63
1766015817.326994,58
1766015817.327007,58
1766015817.327019,64
1766015817.3270311,59
1766015817.327044,56
1766015817.327056,59
1766015817.327069,61
1766015817.327081,59
1766015817.327094,59
1766015817.327113,58
1766015817.3271282,58
1766015817.32714,57
1766015817.327153,59
1766015817.3271658,58
1766015817.327178,56
1766015817.327191,57
1766015817.327203,58
1766015817.3272152,57
1766015817.3272278,57
1766015817.32724,59
1766015817.327253,58
1766015817.327266,56
1766015817.3272781,56
1766015817.3272908,58
1766015817.327304,55
1766015817.327316,56
1766015817.327329,57
1766015817.327342,50
1766015817.3273542,54
1766015817.3273668,53
1766015817.327379,52
1766015817.327392,53
1766015817.327404,54
1766015817.3274171,49
1766015817.327429,52
1766015817.327442,57
1766015817.3274539,54
1766015817.327467,56
1766015817.3274791,54
1766015817.327492,55
1766015817.327504,55
1766015817.327564,56
1766015817.327594,55
1766015817.327604,57
1766015817.327614,57
1766015817.3276238,56
1766015817.3276339,55
1766015817.3276439,55
1766015817.3276548,56
1766015817.3276649,55
1766015817.3276742,53
1766015817.327685,55
1766015817.3276951,54
1766015817.3277068,53
1766015817.3277912,55
1766015817.327807,55
1766015817.327819,55
1766015817.327832,57
1766015817.327845,54
1766015817.327858,55
1766015817.32787,52
1766015817.327883,55
1766015817.327896,55
1766015817.327908,54
1766015817.327921,56
1766015817.3279328,51
1766015817.327945,55
1766015817.327958,55
1766015817.32797,53
1766015817.3279831,57
1766015817.3279948,55
1766015817.328008,53
1766015817.3280199,56
1766015817.328033,54
1766015817.328052,52
1766015817.328077,49
1766015817.3280902,53
1766015817.3281019,53
1766015817.328115,53
1766015817.328128,54
1766015817.32814,50
1766015817.3281531,53
1766015817.328165,51
1766015817.328178,51
1766015817.3281898,53
1766015817.328202,49
1766015817.3282151,51
1766015817.328227,51
1766015817.3282402,54
1766015817.328253,51
1766015817.328265,53
1766015817.328278,53
1766015817.32829,51
1766015817.328303,51
1766015817.328316,51
1766015817.328328,54
1766015817.328341,51
1766015817.328353,52
1766015817.328366,52
1766015817.3283782,50
1766015817.3283908,51
1766015817.328403,53
1766015817.328415,52
1766015817.328428,48
1766015817.3284411,49
1766015817.328453,51
1766015817.328466,52
1766015817.3284822,50
1766015817.328495,47
1766015817.328508,48
1766015817.3285198,49
1766015817.328535,47
1766015817.3285482,48
1766015817.32856,53
1766015817.328573,49
1766015817.328585,49
1766015817.328598,51
1766015817.32861,51
1766015817.328623,47
1766015817.328635,49
1766015817.3286479,49
1766015817.328714,46
1766015817.328771,48
1766015817.328788,49
1766015817.328801,48
1766015817.328814,47
1766015817.328827,48
1766015817.32884,47
1766015817.328853,49
1766015817.328866,45
1766015817.328904,50
1766015817.328924,47
1766015817.328938,48
1766015817.3289511,48
1766015817.328963,50
1766015817.328976,47
1766015817.328989,45
1766015817.329002,48
1766015817.329015,48
1766015817.3290272,46
1766015817.3290398,48
1766015817.329053,46
1766015817.329066,44
1766015817.329083,45
1766015817.329097,49
1766015817.329109,47
1766015817.329122,46
1766015817.3291368,48
1766015817.329149,47
1766015817.329162,44
1766015817.329175,46
1766015817.3291872,43
1766015817.3292,46
1766015817.329213,48
1766015817.329226,45
1766015817.329238,47
1766015817.329251,45
1766015817.3292632,45
1766015817.3292758,43
1766015817.329289,43
1766015817.3293009,43
1766015817.329314,45
1766015817.329327,45
1766015817.3293388,43
1766015817.329352,44
1766015817.329364,44
1766015817.329377,44
1766015817.32939,44
1766015817.3294022,43
1766015817.3294148,41
1766015817.329431,45
1766015817.329443,44
1766015817.3294551,44
1766015817.329468,44
1766015817.329481,45
1766015817.329493,40
1766015817.329516,43
1766015817.329528,40
1766015817.3295412,43
1766015817.329553,41
1766015817.329566,44
1766015817.329579,43
1766015817.329592,39
1766015817.329605,39
1766015817.3296168,41
1766015817.32963,40
1766015817.329643,43
1766015817.3296561,42
1766015817.329668,43
1766015817.329681,43
1766015817.3296928,42
1766015817.329706,40
1766015817.329719,43
1766015817.3297322,40
1766015817.3297439,40
1766015817.329757,41
1766015817.329769,43
1766015817.329782,40
1766015817.329794,38
1766015817.329807,40
1766015817.32982,38
1766015817.3298318,40
1766015817.329845,38
1766015817.329858,42
1766015817.32987,43
1766015817.3298829,40
1766015817.329895,41
1766015817.329908,42
1766015817.329928,42
1766015817.329941,40
1766015817.3299541,40
1766015817.329967,41
1766015817.329979,38
1766015817.3299918,40
1766015817.330004,41
1766015817.330017,35
1766015817.330029,40
1766015817.3300421,39
1766015817.3300538,41
1766015817.330067,39
1766015817.330079,37
1766015817.330092,38
1766015817.330104,40
1766015817.3301172,39
1766015817.330129,39
1766015817.330142,40
1766015817.330154,38
1766015817.330164,38
1766015817.330175,39
1766015817.330185,39
1766015817.330196,39
1766015817.330206,39
1766015817.330217,36
1766015817.3302279,37
1766015817.3302379,38
1766015817.330249,35
1766015817.3302588,35
1766015817.33027,38
1766015817.3302798,35
1766015817.330291,39
1766015817.330301,40
1766015817.3303192,35
1766015817.3303318,34
1766015817.330343,38
1766015817.3303528,36
1766015817.330364,37
1766015817.330374,35
1766015817.330385,38
1766015817.330395,39
1766015817.330406,36
1766015817.330417,34
1766015817.330427,36
1766015817.330438,38
1766015817.330448,39
1766015817.3304589,36
1766015817.3304698,38
1766015817.33048,36
1766015817.33049,37
1766015817.330501,36
1766015817.330511,35
1766015817.330522,37
1766015817.330532,35
1766015817.330542,35
1766015817.33056,34
1766015817.330571,36
1766015817.330581,33
1766015817.330592,31
1766015817.330602,36
1766015817.330613,32
1766015817.330624,32
1766015817.3306339,37
1766015817.330645,34
1766015817.3306549,38
1766015817.330666,37
1766015817.330683,34
1766015817.3306959,36
1766015817.330706,36
1766015817.3307168,37
1766015817.330728,35
1766015817.3307378,34
1766015817.330749,33
1766015817.3307588,32
1766015817.3307688,34
1766015817.3307798,37
1766015817.330791,30
1766015817.330801,33
1766015817.330812,35
1766015817.330822,33
1766015817.3308318,34
1766015817.330843,35
1766015817.3308532,32
1766015817.3308642,33
1766015817.3308742,35
1766015817.3308852,32
1766015817.3308952,33
1766015817.3309062,31
1766015817.3309162,32
1766015817.3309271,31
1766015817.3309371,35
1766015817.330948,32
1766015817.3309581,31
1766015817.330969,30
1766015817.330979,31
1766015817.33099,31
1766015817.331,32
1766015817.331011,33
1766015817.331021,32
1766015817.331038,34
1766015817.33105,34
1766015817.331062,32
1766015817.331072,35
1766015817.331083,31
1766015817.331093,31
1766015817.331104,32
1766015817.331114,31
1766015817.331125,33
1766015817.331135,28
1766015817.331146,35
1766015817.331156,29
1766015817.331167,29
1766015817.331177,31
1766015817.331187,31
1766015817.331198,29
1766015817.331208,32
1766015817.331219,29
1766015817.33123,30
1766015817.33124,30
1766015817.3312519,33
1766015817.331263,31
1766015817.331273,31
1766015817.331284,33
1766015817.331294,30
1766015817.331305,31
1766015817.331315,27
1766015817.331326,32
1766015817.331338,28
1766015817.331349,28
1766015817.331359,30
1766015817.3313699,27
1766015817.331381,29
1766015817.3313909,30
1766015817.3314161,30
1766015817.331427,25
1766015817.331438,28
1766015817.331449,28
1766015817.33146,28
1766015817.33147,28
1766015817.331481,27
1766015817.331491,24
1766015817.3315022,26
1766015817.3315132,27
1766015817.3315232,32
1766015817.3315341,27
1766015817.3315442,30
1766015817.3315551,26
1766015817.3315651,29
1766015817.331577,33
1766015817.331588,24
1766015817.331598,28
1766015817.331609,28
1766015817.331619,26
1766015817.33163,23
1766015817.33164,23
1766015817.331651,28
1766015817.3316622,27
1766015817.331672,29
1766015817.3316832,27
1766015817.3316941,27
1766015817.3317041,29
1766015817.331715,28
1766015817.3317251,30
1766015817.331736,28
1766015817.331747,30
1766015817.331757,25
1766015817.331775,28
1766015817.331788,28
1766015817.331799,26
1766015817.331809,28
1766015817.33182,28
1766015817.33183,28
1766015817.331841,28
1766015817.331852,28
1766015817.331862,26
1766015817.331873,28
1766015817.3318841,25
1766015817.331894,24
1766015817.3319051,26
1766015817.331916,27
1766015817.331926,26
1766015817.331937,28
1766015817.331948,27
1766015817.331958,31
1766015817.331969,27
1766015817.33198,26
1766015817.33199,26
1766015817.332001,26
1766015817.332011,27
1766015817.332022,28
1766015817.332032,29
1766015817.332043,27
1766015817.332053,27
1766015817.332064,29
1766015817.332074,28
1766015817.332085,26
1766015817.332095,29
1766015817.3321059,28
1766015817.332117,26
1766015817.3321311,25
1766015817.332144,29
1766015817.332155,27
1766015817.332165,25
1766015817.332176,26
1766015817.332187,27
1766015817.3321972,28
1766015817.3322072,30
1766015817.3322182,28
1766015817.3322291,26
1766015817.3322392,27
1766015817.33225,28
1766015817.3322601,28
1766015817.332271,27
1766015817.332281,29
1766015817.332292,25
1766015817.332302,25
1766015817.332313,27
1766015817.332324,28
1766015817.332334,29
1766015817.332345,27
1766015817.332355,26
1766015817.332366,25
1766015817.332376,28
1766015817.332387,25
1766015817.332397,24
1766015817.332408,27
1766015817.332418,25
1766015817.3324292,27
1766015817.3324401,26
1766015817.3324502,29
1766015817.332461,25
1766015817.3324711,27
1766015817.3324852,26
1766015817.332499,28
1766015817.332509,24
1766015817.33252,26
1766015817.33253,25
1766015817.332541,25
1766015817.332552,26
1766015817.332562,24
1766015817.332573,25
1766015817.332583,28
1766015817.332594,25
1766015817.332604,27
1766015817.332615,23
1766015817.332625,27
1766015817.3326359,24
1766015817.332646,25
1766015817.3326569,27
1766015817.3326669,23
1766015817.3326778,22
1766015817.3326879,24
1766015817.3326988,25
1766015817.332709,23
1766015817.33272,26
1766015817.33273,27
1766015817.332741,25
1766015817.332752,23
1766015817.332762,22
1766015817.3327732,25
1766015817.3327842,26
1766015817.3327942,26
1766015817.3328052,25
1766015817.3328152,25
1766015817.3328261,25
1766015817.33284,27
1766015817.332854,26
1766015817.332864,25
1766015817.332876,23
1766015817.332886,26
1766015817.332897,24
1766015817.332908,22
1766015817.3329191,26
1766015817.33293,24
1766015817.33294,26
1766015817.332951,24
1766015817.332961,24
1766015817.332972,23
1766015817.332983,23
1766015817.332993,26
1766015817.333004,27
1766015817.333014,25
1766015817.333025,26
1766015817.333036,27
1766015817.333046,26
1766015817.333057,23
1766015817.333067,21
1766015817.333078,25
1766015817.333089,27
1766015817.3330991,23
1766015817.33311,25
1766015817.33312,24
1766015817.333131,25
1766015817.333141,26
1766015817.333152,26
1766015817.333162,24
1766015817.333173,25
1766015817.333183,24
1766015817.333197,28
1766015817.3332102,28
1766015817.3332212,26
1766015817.3332312,26
1766015817.3332422,23
1766015817.3332522,25
1766015817.3332632,25
1766015817.3332732,24
1766015817.3332841,22
1766015817.333295,23
1766015817.3333051,23
1766015817.333316,24
1766015817.333326,28
1766015817.333337,24
1766015817.333347,27
1766015817.333358,25
1766015817.333368,26
1766015817.333379,22
1766015817.333389,27
1766015817.3334,22
1766015817.333411,25
1766015817.333421,22
1766015817.333432,23
1766015817.333442,24
1766015817.333453,25
1766015817.333466,23
1766015817.333476,22
1766015817.333487,21
1766015817.333498,26
1766015817.333508,24
1766015817.3335192,24
1766015817.3335302,23
1766015817.3335402,24
1766015817.3335512,26
1766015817.3335612,25
1766015817.3335721,27
1766015817.333583,24
1766015817.3335931,22
1766015817.333604,27
1766015817.333615,24
1766015817.333625,24
1766015817.333636,26
1766015817.333646,27
1766015817.333657,26
1766015817.333667,23
1766015817.333678,22
1766015817.333688,25
1766015817.333699,25
1766015817.333709,28
1766015817.33372,27
1766015817.3337312,26
1766015817.3337421,25
1766015817.3337522,25
1766015817.3337631,21
1766015817.3337731,22
1766015817.333784,25
1766015817.333795,23
1766015817.333805,26
1766015817.333816,25
1766015817.333826,27
1766015817.333837,25
1766015817.333848,24
1766015817.333858,28
1766015817.333869,25
1766015817.333879,23
1766015817.33389,25
1766015817.3339012,26
1766015817.333911,26
1766015817.3339221,27
1766015817.333932,23
1766015817.3339431,24
1766015817.333954,26
1766015817.333964,22
1766015817.333975,26
1766015817.333985,26
1766015817.333996,23
1766015817.334006,25
1766015817.334017,25
1766015817.334027,25
1766015817.334038,24
1766015817.334048,24
1766015817.334059,26
1766015817.33407,23
1766015817.33408,22
1766015817.334091,27
1766015817.334101,24
1766015817.334112,24
1766015817.334123,26
1766015817.334133,28
1766015817.334144,27
1766015817.334154,25
1766015817.334165,22
1766015817.3341749,26
1766015817.334186,24
1766015817.3341959,26
1766015817.334207,29
1766015817.334217,28
1766015817.334228,26
1766015817.334239,25
1766015817.334249,23
1766015817.33426,27
1766015817.33427,26
1766015817.334281,24
1766015817.334292,26
1766015817.334302,24
1766015817.334313,26
1766015817.334323,25
1766015817.334334,27
1766015817.3343449,24
1766015817.3343549,27
1766015817.3343658,26
1766015817.3343759,27
1766015817.3343868,27
1766015817.3343968,27
1766015817.334408,27
1766015817.3344178,31
1766015817.334429,32
1766015817.3344388,24
1766015817.33445,26
1766015817.334461,29
1766015817.334472,28
1766015817.334482,26
1766015817.334493,29
1766015817.334503,28
1766015817.334514,25
1766015817.3345249,27
1766015817.334535,25
1766015817.3345459,26
1766015817.3345559,29
1766015817.3345668,26
1766015817.334578,24
1766015817.3345878,28
1766015817.3345978,28
1766015817.3346088,27
1766015817.3346188,28
1766015817.3346298,27
1766015817.334641,28
1766015817.334651,27
1766015817.334662,28
1766015817.334672,28
1766015817.334683,27
1766015817.3346932,24
1766015817.3347042,27
1766015817.3347142,26
1766015817.3347251,28
1766015817.3347359,27
1766015817.3347461,28
1766015817.334757,28
1766015817.334767,31
1766015817.334778,27
1766015817.334788,30
1766015817.334799,29
1766015817.33481,29
1766015817.33482,29
1766015817.334831,27
1766015817.3348422,26
1766015817.334852,29
1766015817.3348632,27
1766015817.3348732,30
1766015817.3348842,28
1766015817.3348942,27
1766015817.3349051,24
1766015817.3349152,30
1766015817.3349261,30
1766015817.3349361,28
1766015817.334947,26
1766015817.3349571,27
1766015817.334968,31
1766015817.334978,25
1766015817.334989,30
1766015817.334999,30
1766015817.33501,30
1766015817.335021,29
1766015817.335031,25
1766015817.335042,27
1766015817.335053,27
1766015817.335063,28
1766015817.335073,30
1766015817.335084,26
1766015817.335094,27
1766015817.335105,28
1766015817.3351161,30
1766015817.335126,25
1766015817.3351371,28
1766015817.335147,27
1766015817.335157,28
1766015817.335168,29
1766015817.335179,25
1766015817.335189,29
1766015817.3352,27
1766015817.33521,26
1766015817.335221,27
1766015817.335231,23
1766015817.335242,26
1766015817.335252,28
1766015817.335263,29
1766015817.335274,29
1766015817.335284,28
1766015817.335295,24
1766015817.335305,24
1766015817.335316,28
1766015817.335326,27
1766015817.335337,23
1766015817.335347,30
1766015817.335358,26
1766015817.3353689,25
1766015817.335379,28
1766015817.3353899,28
1766015817.3353999,26
1766015817.3354108,26
1766015817.335422,27
1766015817.335432,27
1766015817.335443,26
1766015817.335454,27
1766015817.335465,26
1766015817.335476,28
1766015817.335486,27
1766015817.335497,24
1766015817.3355079,30
1766015817.335518,27
1766015817.3355289,24
1766015817.33554,28
1766015817.33555,26
1766015817.335561,25
1766015817.335572,25
1766015817.335583,25
1766015817.335594,23
1766015817.335605,25
1766015817.335616,24
1766015817.335627,24
1766015817.335638,25
1766015817.336502,25
1766015817.337495,28
1766015817.338513,25
1766015817.339519,26
1766015817.3405252,23
1766015817.341524,24
1766015817.3425221,26
1766015817.343552,26
1766015817.344543,31
1766015817.345529,26
1766015817.346536,25
1766015817.347563,26
1766015817.348564,25
1766015817.3495638,25
1766015817.3505569,26
1766015817.3515599,28
1766015817.352549,26
1766015817.3535528,24
1766015817.3545642,25
1766015817.355547,27
1766015817.356574,24
1766015817.357582,25
1766015817.3585742,26
1766015817.3595881,25
1766015817.3605828,26
1766015817.3615801,25
1766015817.3625941,29
1766015817.3635998,28
1766015817.364606,26
1766015817.3655849,26
1766015817.366606,25
1766015817.367618,26
1766015817.368615,27
1766015817.369612,24
1766015817.370622,25
1766015817.371606,25
1766015817.3726258,28
1766015817.373653,25
1766015817.3745852,23
1766015817.375592,25
1766015817.376596,25
1766015817.377594,24
1766015817.378592,24
1766015817.3795788,26
1766015817.380595,27
1766015817.3816268,27
1766015817.382644,24
1766015817.3836758,24
1766015817.384629,28
1766015817.385652,25
1766015817.386642,26
1766015817.387672,25
1766015817.388663,28
1766015817.38967,24
1766015817.390635,25
1766015817.3916538,26
1766015817.39266,28
1766015817.393664,26
1766015817.3946629,26
1766015817.395627,25
1766015817.396659,26
1766015817.397686,22
1766015817.398734,27
1766015817.399704,26
1766015817.400691,26
1766015817.40169,24
1766015817.402694,26
1766015817.403637,28
1766015817.4046872,22
1766015817.405696,23
1766015817.406699,26
1766015817.407705,25
1766015817.408704,24
1766015817.409673,25
1766015817.410702,25
1766015817.411674,25
1766015817.412715,24
1766015817.413823,25
1766015817.414716,25
1766015817.415684,24
1766015817.4167008,26
1766015817.4177,23
1766015817.418727,25
1766015817.4197419,22
1766015817.4207108,23
1766015817.421742,25
1766015817.422747,22
1766015817.423733,24
1766015817.424736,24
1766015817.425761,24
1766015817.4267478,24
1766015817.4277608,22
1766015817.428769,22
1766015817.429773,23
1766015817.430754,24
1766015817.431783,27
1766015817.432778,24
1766015817.433779,24
1766015817.434774,25
1766015817.435787,22
1766015817.436797,22
1766015817.437793,22
1766015817.438792,22
1766015817.4397922,25
1766015817.440789,24
1766015817.44181,19
1766015817.4428108,27
1766015817.44381,24
1766015817.4448152,23
1766015817.4458141,24
1766015817.446819,23
1766015817.4478168,23
1766015817.4488142,25
1766015817.449825,23
1766015817.4508128,24
1766015817.451831,23
1766015817.452827,26
1766015817.453839,25
1766015817.454832,21
1766015817.455828,22
1766015817.456835,23
1766015817.4578428,24
1766015817.458858,23
1766015817.459862,24
1766015817.460845,25
1766015817.461864,25
1766015817.462867,26
1766015817.463884,24
1766015817.4648619,22
1766015817.4658828,22
1766015817.4668958,24
1766015817.467874,24
1766015817.4688718,20
1766015817.469882,23
1766015817.4708931,25
1766015817.4718962,27
1766015817.4728901,25
1766015817.473897,24
1766015817.474897,24
1766015817.4759161,23
1766015817.476903,22
1766015817.4779148,25
1766015817.478913,25
1766015817.479918,26
1766015817.480912,22
1766015817.48192,24
1766015817.482902,24
1766015817.4839208,26
1766015817.484926,24
1766015817.485923,24
1766015817.486918,21
1766015817.487927,26
1766015817.488928,22
1766015817.48995,24
1766015817.490945,24
1766015817.491953,23
1766015817.492948,24
1766015817.493932,24
1766015817.4949398,24
1766015817.4959428,23
1766015817.496959,23
1766015817.497958,20
1766015817.498973,22
1766015817.499968,23
1766015817.500968,22
1766015817.501961,23
1766015817.502954,21
1766015817.503958,20
1766015817.504964,23
1766015817.505972,20
1766015817.5069811,21
1766015817.507954,23
1766015817.508978,20
1766015817.5099761,20
1766015817.510999,21
1766015817.511984,22
1766015817.513003,21
1766015817.5140018,24
1766015817.5150132,26
1766015817.516012,26
1766015817.517023,21
1766015817.5179992,22
1766015817.519017,24
1766015817.520031,23
1766015817.521031,22
1766015817.522034,23
1766015817.523021,22
1766015817.52403,20
1766015817.5250392,21
1766015817.5260391,23
1766015817.527044,21
1766015817.528051,23
1766015817.529045,24
1766015817.530047,21
1766015817.531052,22
1766015817.532059,22
1766015817.533067,24
1766015817.5340512,25
1766015817.535077,25
1766015817.536083,25
1766015817.53708,26
1766015817.538069,24
1766015817.539073,24
1766015817.5400782,23
1766015817.54108,23
1766015817.542079,20
1766015817.5430841,20
1766015817.544091,23
1766015817.5451121,21
1766015817.5460942,23
1766015817.547106,25
1766015817.5481012,24
1766015817.549105,24
1766015817.550112,24
1766015817.551193,25
1766015817.552196,26
1766015817.553205,20
1766015817.554105,19
1766015817.5551949,22
1766015817.55619,25
1766015817.557195,20
1766015817.558194,22
1766015817.559198,24
1766015817.56019,22
1766015817.56119,25
1766015817.562192,24
1766015817.563191,27
1766015817.564194,24
1766015817.565194,24
1766015817.5661912,23
1766015817.567206,23
1766015817.568191,22
1766015817.569203,25
1766015817.570195,26
1766015817.5712,26
1766015817.5721998,23
1766015817.573198,26
1766015817.5742002,23
1766015817.575201,21
1766015817.5762,21
1766015817.5771918,23
1766015817.578193,24
1766015817.579198,28
1766015817.5802,22
1766015817.581198,21
1766015817.582191,26
1766015817.5832121,24
1766015817.584204,25
1766015817.585206,26
1766015817.5862122,26
1766015817.587212,24
1766015817.588219,25
1766015817.5892239,26
1766015817.590227,24
1766015817.591229,24
1766015817.592232,26
1766015817.59323,24
1766015817.5942268,28
1766015817.5952199,21
1766015817.596236,25
1766015817.597249,24
1766015817.598242,22
1766015817.599242,21
1766015817.6002371,25
1766015817.601249,23
1766015817.602251,23
1766015817.603244,25
1766015817.604238,22
1766015817.605264,27
1766015817.6062562,26
1766015817.607269,26
1766015817.608279,27
1766015817.609278,22
1766015817.61028,24
1766015817.6112828,22
1766015817.612277,26
1766015817.61328,25
1766015817.6142862,24
1766015817.615294,26
1766015817.616297,28
1766015817.617294,28
1766015817.618309,29
1766015817.619303,27
1766015817.620302,29
1766015817.6213171,26
1766015817.622324,30
1766015817.623326,29
1766015817.624314,26
1766015817.625321,24
1766015817.6263192,27
1766015817.627318,28
1766015817.628337,27
1766015817.6293252,31
1766015817.6303182,27
1766015817.631352,27
1766015817.63235,30
1766015817.63335,30
1766015817.6343648,31
1766015817.635335,35
1766015817.636353,29
1766015817.637355,34
1766015817.6383512,30
1766015817.639353,30
1766015817.640377,30
1766015817.641388,30
1766015817.6423712,31
1766015817.643383,31
1766015817.6443908,30
1766015817.64539,35
1766015817.646401,28
1766015817.647377,29
1766015817.64841,33
1766015817.649397,30
1766015817.6504,30
1766015817.651409,33
1766015817.6524081,38
1766015817.6534069,42
1766015817.6544168,45
1766015817.6554089,47
1766015817.656418,56
1766015817.657417,57
1766015817.65842,57
1766015817.659421,60
1766015817.660439,57
1766015817.661435,58
1766015817.662431,63
1766015817.66342,62
1766015817.664441,64
1766015817.6654348,67
1766015817.6664362,62
1766015817.667448,63
1766015817.6684449,62
1766015817.6694558,66
1766015817.6704562,64
1766015817.6714618,65
1766015817.67246,66
1766015817.6734662,70
1766015817.674463,72
1766015817.675456,69
1766015817.676455,71
1766015817.67747,71
1766015817.6784902,72
1766015817.679473,73
1766015817.680446,70
1766015817.6814568,71
1766015817.6824498,70
1766015817.683504,74
1766015817.6844978,70
1766015817.685483,72
1766015817.686499,70
1766015817.6875,71
1766015817.688512,70
1766015817.6895099,70
1766015817.690512,69
1766015817.691521,69
1766015817.692526,73
1766015817.693509,72
1766015817.694537,73
1766015817.695521,73
1766015817.696515,75
1766015817.6975548,78
1766015817.698548,75
1766015817.699552,74
1766015817.7005389,76
1766015817.70154,77
1766015817.7025468,78
1766015817.7035542,75
1766015817.704557,75
1766015817.705548,73
1766015817.7065458,77
1766015817.7075589,74
1766015817.708553,75
1766015817.709562,77
1766015817.710561,79
1766015817.711561,86
1766015817.712561,90
1766015817.713575,97
1766015817.714665,100
1766015817.7156742,104
1766015817.716686,104
1766015817.717689,101
1766015817.718677,103
1766015817.71968,101
1766015817.72068,103
1766015817.721684,101
1766015817.722711,103
1766015817.72369,106
1766015817.7246962,105
1766015817.725696,103
1766015817.726707,105
1766015817.727711,106
1766015817.728713,109
1766015817.729713,106
1766015817.730726,107
1766015817.7317288,107
1766015817.7327302,104
1766015817.733731,106
1766015817.73472,107
1766015817.735735,106
1766015817.736744,107
1766015817.737731,104
1766015817.7387352,103
1766015817.739737,102
1766015817.740737,102
1766015817.741739,101
1766015817.742743,100
1766015817.743753,101
1766015817.744677,98
1766015817.745688,97
1766015817.746686,99
1766015817.747662,99
1766015817.748775,102
1766015817.749768,105
1766015817.750794,109
1766015817.751776,112
1766015817.752786,116
1766015817.7537699,120
1766015817.754768,118
1766015817.755778,123
1766015817.756796,122
1766015817.757799,119
1766015817.758795,120
1766015817.7597911,120
1766015817.760797,116
1766015817.7617989,116
1766015817.7628071,114
1766015817.7638028,119
1766015817.764808,121
1766015817.765824,131
1766015817.766828,141
1766015817.767824,144
1766015817.768832,146
1766015817.769834,148
1766015817.770824,145
1766015817.771832,145
1766015817.772831,144
1766015817.773856,145
1766015817.774849,144
1766015817.775847,145
1766015817.77685,144
1766015817.777844,147
1766015817.778868,145
1766015817.779861,145
1766015817.780852,150
1766015817.781876,157
1766015817.782851,162
1766015817.78386,168
1766015817.784857,169
1766015817.785886,169
1766015817.786896,171
1766015817.787872,169
1766015817.788875,170
1766015817.7898822,171
1766015817.790879,175
1766015817.7918878,174
1766015817.792892,166
1766015817.7938979,175
1766015817.794909,187
1766015817.795889,198
1766015817.7968938,218
1766015817.797911,233
1766015817.798901,248
1766015817.799905,246
1766015817.800917,250
1766015817.801923,251
1766015817.802919,250
1766015817.803933,250
1766015817.8049128,245
1766015817.805911,245
1766015817.806931,244
1766015817.807936,243
1766015817.80894,247
1766015817.8099241,242
1766015817.81091,245
1766015817.8119411,244
1766015817.8129432,241
1766015817.813932,241
1766015817.814931,239
1766015817.815935,236
1766015817.816948,236
1766015817.817937,235
1766015817.818965,231
1766015817.819972,226
1766015817.820964,224
1766015817.821973,222
1766015817.822955,223
1766015817.8239832,220
1766015817.824976,221
1766015817.825975,217
1766015817.8269892,213
1766015817.8279948,210
1766015817.828994,207
1766015817.8299782,203
1766015817.830981,203
1766015817.831984,202
1766015817.832994,197
1766015817.8339992,193
1766015817.8350139,193
1766015817.836001,190
1766015817.837006,187
1766015817.838007,186
1766015817.839019,186
1766015817.84001,186
1766015817.8410082,187
1766015817.842016,183
1766015817.8430269,183
1766015817.8440351,184
1766015817.845014,181
1766015817.846018,181
1766015817.847022,176
1766015817.8480241,177
1766015817.849032,177
1766015817.850032,177
1766015817.851037,175
1766015817.852035,175
1766015817.85305,173
1766015817.854051,172
1766015817.855051,172
1766015817.8560598,171
1766015817.8570728,166
1766015817.858057,167
1766015817.859065,167
1766015817.860061,165
1766015817.861082,164
1766015817.862085,168
1766015817.863072,165
1766015817.864094,165
1766015817.8650901,161
1766015817.866079,159
1766015817.867104,157
1766015817.868103,153
1766015817.869102,155
1766015817.870095,154
1766015817.871115,152
1766015817.8721201,149
1766015817.87311,148
1766015817.8741188,147
1766015817.875207,145
1766015817.8761978,144
1766015817.877203,142
1766015817.878201,144
1766015817.879203,141
1766015817.880204,142
1766015817.881203,146
1766015817.8822,150
1766015817.883203,154
1766015817.884203,159
1766015817.885201,157
1766015817.8862011,157
1766015817.8872058,157
1766015817.888202,158
1766015817.889208,156
1766015817.8902059,157
1766015817.8912058,160
1766015817.8922071,158
1766015817.893204,154
1766015817.89421,155
1766015817.895203,152
1766015817.896205,149
1766015817.897213,149
1766015817.898205,146
1766015817.899209,144
1766015817.900199,145
1766015817.9012082,142
1766015817.9022021,144
1766015817.9032052,146
1766015817.904213,144
1766015817.90521,143
1766015817.906207,145
1766015817.907211,147
1766015817.908213,151
1766015817.909215,153
1766015817.910207,155
1766015817.9112341,150
1766015817.912229,151
1766015817.9132311,150
1766015817.914218,149
1766015817.915232,146
1766015817.916221,146
1766015817.917229,146
1766015817.91823,147
1766015817.919242,142
1766015817.920234,143
1766015817.9212348,140
1766015817.922234,142
1766015817.923253,138
1766015817.924256,136
1766015817.925241,136
1766015817.926243,137
1766015817.9272661,131
1766015817.92826,135
1766015817.929266,133
1766015817.930275,134
1766015817.931274,134
1766015817.9322612,134
1766015817.933273,134
1766015817.934256,134
1766015817.935286,135
1766015817.936276,134
1766015817.937282,136
1766015817.938272,130
1766015817.939293,132
1766015817.9402938,130
1766015817.941293,127
1766015817.942299,127
1766015817.943294,125
1766015817.944302,124
1766015817.945288,120
1766015817.946295,121
1766015817.947315,122
1766015817.948301,118
1766015817.949295,117
1766015817.9503071,119
1766015817.951344,118
1766015817.9523468,119
1766015817.953335,115
1766015817.9543319,115
1766015817.955338,113
1766015817.956343,115
1766015817.957332,112
1766015817.958345,114
1766015817.959358,110
1766015817.960356,110
1766015817.961319,108
1766015817.9623308,109
1766015817.963326,108
1766015817.964304,106
1766015817.9653382,106
1766015817.9663239,102
1766015817.967336,104
1766015817.968338,100
1766015817.969342,102
1766015817.970248,99
1766015817.9712389,99
1766015817.972238,99
1766015817.973263,98
1766015817.97425,95
1766015817.9752388,93
1766015817.9763021,91
1766015817.977299,91
1766015817.978296,91
1766015817.979316,90
1766015817.980293,88
1766015817.981299,89
1766015817.9822688,89
1766015817.9833379,88
1766015817.9843142,84
1766015817.985316,84
1766015817.986346,82
1766015817.9873438,84
1766015817.9883149,83
1766015817.989343,88
1766015817.9903412,87
1766015817.9913568,91
1766015817.99237,98
1766015817.9934561,101
1766015817.994457,102
1766015817.995455,107
1766015817.99646,116
1766015817.997458,121
1766015817.998471,129
1766015817.999465,124
1766015818.00047,127
1766015818.001468,125
1766015818.0024729,123
1766015818.003459,128
1766015818.0044749,132
1766015818.0054662,134
1766015818.006497,131
1766015818.007461,131
1766015818.008492,135
1766015818.009485,133
1766015818.010506,132
1766015818.01149,127
1766015818.0125031,126
1766015818.013505,122
1766015818.0145018,126
1766015818.015499,123
1766015818.016521,121
1766015818.017505,123
1766015818.018516,119
1766015818.019563,120
1766015818.020524,117
1766015818.0215192,118
1766015818.022519,114
1766015818.02355,113
1766015818.02454,113
1766015818.0255501,115
1766015818.0264971,111
1766015818.0275269,112
1766015818.0285351,109
1766015818.029536,106
1766015818.030536,106
1766015818.031553,105
1766015818.032558,103
1766015818.033557,104
1766015818.034558,103
1766015818.0355258,100
1766015818.036469,98
1766015818.037565,101
1766015818.0384672,98
1766015818.0394711,95
1766015818.040478,94
1766015818.041485,92
1766015818.042481,94
1766015818.043482,93
1766015818.044487,90
1766015818.045452,89
1766015818.0464928,86
1766015818.047494,86
1766015818.048487,88
1766015818.049504,85
1766015818.050507,83
1766015818.051512,83
1766015818.052511,84
1766015818.0534668,84
1766015818.054498,81
1766015818.055501,81
1766015818.056513,81
1766015818.057478,80
1766015818.058512,77
1766015818.0595222,78
1766015818.0605361,75
1766015818.061507,76
1766015818.0625348,76
1766015818.063552,75
1766015818.0645592,79
1766015818.065514,82
1766015818.066515,86
1766015818.06753,92
1766015818.068543,92
1766015818.0695732,94
1766015818.070566,94
1766015818.071559,95
1766015818.072578,96
1766015818.073573,97
1766015818.07457,97
1766015818.075575,96
1766015818.076586,94
1766015818.077562,96
1766015818.078573,96
1766015818.0795798,95
1766015818.080592,95
1766015818.081595,94
1766015818.082588,92
1766015818.083585,94
1766015818.084586,94
1766015818.0856051,95
1766015818.086625,94
1766015818.087608,94
1766015818.0886059,95
1766015818.089613,94
1766015818.090592,96
1766015818.09158,96
1766015818.0926368,95
1766015818.093628,99
1766015818.0946188,98
1766015818.095623,96
1766015818.0966332,95
1766015818.097631,95
1766015818.09863,93
1766015818.099649,92
1766015818.1006532,92
1766015818.101664,93
1766015818.1026602,91
1766015818.10366,93
1766015818.1046789,92
1766015818.105673,94
1766015818.106666,91
1766015818.107659,93
1766015818.108661,92
1766015818.109659,90
1766015818.1106591,92
1766015818.1116931,90
1766015818.112693,90
1766015818.1136699,87
1766015818.1147,86
1766015818.1156878,87
1766015818.116698,88
1766015818.1177,88
1766015818.1187,84
1766015818.119703,82
1766015818.120716,85
1766015818.1217139,83
1766015818.1227012,81
1766015818.1237068,79
1766015818.124732,78
1766015818.1257138,82
1766015818.1267269,80
1766015818.127724,80
1766015818.1287339,82
1766015818.12974,82
1766015818.130738,80
1766015818.131732,80
1766015818.1327481,79
1766015818.133734,82
1766015818.134738,78
1766015818.135743,75
1766015818.1367512,75
1766015818.137753,77
1766015818.1387498,74
1766015818.139742,74
1766015818.1407738,77
1766015818.14177,76
1766015818.1427689,75
1766015818.143771,74
1766015818.14478,72
1766015818.1457732,70
1766015818.146781,69
1766015818.147774,71
1766015818.148789,71
1766015818.149778,69
1766015818.150794,71
1766015818.151789,71
1766015818.1527839,71
1766015818.153791,71
1766015818.154798,70
1766015818.1558,73
1766015818.156815,71
1766015818.157803,71
1766015818.158807,70
1766015818.159801,69
1766015818.1608121,68
1766015818.16181,68
1766015818.162827,69
1766015818.1638222,68
1766015818.164822,64
1766015818.1658251,68
1766015818.1668239,69
1766015818.167828,67
1766015818.1688378,67
1766015818.1698282,68
1766015818.1708338,67
1766015818.171853,71
1766015818.1728451,67
1766015818.173857,69
1766015818.1748679,67
1766015818.17587,65
1766015818.1768472,66
1766015818.177854,65
1766015818.178849,65
1766015818.179877,69
1766015818.180884,71
1766015818.181895,77
1766015818.182869,81
1766015818.1838799,81
1766015818.1848938,84
1766015818.185892,88
1766015818.1868942,89
1766015818.187906,90
1766015818.1889138,90
1766015818.18992,91
1766015818.190902,96
1766015818.191998,101
1766015818.192926,99
1766015818.1939998,102
1766015818.195008,101
1766015818.19602,100
1766015818.197008,102
1766015818.198019,100
1766015818.199029,102
1766015818.200019,102
1766015818.2010329,103
1766015818.2020218,101
1766015818.203028,101
1766015818.203954,98
1766015818.204937,98
1766015818.205939,95
1766015818.206943,96
1766015818.2079518,96
1766015818.20895,95
1766015818.209955,92
1766015818.2109618,94
1766015818.211961,93
1766015818.212955,94
1766015818.213961,94
1766015818.2149591,92
1766015818.215963,90
1766015818.216964,89
1766015818.217964,88
1766015818.218962,87
1766015818.2199838,88
1766015818.220978,86
1766015818.2219892,83
1766015818.222968,84
1766015818.22399,85
1766015818.224972,83
1766015818.225981,81
1766015818.22701,85
1766015818.228014,79
1766015818.229001,82
1766015818.2300181,80
1766015818.231019,80
1766015818.232007,79
1766015818.233011,76
1766015818.234029,78
1766015818.235022,75
1766015818.2360198,75
1766015818.237031,75
1766015818.2380202,75
1766015818.239037,75
1766015818.2400389,80
1766015818.24103,79
1766015818.242048,76
1766015818.24304,79
1766015818.2440598,78
1766015818.245047,80
1766015818.2460449,84
1766015818.24705,82
1766015818.248052,82
1766015818.249063,84
1766015818.250071,81
1766015818.2510662,80
1766015818.2520618,77
1766015818.2530859,79
1766015818.2540631,78
1766015818.255071,76
1766015818.2560651,75
1766015818.257065,77
1766015818.258073,74
1766015818.259081,74
1766015818.260097,75
1766015818.2610781,74
1766015818.2620952,72
1766015818.263097,75
1766015818.264101,74
1766015818.265099,76
1766015818.2661068,78
1766015818.267191,78
1766015818.268192,76
1766015818.269105,78
1766015818.2702029,77
1766015818.271195,76
1766015818.2721999,79
1766015818.27321,80
1766015818.274204,80
1766015818.2752,77
1766015818.2761972,79
1766015818.2772028,77
1766015818.2781901,76
1766015818.2792,79
1766015818.2802,76
1766015818.281205,77
1766015818.2821991,77
1766015818.283197,79
1766015818.284199,78
1766015818.285205,79
1766015818.2862039,77
1766015818.2872021,77
1766015818.288197,80
1766015818.2892082,77
1766015818.290196,74
1766015818.2912052,76
1766015818.292196,76
1766015818.293189,72
1766015818.294195,72
1766015818.2951949,74
1766015818.2961988,71
1766015818.2972002,69
1766015818.298207,72
1766015818.299202,81
1766015818.300203,88
1766015818.301204,93
1766015818.302316,100
1766015818.303301,103
1766015818.304319,107
1766015818.30532,106
1766015818.306313,108
1766015818.307342,109
1766015818.308327,109
1766015818.3093472,115
1766015818.310337,116
