timestamp,emg_value
1766015849.585807,123
1766015849.5858319,125
1766015849.5858529,130
1766015849.585873,130
1766015849.5858922,131
1766015849.585912,132
1766015849.5859299,131
1766015849.585949,133
1766015849.585968,130
1766015849.585987,131
1766015849.586006,130
1766015849.586025,128
1766015849.5860438,127
1766015849.5860622,124
1766015849.586081,124
1766015849.586099,123
1766015849.586118,124
1766015849.586137,121
1766015849.5861561,125
1766015849.586174,121
1766015849.5861928,118
1766015849.5862122,121
1766015849.586231,118
1766015849.5862489,118
1766015849.586267,116
1766015849.586296,115
1766015849.586317,115
1766015849.586335,113
1766015849.586354,113
1766015849.5863721,111
1766015849.586391,112
1766015849.5864089,113
1766015849.586428,111
1766015849.586447,112
1766015849.5864651,112
1766015849.586483,109
1766015849.5865018,109
1766015849.5865228,106
1766015849.586541,108
1766015849.58656,105
1766015849.5865788,106
1766015849.586609,109
1766015849.5866282,104
1766015849.586647,105
1766015849.586665,106
1766015849.586684,105
1766015849.586702,110
1766015849.586721,108
1766015849.5867388,106
1766015849.5867572,109
1766015849.586776,109
1766015849.5867982,110
1766015849.586818,108
1766015849.586838,106
1766015849.5868568,109
1766015849.586876,109
1766015849.586894,111
1766015849.586913,116
1766015849.586931,117
1766015849.586949,116
1766015849.586968,113
1766015849.586987,119
1766015849.587005,117
1766015849.587025,120
1766015849.587044,122
1766015849.5870662,117
1766015849.587085,118
1766015849.587104,119
1766015849.587122,117
1766015849.587141,119
1766015849.587162,122
1766015849.587181,120
1766015849.587199,122
1766015849.5872178,122
1766015849.5872371,123
1766015849.587255,121
1766015849.587274,124
1766015849.587299,121
1766015849.587318,117
1766015849.587337,116
1766015849.587355,117
1766015849.587374,115
1766015849.587392,116
1766015849.587411,112
1766015849.587429,113
1766015849.5874481,113
1766015849.587467,109
1766015849.5874848,111
1766015849.5875041,110
1766015849.587523,111
1766015849.587541,110
1766015849.58756,108
1766015849.5875788,108
1766015849.587599,113
1766015849.58762,111
1766015849.587638,109
1766015849.587657,110
1766015849.5876749,108
1766015849.5876942,107
1766015849.587713,107
1766015849.587732,107
1766015849.58775,107
1766015849.5877702,104
1766015849.5877912,104
1766015849.5878139,100
1766015849.58783,99
1766015849.587845,98
1766015849.5878599,96
1766015849.587879,100
1766015849.587902,101
1766015849.587924,100
1766015849.58794,99
1766015849.587955,99
1766015849.587973,100
1766015849.587992,103
1766015849.5880089,105
1766015849.5880241,108
1766015849.5880399,107
1766015849.588056,106
1766015849.5880718,108
1766015849.588087,109
1766015849.5881028,109
1766015849.588119,108
1766015849.588135,110
1766015849.58815,109
1766015849.588166,109
1766015849.588182,113
1766015849.588198,112
1766015849.588213,109
1766015849.5882308,106
1766015849.5882492,106
1766015849.588268,111
1766015849.588284,111
1766015849.5883,121
1766015849.588316,127
1766015849.5883331,131
1766015849.588348,136
1766015849.5883641,132
1766015849.5883799,133
1766015849.588396,134
1766015849.5884118,131
1766015849.588427,131
1766015849.5884428,131
1766015849.588459,130
1766015849.588475,133
1766015849.58849,138
1766015849.5885062,141
1766015849.588524,138
1766015849.588541,138
1766015849.588556,143
1766015849.588573,136
1766015849.5885901,137
1766015849.5886059,140
1766015849.588626,137
1766015849.588643,138
1766015849.588659,139
1766015849.5886772,140
1766015849.588696,139
1766015849.588712,136
1766015849.588728,136
1766015849.588744,136
1766015849.588759,137
1766015849.5887759,136
1766015849.588794,132
1766015849.58881,134
1766015849.588825,132
1766015849.5888472,133
1766015849.588864,128
1766015849.5888798,130
1766015849.588895,132
1766015849.588911,128
1766015849.588927,126
1766015849.588943,125
1766015849.588959,126
1766015849.5889752,119
1766015849.588991,124
1766015849.5890071,124
1766015849.5890229,122
1766015849.589039,124
1766015849.589056,119
1766015849.589072,119
1766015849.589088,117
1766015849.5891058,119
1766015849.5891252,117
1766015849.589141,117
1766015849.589157,116
1766015849.589173,112
1766015849.58919,117
1766015849.589205,112
1766015849.5892212,110
1766015849.589237,108
1766015849.5892532,110
1766015849.589268,109
1766015849.589289,109
1766015849.5893052,113
1766015849.58932,109
1766015849.5893362,114
1766015849.589352,113
1766015849.589368,110
1766015849.5893838,111
1766015849.589399,111
1766015849.5894148,112
1766015849.589431,113
1766015849.589447,108
1766015849.589463,109
1766015849.589479,112
1766015849.589494,111
1766015849.58951,110
1766015849.589528,112
1766015849.589547,109
1766015849.589563,111
1766015849.589579,110
1766015849.5895948,110
1766015849.589611,110
1766015849.58963,109
1766015849.589647,109
1766015849.589663,108
1766015849.5896802,105
1766015849.589695,109
1766015849.5897112,108
1766015849.589728,107
1766015849.589744,108
1766015849.58976,106
1766015849.5897758,107
1766015849.589792,108
1766015849.589813,107
1766015849.58983,104
1766015849.589845,104
1766015849.5898612,105
1766015849.589878,106
1766015849.5898938,108
1766015849.589909,107
1766015849.589925,111
1766015849.5899441,109
1766015849.589962,110
1766015849.5899782,108
1766015849.589994,110
1766015849.590014,105
1766015849.5900302,106
1766015849.590046,105
1766015849.5900621,106
1766015849.5900779,103
1766015849.5900931,101
1766015849.5901089,100
1766015849.590122,99
1766015849.590135,99
1766015849.5901508,100
1766015849.590164,96
1766015849.590177,99
1766015849.5901902,99
1766015849.590206,101
1766015849.590218,98
1766015849.590231,96
1766015849.590244,96
1766015849.59026,100
1766015849.590276,102
1766015849.590293,101
1766015849.590307,98
1766015849.5903192,98
1766015849.590334,99
1766015849.590349,100
1766015849.590365,100
1766015849.590378,96
1766015849.590394,97
1766015849.590411,96
1766015849.590424,93
1766015849.5904372,96
1766015849.5904498,94
1766015849.590463,92
1766015849.590476,93
1766015849.5904891,93
1766015849.5905018,94
1766015849.590514,88
1766015849.590527,89
1766015849.59054,89
1766015849.590558,89
1766015849.590571,93
1766015849.590584,91
1766015849.5905972,93
1766015849.59061,89
1766015849.590623,89
1766015849.5906382,89
1766015849.590652,89
1766015849.5906649,89
1766015849.590678,88
1766015849.590691,87
1766015849.590703,88
1766015849.590718,85
1766015849.590731,87
1766015849.590744,89
1766015849.5907571,90
1766015849.59077,93
1766015849.5907872,92
1766015849.5907998,94
1766015849.590812,93
1766015849.5908322,95
1766015849.590848,98
1766015849.590861,93
1766015849.5908742,96
1766015849.5908868,95
1766015849.5909,93
1766015849.590912,95
1766015849.590925,98
1766015849.590938,97
1766015849.590955,98
1766015849.5909681,98
1766015849.590981,98
1766015849.590994,96
1766015849.591007,95
1766015849.591021,97
1766015849.591033,95
1766015849.5910459,91
1766015849.591059,94
1766015849.591072,97
1766015849.591085,95
1766015849.591098,94
1766015849.59111,96
1766015849.591124,97
1766015849.591136,95
1766015849.5911522,100
1766015849.591168,101
1766015849.591184,101
1766015849.5912,102
1766015849.5912151,104
1766015849.5912309,102
1766015849.591244,99
1766015849.59126,99
1766015849.591278,102
1766015849.591291,98
1766015849.591307,101
1766015849.59132,96
1766015849.5913332,98
1766015849.591346,93
1766015849.591359,97
1766015849.591371,96
1766015849.5913851,98
1766015849.5914,101
1766015849.591413,97
1766015849.5914292,101
1766015849.591445,101
1766015849.59146,105
1766015849.591476,100
1766015849.59149,99
1766015849.591507,105
1766015849.5915232,104
1766015849.591539,107
1766015849.591555,108
1766015849.591573,110
1766015849.5915892,111
1766015849.591605,108
1766015849.5916212,112
1766015849.591637,112
1766015849.5916538,112
1766015849.591671,111
1766015849.5916889,111
1766015849.591705,110
1766015849.591721,107
1766015849.591739,107
1766015849.591755,108
1766015849.591771,106
1766015849.591787,105
1766015849.5918038,104
1766015849.591821,104
1766015849.591837,104
1766015849.591852,100
1766015849.5918689,103
1766015849.591886,100
1766015849.591903,101
1766015849.591918,98
1766015849.5919309,99
1766015849.591947,100
1766015849.59196,96
1766015849.591973,97
1766015849.591986,96
1766015849.5919979,98
1766015849.592011,94
1766015849.592026,97
1766015849.5920389,97
1766015849.592052,95
1766015849.592066,94
1766015849.5920792,96
1766015849.5920918,94
1766015849.592105,94
1766015849.5921202,94
1766015849.592134,96
1766015849.59215,100
1766015849.5921652,100
1766015849.5921779,97
1766015849.592192,94
1766015849.592205,95
1766015849.5922182,96
1766015849.5922308,97
1766015849.592247,101
1766015849.592263,101
1766015849.5922759,97
1766015849.592293,101
1766015849.592309,101
1766015849.592322,98
1766015849.592337,96
1766015849.592351,98
1766015849.5923672,101
1766015849.592384,100
1766015849.592397,99
1766015849.592414,100
1766015849.5924292,100
1766015849.592442,99
1766015849.592455,96
1766015849.5924711,101
1766015849.5924869,100
1766015849.592499,98
1766015849.592514,97
1766015849.5925279,98
1766015849.592566,97
1766015849.592611,96
1766015849.592628,97
1766015849.5926442,101
1766015849.592661,102
1766015849.592677,101
1766015849.592693,101
1766015849.592709,103
1766015849.592725,102
1766015849.592741,104
1766015849.592757,106
1766015849.592774,101
1766015849.5927901,103
1766015849.5928059,100
1766015849.592822,103
1766015849.5928378,101
1766015849.592854,100
1766015849.5928671,95
1766015849.5928829,100
1766015849.592896,99
1766015849.592909,95
1766015849.5929248,101
1766015849.592938,97
1766015849.5929532,100
1766015849.59297,100
1766015849.592983,98
1766015849.5929961,97
1766015849.593009,99
1766015849.593025,98
1766015849.593039,97
1766015849.593052,95
1766015849.593065,95
1766015849.593078,96
1766015849.593091,97
1766015849.593104,94
1766015849.593117,93
1766015849.5931299,94
1766015849.593143,93
1766015849.593156,92
1766015849.593169,91
1766015849.5931818,90
1766015849.593195,91
1766015849.5932071,91
1766015849.5932212,90
1766015849.5932338,88
1766015849.593249,85
1766015849.5932622,87
1766015849.5932748,88
1766015849.593288,87
1766015849.593301,90
1766015849.593314,87
1766015849.593327,88
1766015849.59334,91
1766015849.593353,91
1766015849.593366,95
1766015849.593379,93
1766015849.5933921,91
1766015849.5934038,95
1766015849.593417,94
1766015849.59343,91
1766015849.5934432,91
1766015849.59346,97
1766015849.593475,95
1766015849.593488,98
1766015849.5935009,99
1766015849.593514,97
1766015849.5935261,98
1766015849.593539,97
1766015849.5935519,97
1766015849.59357,95
1766015849.593586,93
1766015849.593599,95
1766015849.593618,95
1766015849.593632,95
1766015849.593645,92
1766015849.593659,92
1766015849.5936708,92
1766015849.593684,94
1766015849.593697,93
1766015849.5937102,93
1766015849.5937228,96
1766015849.593736,94
1766015849.593749,91
1766015849.5937622,94
1766015849.593775,94
1766015849.593792,98
1766015849.5938072,101
1766015849.593823,103
1766015849.5938401,100
1766015849.593855,101
1766015849.5938718,103
1766015849.593888,104
1766015849.5939069,102
1766015849.59392,98
1766015849.593933,99
1766015849.5939462,97
1766015849.5939589,99
1766015849.593974,101
1766015849.593987,99
1766015849.5939999,96
1766015849.594014,99
1766015849.594026,98
1766015849.594039,98
1766015849.594056,100
1766015849.594072,102
1766015849.5940878,101
1766015849.594101,98
1766015849.5941172,102
1766015849.594133,101
1766015849.594147,97
1766015849.59416,98
1766015849.594173,98
1766015849.5941849,94
1766015849.594199,97
1766015849.594211,95
1766015849.594225,95
1766015849.5942369,93
1766015849.594251,92
1766015849.594263,93
1766015849.5942771,90
1766015849.5942888,91
1766015849.594302,90
1766015849.594315,89
1766015849.594332,90
1766015849.5943449,89
1766015849.594358,87
1766015849.594371,91
1766015849.594384,96
1766015849.5944,103
1766015849.5944161,107
1766015849.594431,106
1766015849.5944479,107
1766015849.5944629,108
1766015849.594479,110
1766015849.594495,112
1766015849.594511,110
1766015849.594527,111
1766015849.5945432,111
1766015849.594559,114
1766015849.5945752,109
1766015849.59459,111
1766015849.5946062,107
1766015849.594624,108
1766015849.594641,109
1766015849.594656,104
1766015849.594673,108
1766015849.594688,108
1766015849.594704,106
1766015849.59472,105
1766015849.594736,100
1766015849.5947552,100
1766015849.5947678,98
1766015849.594784,101
1766015849.594802,101
1766015849.594818,103
1766015849.594835,100
1766015849.59485,102
1766015849.5948641,98
1766015849.59488,102
1766015849.594893,99
1766015849.594906,99
1766015849.594919,99
1766015849.594931,97
1766015849.594944,97
1766015849.594962,97
1766015849.5949771,94
1766015849.5949922,93
1766015849.595005,94
1766015849.595017,94
1766015849.59503,91
1766015849.5950432,95
1766015849.595056,94
1766015849.59507,91
1766015849.595082,93
1766015849.5950952,94
1766015849.5951092,91
1766015849.595121,93
1766015849.595134,89
1766015849.595147,90
1766015849.59516,88
1766015849.595175,87
1766015849.595192,90
1766015849.595205,91
1766015849.595219,89
1766015849.595236,88
1766015849.595252,88
1766015849.595266,86
1766015849.59528,86
1766015849.595294,86
1766015849.595307,88
1766015849.59532,89
1766015849.595333,89
1766015849.595346,89
1766015849.595359,90
1766015849.595372,90
1766015849.595385,92
1766015849.595398,91
1766015849.595411,88
1766015849.595424,87
1766015849.595436,88
1766015849.595455,87
1766015849.5954702,88
1766015849.595484,90
1766015849.595497,91
1766015849.59551,91
1766015849.595523,86
1766015849.5955358,89
1766015849.5955489,89
1766015849.595566,88
1766015849.5955808,91
1766015849.595596,87
1766015849.5956109,90
1766015849.595624,85
1766015849.595668,88
1766015849.5956821,85
1766015849.5956962,85
1766015849.5957088,86
1766015849.595722,86
1766015849.595742,82
1766015849.595756,85
1766015849.5957692,81
1766015849.5957818,84
1766015849.595795,82
1766015849.595808,84
1766015849.5958211,82
1766015849.595834,84
1766015849.595847,83
1766015849.59586,79
1766015849.595871,82
1766015849.595882,81
1766015849.5958989,81
1766015849.5959098,80
1766015849.595922,81
1766015849.595933,79
1766015849.595945,78
1766015849.595956,76
1766015849.595967,77
1766015849.595978,77
1766015849.59599,74
1766015849.596001,77
1766015849.596012,75
1766015849.596024,74
1766015849.5960362,77
1766015849.5960472,79
1766015849.5960581,86
1766015849.5960739,90
1766015849.596086,92
1766015849.596097,92
1766015849.596108,87
1766015849.596119,93
1766015849.5961301,94
1766015849.596141,98
1766015849.596153,96
1766015849.596168,100
1766015849.596182,100
1766015849.5961962,100
1766015849.596208,99
1766015849.5962188,98
1766015849.596232,100
1766015849.596243,95
1766015849.5962539,96
1766015849.596267,96
1766015849.596278,94
1766015849.596289,93
1766015849.596301,94
1766015849.596312,95
1766015849.596323,92
1766015849.596334,94
1766015849.5963452,93
1766015849.5963562,92
1766015849.5963671,93
1766015849.596378,90
1766015849.5963898,92
1766015849.596401,91
1766015849.596412,92
1766015849.596423,87
1766015849.5964339,85
1766015849.5964491,86
1766015849.596462,87
1766015849.596473,86
1766015849.5964842,85
1766015849.5965,87
1766015849.596513,85
1766015849.596525,82
1766015849.596537,84
1766015849.596548,83
1766015849.596559,81
1766015849.59657,82
1766015849.5965812,80
1766015849.5965922,79
1766015849.5966039,79
1766015849.5966148,81
1766015849.596631,80
1766015849.5966442,79
1766015849.596656,80
1766015849.5966668,79
1766015849.5966778,77
1766015849.596689,81
1766015849.5967,80
1766015849.5967119,77
1766015849.5967228,76
1766015849.596734,77
1766015849.596745,73
1766015849.596756,78
1766015849.596767,79
1766015849.596778,76
1766015849.596789,73
1766015849.5968,75
1766015849.596812,74
1766015849.5968242,75
1766015849.596838,74
1766015849.5968509,73
1766015849.5968618,73
1766015849.596873,73
1766015849.596884,71
1766015849.596896,71
1766015849.596907,70
1766015849.596918,69
1766015849.596929,69
1766015849.59694,69
1766015849.596951,71
1766015849.596962,68
1766015849.5969741,71
1766015849.596985,69
1766015849.596996,65
1766015849.597007,65
1766015849.597019,68
1766015849.59703,71
1766015849.597041,68
1766015849.5970519,65
1766015849.5970628,67
1766015849.59708,66
1766015849.597093,62
1766015849.5971048,68
1766015849.597117,67
1766015849.597128,66
1766015849.597139,65
1766015849.5971498,64
1766015849.597162,62
1766015849.597173,62
1766015849.597184,65
1766015849.597196,61
1766015849.597215,64
1766015849.597229,66
1766015849.597242,63
1766015849.597253,62
1766015849.5972638,62
1766015849.597276,60
1766015849.597287,60
1766015849.5972989,60
1766015849.59731,60
1766015849.597321,60
1766015849.597332,60
1766015849.597343,60
1766015849.597354,63
1766015849.597366,59
1766015849.597377,62
1766015849.597388,63
1766015849.597399,61
1766015849.59741,60
1766015849.5974212,58
1766015849.5974321,57
1766015849.597444,56
1766015849.597455,57
1766015849.5974662,57
1766015849.5974772,57
1766015849.597492,58
1766015849.597504,57
1766015849.597515,55
1766015849.597526,58
1766015849.597537,57
1766015849.597548,57
1766015849.597564,54
1766015849.597576,56
1766015849.597591,56
1766015849.597604,53
1766015849.597617,55
1766015849.5976288,55
1766015849.59764,53
1766015849.597652,54
1766015849.597663,53
1766015849.597674,54
1766015849.597685,52
1766015849.597697,54
1766015849.5977101,52
1766015849.597722,54
1766015849.597734,52
1766015849.597745,54
1766015849.597756,53
1766015849.5977669,56
1766015849.59778,56
1766015849.597792,52
1766015849.597803,53
1766015849.597814,52
1766015849.597826,56
1766015849.597837,54
1766015849.5978482,55
1766015849.5978591,51
1766015849.59787,52
1766015849.597881,53
1766015849.597892,53
1766015849.597904,52
1766015849.597915,50
1766015849.597926,53
1766015849.5979369,55
1766015849.5979478,52
1766015849.5979588,56
1766015849.597973,54
1766015849.5979872,55
1766015849.5979981,54
1766015849.598009,51
1766015849.59802,52
1766015849.598031,54
1766015849.598042,55
1766015849.598054,53
1766015849.598065,53
1766015849.5980759,50
1766015849.5980868,53
1766015849.5980978,54
1766015849.59811,51
1766015849.598121,51
1766015849.598132,51
1766015849.5981429,53
1766015849.598155,53
1766015849.5981681,50
1766015849.59818,51
1766015849.598191,51
1766015849.598203,49
1766015849.598214,50
1766015849.5982249,51
1766015849.598237,50
1766015849.598248,52
1766015849.598259,51
1766015849.59827,51
1766015849.598281,48
1766015849.5982919,52
1766015849.598304,53
1766015849.598315,53
1766015849.598326,53
1766015849.598339,53
1766015849.598353,54
1766015849.598366,52
1766015849.598377,51
1766015849.598388,50
1766015849.598399,51
1766015849.59841,51
1766015849.598421,51
1766015849.598432,53
1766015849.598444,51
1766015849.5984561,52
1766015849.598467,55
1766015849.598478,56
1766015849.59849,50
1766015849.5985012,50
1766015849.5985122,51
1766015849.598523,49
1766015849.5985339,50
1766015849.5985448,53
1766015849.5985558,53
1766015849.598567,52
1766015849.598579,52
1766015849.59859,52
1766015849.5986009,55
1766015849.598612,49
1766015849.598623,53
1766015849.598639,51
1766015849.598652,54
1766015849.598664,50
1766015849.598675,47
1766015849.598686,52
1766015849.598697,53
1766015849.598708,49
1766015849.598722,50
1766015849.5987358,49
1766015849.5987468,51
1766015849.598758,49
1766015849.59877,49
1766015849.5987809,50
1766015849.5987918,50
1766015849.598804,50
1766015849.598816,48
1766015849.5988271,48
1766015849.598838,53
1766015849.59885,50
1766015849.598861,49
1766015849.598872,53
1766015849.598884,50
1766015849.598895,50
1766015849.598906,50
1766015849.598917,50
1766015849.598928,50
1766015849.59894,49
1766015849.5989509,47
1766015849.5989618,47
1766015849.598973,51
1766015849.598985,47
1766015849.598996,48
1766015849.599008,47
1766015849.599019,49
1766015849.59903,49
1766015849.599041,46
1766015849.599052,48
1766015849.5990632,46
1766015849.5990741,47
1766015849.599087,48
1766015849.5991008,47
1766015849.599113,46
1766015849.599124,44
1766015849.599137,44
1766015849.599149,44
1766015849.59916,45
1766015849.5991712,47
1766015849.599183,45
1766015849.599194,48
1766015849.599205,49
1766015849.5992162,45
1766015849.599227,50
1766015849.5992398,51
1766015849.599252,53
1766015849.599263,54
1766015849.599274,54
1766015849.599285,51
1766015849.599297,51
1766015849.599308,50
1766015849.599319,50
1766015849.5993311,51
1766015849.599343,50
1766015849.599354,51
1766015849.599366,49
1766015849.599377,52
1766015849.599388,52
1766015849.5993989,49
1766015849.599411,53
1766015849.599422,52
1766015849.599433,49
1766015849.599444,52
1766015849.599456,51
1766015849.5994701,52
1766015849.599488,50
1766015849.5995,51
1766015849.599514,51
1766015849.5995252,49
1766015849.5995362,53
1766015849.599547,52
1766015849.5995579,53
1766015849.5995688,51
1766015849.5995798,49
1766015849.599591,52
1766015849.599602,52
1766015849.599613,53
1766015849.599631,52
1766015849.599642,54
1766015849.599653,52
1766015849.5996642,51
1766015849.599675,57
1766015849.5996869,53
1766015849.5996978,52
1766015849.599709,51
1766015849.599721,55
1766015849.5997329,50
1766015849.599745,53
1766015849.5997581,47
1766015849.59977,51
1766015849.599781,53
1766015849.5997922,53
1766015849.599804,54
1766015849.599815,50
1766015849.5998259,51
1766015849.599838,52
1766015849.599849,48
1766015849.599862,52
1766015849.599872,52
1766015849.599882,50
1766015849.599893,53
1766015849.5999029,52
1766015849.599913,53
1766015849.599923,50
1766015849.5999339,53
1766015849.599943,50
1766015849.599953,52
1766015849.599963,50
1766015849.5999732,49
1766015849.5999832,53
1766015849.599993,52
1766015849.600003,52
1766015849.600013,50
1766015849.600023,49
1766015849.600033,50
1766015849.600043,50
1766015849.600053,51
1766015849.600063,48
1766015849.6000729,49
1766015849.6000829,50
1766015849.600093,52
1766015849.600103,49
1766015849.600113,49
1766015849.600123,52
1766015849.6001332,52
1766015849.6001432,53
1766015849.600153,52
1766015849.6001642,53
1766015849.6001742,56
1766015849.600186,53
1766015849.6001961,56
1766015849.600207,52
1766015849.600217,54
1766015849.600227,55
1766015849.6002371,53
1766015849.6002471,52
1766015849.600257,53
1766015849.600267,51
1766015849.600277,52
1766015849.600287,53
1766015849.600297,53
1766015849.600307,55
1766015849.600318,55
1766015849.600327,53
1766015849.600338,54
1766015849.6003468,55
1766015849.6003578,55
1766015849.600368,57
1766015849.600378,58
1766015849.600388,56
1766015849.600398,58
1766015849.600408,57
1766015849.600418,60
1766015849.600428,57
1766015849.600438,58
1766015849.600449,55
1766015849.600461,58
1766015849.600472,59
1766015849.6004841,59
1766015849.600493,57
1766015849.600503,57
1766015849.600513,57
1766015849.600526,57
1766015849.600538,61
1766015849.600548,57
1766015849.600558,59
1766015849.600569,59
1766015849.6005812,61
1766015849.60059,58
1766015849.6006,58
1766015849.60061,58
1766015849.60062,57
1766015849.60063,58
1766015849.60064,57
1766015849.6006908,55
1766015849.600707,56
1766015849.600718,60
1766015849.600729,61
1766015849.600739,60
1766015849.600749,60
1766015849.600783,57
1766015849.600796,60
1766015849.600806,57
1766015849.600817,57
1766015849.600827,58
1766015849.6008372,59
1766015849.600848,58
1766015849.6008582,56
1766015849.6008692,57
1766015849.6008792,55
1766015849.6008892,58
1766015849.600899,56
1766015849.6009102,60
1766015849.600919,58
1766015849.60093,60
1766015849.600944,60
1766015849.600954,59
1766015849.600964,60
1766015849.600974,58
1766015849.600985,61
1766015849.600995,65
1766015849.601005,62
1766015849.601014,59
1766015849.601025,59
1766015849.601035,58
1766015849.601045,58
1766015849.601055,58
1766015849.6010659,56
1766015849.601096,61
1766015849.6011121,57
1766015849.6011221,61
1766015849.601133,62
1766015849.6011431,65
1766015849.6011531,64
1766015849.601163,64
1766015849.601174,61
1766015849.601187,60
1766015849.601197,67
1766015849.601208,68
1766015849.601218,67
1766015849.601228,70
1766015849.601239,68
1766015849.601249,69
1766015849.601259,71
1766015849.601269,76
1766015849.60128,75
1766015849.60129,73
1766015849.601303,73
1766015849.601314,75
1766015849.601324,75
1766015849.601334,75
1766015849.601345,74
1766015849.601355,77
1766015849.601365,75
1766015849.6013749,79
1766015849.6013849,76
1766015849.601395,78
1766015849.6014059,77
1766015849.6014159,74
1766015849.6014268,74
1766015849.6014369,72
1766015849.6014469,76
1766015849.6014569,76
1766015849.6014678,77
1766015849.6014779,76
1766015849.6014879,79
1766015849.6014972,81
1766015849.6015081,84
1766015849.6015182,84
1766015849.6015942,87
1766015849.601609,85
1766015849.60162,85
1766015849.601686,86
1766015849.6017,84
1766015849.60171,84
1766015849.601721,83
1766015849.601731,89
1766015849.6018329,86
1766015849.601852,87
1766015849.601866,86
1766015849.6018848,84
1766015849.601923,86
1766015849.6019351,84
1766015849.6019452,87
1766015849.6019552,83
1766015849.601988,82
1766015849.602002,85
1766015849.602015,85
1766015849.6020281,87
1766015849.602041,85
1766015849.6020539,87
1766015849.602067,88
1766015849.60208,87
1766015849.602093,87
1766015849.602106,87
1766015849.6021178,87
1766015849.602131,88
1766015849.602144,87
1766015849.602157,85
1766015849.602169,86
1766015849.602182,87
1766015849.602195,90
1766015849.602208,87
1766015849.602221,91
1766015849.6022332,89
1766015849.6022458,92
1766015849.602259,93
1766015849.602272,88
1766015849.602284,89
1766015849.602297,93
1766015849.60231,90
1766015849.602323,89
1766015849.602335,89
1766015849.6023529,89
1766015849.602365,92
1766015849.602378,90
1766015849.602391,91
1766015849.602404,89
1766015849.602417,93
1766015849.6024299,91
1766015849.602443,87
1766015849.602456,88
1766015849.6024692,89
1766015849.6024818,89
1766015849.602494,85
1766015849.602507,86
1766015849.60252,88
1766015849.602533,90
1766015849.602546,91
1766015849.602559,90
1766015849.602572,94
1766015849.6025841,91
1766015849.6025972,92
1766015849.6026099,92
1766015849.602623,92
1766015849.602636,94
1766015849.602648,90
1766015849.6026611,93
1766015849.602674,86
1766015849.602687,88
1766015849.6027,86
1766015849.602713,87
1766015849.602726,89
1766015849.602738,89
1766015849.602751,87
1766015849.602767,90
1766015849.6027808,85
1766015849.602794,86
1766015849.602806,85
1766015849.602819,88
1766015849.6028318,85
1766015849.602845,87
1766015849.602858,85
1766015849.602871,88
1766015849.602883,89
1766015849.602896,86
1766015849.6029088,90
1766015849.602922,87
1766015849.6029341,86
1766015849.602947,86
1766015849.6029599,85
1766015849.6029718,84
1766015849.602985,89
1766015849.602998,84
1766015849.60301,87
1766015849.603023,83
1766015849.603036,84
1766015849.603049,84
1766015849.603062,81
1766015849.603074,82
1766015849.6030872,83
1766015849.6030998,83
1766015849.603113,81
1766015849.603125,85
1766015849.603138,86
1766015849.603151,87
1766015849.603164,84
1766015849.603177,90
1766015849.603193,86
1766015849.6032069,89
1766015849.603223,88
1766015849.6032362,87
1766015849.6032481,91
1766015849.603261,89
1766015849.6032739,90
1766015849.603287,89
1766015849.6032991,90
1766015849.603312,89
1766015849.603325,87
1766015849.603338,89
1766015849.603351,88
1766015849.603363,87
1766015849.6033762,86
1766015849.6033878,89
1766015849.603401,89
1766015849.603414,86
1766015849.603426,85
1766015849.603439,88
1766015849.603452,87
1766015849.603464,87
1766015849.603477,87
1766015849.60349,86
1766015849.603503,89
1766015849.6035159,86
1766015849.603528,87
1766015849.603541,87
1766015849.603554,89
1766015849.6035671,86
1766015849.60358,86
1766015849.603592,84
1766015849.603605,88
1766015849.603621,87
1766015849.603636,88
1766015849.603648,84
1766015849.603661,85
1766015849.6036742,85
1766015849.6036868,87
1766015849.6037,85
1766015849.603714,86
1766015849.6037261,87
1766015849.6037388,85
1766015849.603752,82
1766015849.603765,87
1766015849.6037781,85
1766015849.603791,88
1766015849.6038039,85
1766015849.603816,84
1766015849.603829,85
1766015849.603842,87
1766015849.6038551,86
1766015849.6038668,85
1766015849.60388,88
1766015849.603893,87
1766015849.6039062,88
1766015849.603918,86
1766015849.603931,85
1766015849.6039429,87
1766015849.603956,89
1766015849.603969,87
1766015849.603981,87
1766015849.6039941,84
1766015849.604007,86
1766015849.6040199,84
1766015849.604032,84
1766015849.60405,82
1766015849.604063,80
1766015849.6040761,83
1766015849.604088,80
1766015849.6041012,83
1766015849.6041138,80
1766015849.604126,84
1766015849.604139,83
1766015849.604152,83
1766015849.6041641,82
1766015849.604177,84
1766015849.6041899,82
1766015849.604202,84
1766015849.6042151,84
1766015849.604228,81
1766015849.604241,83
1766015849.604254,81
1766015849.604266,83
1766015849.604279,81
1766015849.6042922,81
1766015849.6043048,81
1766015849.604318,79
1766015849.60433,82
1766015849.604343,81
1766015849.604356,78
1766015849.604369,79
1766015849.604382,81
1766015849.604397,79
1766015849.6044102,79
1766015849.6044228,78
1766015849.6044369,81
1766015849.6044512,80
1766015849.604463,81
1766015849.604481,79
1766015849.604495,81
1766015849.604507,83
1766015849.6045198,78
1766015849.604533,77
1766015849.604546,83
1766015849.604558,81
1766015849.6045709,80
1766015849.604584,82
1766015849.604597,78
1766015849.60461,79
1766015849.604623,78
1766015849.604636,77
1766015849.604649,79
1766015849.604662,77
1766015849.604675,77
1766015849.604688,76
1766015849.604701,74
1766015849.604714,77
1766015849.604727,80
1766015849.6047401,79
1766015849.6047528,81
1766015849.604766,77
1766015849.604779,79
1766015849.604792,79
1766015849.604806,81
1766015849.604819,76
1766015849.604832,82
1766015849.604844,78
1766015849.6048582,80
1766015849.6048698,77
1766015849.604883,79
1766015849.604896,81
1766015849.604914,78
1766015849.604927,79
1766015849.604939,77
1766015849.604952,77
1766015849.6049652,79
1766015849.604977,80
1766015849.604991,80
1766015849.605004,78
1766015849.6050172,79
1766015849.6050298,77
1766015849.605043,79
1766015849.605056,77
1766015849.6050692,80
1766015849.605081,79
1766015849.605094,77
1766015849.6051068,78
1766015849.60512,78
1766015849.605133,75
1766015849.605145,76
1766015849.6051579,74
1766015849.605171,76
1766015849.605184,75
1766015849.605197,72
1766015849.605209,74
1766015849.605223,73
1766015849.605236,73
1766015849.605248,76
1766015849.605261,74
1766015849.6052742,73
1766015849.605289,74
1766015849.6053052,75
1766015849.6053178,74
1766015849.605338,71
1766015849.605354,73
1766015849.605366,73
1766015849.605379,72
1766015849.605392,74
1766015849.6054049,73
1766015849.605418,73
1766015849.6054301,74
1766015849.605443,73
1766015849.6054559,69
1766015849.60547,71
1766015849.605483,73
1766015849.6054962,71
1766015849.605509,73
1766015849.605522,72
1766015849.605535,70
1766015849.605547,66
1766015849.60556,69
1766015849.6055732,70
1766015849.6055858,68
1766015849.605599,71
1766015849.605611,71
1766015849.605624,67
1766015849.605637,66
1766015849.60565,65
1766015849.605663,65
1766015849.605676,67
1766015849.605689,66
1766015849.605702,66
1766015849.605713,70
1766015849.6057239,67
1766015849.6057348,65
1766015849.6057448,63
1766015849.6057658,65
1766015849.605778,63
1766015849.605789,65
1766015849.6058,66
1766015849.6058109,65
1766015849.6058261,64
1766015849.605837,65
1766015849.6058471,65
1766015849.605859,64
1766015849.605869,65
1766015849.60588,65
1766015849.605891,62
1766015849.605901,59
1766015849.605912,63
1766015849.6059232,60
1766015849.6059341,62
1766015849.6059442,62
1766015849.6059551,62
1766015849.6059651,57
1766015849.605976,57
1766015849.605987,58
1766015849.605998,60
1766015849.606009,60
1766015849.606019,58
1766015849.60603,59
1766015849.6060412,57
1766015849.606051,56
1766015849.6060622,56
1766015849.6060731,58
1766015849.6060832,54
1766015849.6060941,54
1766015849.6061041,56
1766015849.606115,56
1766015849.60613,53
1766015849.6061409,55
1766015849.6061518,54
1766015849.606163,53
1766015849.606174,54
1766015849.606185,52
1766015849.606196,51
1766015849.606206,54
1766015849.606217,52
1766015849.6062279,53
1766015849.606239,52
1766015849.60625,50
1766015849.606261,52
1766015849.606272,48
1766015849.606283,50
1766015849.606294,48
1766015849.606304,49
1766015849.606315,51
1766015849.606326,51
1766015849.606337,48
1766015849.606348,46
1766015849.606359,48
1766015849.60637,50
1766015849.60638,47
1766015849.606391,49
1766015849.6064022,51
1766015849.6064131,49
1766015849.606424,47
1766015849.606434,47
1766015849.606445,46
1766015849.606456,51
1766015849.606467,45
1766015849.606482,46
1766015849.606494,46
1766015849.606505,45
1766015849.606516,45
1766015849.606529,45
1766015849.60654,42
1766015849.606551,47
1766015849.6065621,42
1766015849.606574,48
1766015849.606584,43
1766015849.606595,43
1766015849.606606,43
1766015849.606617,41
1766015849.6066282,43
1766015849.6066391,45
1766015849.60665,41
1766015849.606661,41
1766015849.6066718,43
1766015849.606682,42
1766015849.606693,44
1766015849.6067042,44
1766015849.606715,42
1766015849.6067252,41
1766015849.606736,39
1766015849.606747,41
1766015849.6067579,42
1766015849.6067688,44
1766015849.6067798,39
1766015849.606791,41
1766015849.606802,44
1766015849.606812,41
1766015849.606823,41
1766015849.606834,40
1766015849.606848,41
1766015849.606859,40
1766015849.606869,42
1766015849.6068811,39
1766015849.606891,40
1766015849.6069021,38
1766015849.606913,39
1766015849.606923,41
1766015849.606934,44
1766015849.606945,40
1766015849.606955,39
1766015849.606966,38
1766015849.606977,41
1766015849.606987,36
1766015849.6069992,38
1766015849.607009,41
1766015849.6070201,39
1766015849.607031,38
1766015849.607042,37
1766015849.607052,36
1766015849.607063,39
1766015849.607074,38
1766015849.607085,38
1766015849.607096,37
1766015849.6071072,39
1766015849.6071181,36
1766015849.607129,38
1766015849.607139,37
1766015849.60715,39
1766015849.607161,36
1766015849.607172,36
1766015849.6071832,37
1766015849.6071942,36
1766015849.607209,34
1766015849.60722,36
1766015849.607231,39
1766015849.6072419,35
1766015849.607253,36
1766015849.607264,38
1766015849.607274,34
1766015849.607285,35
1766015849.607296,34
1766015849.607307,37
1766015849.607318,35
1766015849.607328,34
1766015849.607339,33
1766015849.60735,37
1766015849.607362,33
1766015849.607373,33
1766015849.607384,38
1766015849.6073952,33
1766015849.6074061,36
1766015849.607417,35
1766015849.607428,36
1766015849.607439,36
1766015849.607451,34
1766015849.607462,32
1766015849.607473,33
1766015849.607483,34
1766015849.6074939,32
1766015849.6075048,34
1766015849.6075158,34
1766015849.607527,35
1766015849.6075368,32
1766015849.607548,33
1766015849.607559,31
1766015849.607574,32
1766015849.607585,34
1766015849.607597,34
1766015849.607608,32
1766015849.607619,31
1766015849.60763,32
1766015849.60764,33
1766015849.607651,29
1766015849.607662,27
1766015849.6076741,33
1766015849.6076841,31
1766015849.607695,33
1766015849.607706,33
1766015849.607717,32
1766015849.607727,32
1766015849.607739,34
1766015849.60775,33
1766015849.607761,28
1766015849.607771,28
1766015849.607782,31
1766015849.6077921,31
1766015849.6078029,31
1766015849.6078138,28
1766015849.6078248,28
1766015849.6078348,27
1766015849.6078458,30
1766015849.607857,27
1766015849.6078668,30
1766015849.607878,27
1766015849.607889,28
1766015849.6079,27
1766015849.60791,27
1766015849.607921,31
1766015849.607937,31
1766015849.607949,30
1766015849.60796,30
1766015849.607971,29
1766015849.6079822,29
1766015849.6079922,28
1766015849.6080031,27
1766015849.608014,28
1766015849.6080241,28
1766015849.608035,26
1766015849.608046,28
1766015849.608056,28
1766015849.608067,26
1766015849.608078,27
1766015849.608088,27
1766015849.608099,28
1766015849.6081102,27
1766015849.6081212,26
1766015849.6081312,29
1766015849.6081421,27
1766015849.608153,24
1766015849.608164,29
1766015849.608174,29
1766015849.608185,27
1766015849.608196,27
1766015849.608207,28
1766015849.6082182,27
1766015849.6082292,29
1766015849.6082392,24
1766015849.6082501,27
1766015849.6082602,27
1766015849.6082711,25
1766015849.608282,23
1766015849.608296,26
1766015849.608308,26
1766015849.608319,26
1766015849.608329,29
1766015849.60834,24
1766015849.608351,21
1766015849.608361,25
1766015849.608372,24
1766015849.608383,25
1766015849.608394,26
1766015849.6084049,24
1766015849.608416,24
1766015849.608426,27
1766015849.608437,25
1766015849.608448,26
1766015849.608458,25
1766015849.608469,25
1766015849.608479,26
1766015849.60849,22
1766015849.608501,25
1766015849.608511,23
1766015849.608522,24
1766015849.608533,25
1766015849.608544,24
1766015849.608554,26
1766015849.608565,24
1766015849.608576,22
1766015849.608587,24
1766015849.608598,23
1766015849.608609,26
1766015849.608619,24
1766015849.60863,26
1766015849.608641,27
1766015849.6086552,24
1766015849.6086662,23
1766015849.6086771,25
1766015849.608688,25
1766015849.6086988,23
1766015849.6087098,24
1766015849.6087198,23
1766015849.6087308,25
1766015849.608742,25
1766015849.608752,28
1766015849.608763,22
1766015849.608774,22
1766015849.608784,24
1766015849.608795,25
1766015849.608806,24
1766015849.6088169,24
1766015849.6088269,23
1766015849.6088378,25
1766015849.6088488,24
1766015849.6088588,24
1766015849.6088698,22
1766015849.608881,23
1766015849.608892,26
1766015849.608902,23
1766015849.608913,24
1766015849.608924,26
1766015849.6089349,21
1766015849.6089458,25
1766015849.6089559,25
1766015849.6089668,25
1766015849.608978,22
1766015849.6089878,22
1766015849.6090019,23
1766015849.609014,26
1766015849.609024,22
1766015849.609035,24
1766015849.609046,23
1766015849.609057,23
1766015849.609067,26
1766015849.609078,26
1766015849.609088,20
1766015849.609099,25
1766015849.60911,22
1766015849.60912,24
1766015849.609131,21
1766015849.609142,22
1766015849.609153,24
1766015849.609163,23
1766015849.609174,23
1766015849.609185,20
1766015849.609196,25
1766015849.609206,27
1766015849.609217,22
1766015849.609227,25
1766015849.609238,24
1766015849.609248,25
1766015849.609259,23
1766015849.60927,25
1766015849.609281,23
1766015849.609291,23
1766015849.609302,24
1766015849.609312,25
1766015849.609323,23
1766015849.609334,24
1766015849.609345,20
1766015849.609359,24
1766015849.609371,22
1766015849.609382,22
1766015849.609393,23
1766015849.609403,21
1766015849.6094139,21
1766015849.6094248,24
1766015849.6094358,25
1766015849.6094458,22
1766015849.6094568,23
1766015849.609468,22
1766015849.609478,24
1766015849.609489,21
1766015849.6095,24
1766015849.60951,22
1766015849.609521,22
1766015849.6095319,25
1766015849.609542,21
1766015849.6095529,21
1766015849.6095638,21
1766015849.6095738,24
1766015849.609586,22
1766015849.609597,24
1766015849.609607,21
1766015849.609618,22
1766015849.609629,23
1766015849.60964,22
1766015849.6096509,25
1766015849.6096609,21
1766015849.6096718,23
1766015849.609683,23
1766015849.6096928,23
1766015849.609704,20
1766015849.609718,24
1766015849.60973,24
1766015849.609741,22
1766015849.609751,21
1766015849.609762,21
1766015849.6097732,24
1766015849.609783,26
1766015849.6097941,24
1766015849.609805,24
1766015849.609816,22
1766015849.609826,24
1766015849.609837,22
1766015849.609848,23
1766015849.609859,20
1766015849.6098702,23
1766015849.6098812,24
1766015849.6098912,19
1766015849.6099021,22
1766015849.609913,24
1766015849.6099231,21
1766015849.609934,21
1766015849.609945,21
1766015849.609956,23
1766015849.609966,22
1766015849.609977,21
1766015849.6099882,22
1766015849.609998,24
1766015849.6100092,22
1766015849.610019,25
1766015849.6100302,22
1766015849.61004,21
1766015849.6100512,22
1766015849.6100621,21
1766015849.610075,20
1766015849.6100879,20
1766015849.6100988,20
1766015849.6101089,20
1766015849.6101198,22
1766015849.610131,19
1766015849.610142,21
1766015849.610152,23
1766015849.610163,21
1766015849.610174,23
1766015849.610184,20
1766015849.610195,23
1766015849.610206,20
1766015849.610216,24
1766015849.6102269,21
1766015849.6102378,21
1766015849.6102479,20
1766015849.610259,22
1766015849.61027,19
1766015849.61028,23
1766015849.610291,21
1766015849.610302,20
1766015849.610313,23
1766015849.610325,24
1766015849.610336,24
1766015849.610347,24
1766015849.610357,24
1766015849.610368,25
1766015849.610379,28
1766015849.61039,26
1766015849.6104,26
1766015849.610411,25
1766015849.6104221,26
1766015849.6104362,26
1766015849.610448,24
1766015849.6104581,24
1766015849.610469,24
1766015849.610479,25
1766015849.61049,25
1766015849.610501,28
1766015849.610511,24
1766015849.610522,23
1766015849.6105332,26
1766015849.610543,24
1766015849.610555,24
1766015849.6105652,27
1766015849.610576,25
1766015849.610587,26
1766015849.6105978,22
1766015849.6106088,22
1766015849.61062,23
1766015849.610631,26
1766015849.610642,22
1766015849.610652,22
1766015849.610663,24
1766015849.610674,25
1766015849.610686,28
1766015849.610697,25
1766015849.610707,21
1766015849.610718,23
1766015849.610729,24
1766015849.61074,23
1766015849.61075,24
1766015849.610761,23
1766015849.610772,23
1766015849.6107829,24
1766015849.610801,22
1766015849.610812,27
1766015849.610823,24
1766015849.610834,25
1766015849.6108449,23
1766015849.6108549,26
1766015849.610867,23
1766015849.610877,24
1766015849.610888,24
1766015849.610899,23
1766015849.61091,26
1766015849.610921,26
1766015849.6109319,23
1766015849.610943,26
1766015849.6109529,25
1766015849.610964,25
1766015849.610975,23
1766015849.610986,23
1766015849.610996,24
1766015849.611007,25
1766015849.611019,27
1766015849.611029,21
1766015849.61104,26
1766015849.611051,23
1766015849.611061,26
1766015849.611072,21
1766015849.611083,26
1766015849.611093,24
1766015849.611104,21
1766015849.611115,24
1766015849.611126,23
1766015849.611136,23
1766015849.611155,23
1766015849.611168,23
1766015849.611179,23
1766015849.611189,24
1766015849.611199,24
1766015849.6112099,24
1766015849.611221,24
1766015849.611232,21
1766015849.611242,27
1766015849.611253,25
1766015849.611264,25
1766015849.611274,23
1766015849.611285,21
1766015849.611296,24
1766015849.611306,25
1766015849.611317,23
1766015849.611327,24
1766015849.611338,23
1766015849.611349,24
1766015849.61136,22
1766015849.61137,25
1766015849.611381,23
1766015849.611391,23
1766015849.611402,23
1766015849.611413,22
1766015849.611423,23
1766015849.611434,23
1766015849.611445,21
1766015849.611455,25
1766015849.611466,24
1766015849.611476,26
1766015849.611487,24
1766015849.611497,23
1766015849.611511,23
1766015849.611522,23
1766015849.6115332,24
1766015849.6115441,21
1766015849.6115541,24
1766015849.611565,25
1766015849.6115751,24
1766015849.611586,25
1766015849.611596,20
1766015849.611607,24
1766015849.611617,24
1766015849.611628,24
1766015849.611639,25
1766015849.61165,25
1766015849.61166,21
1766015849.611671,21
1766015849.611682,22
1766015849.611692,26
1766015849.6117032,23
1766015849.611712,25
1766015849.611721,24
1766015849.6117299,23
1766015849.611739,21
1766015849.6117492,22
1766015849.611758,23
1766015849.611768,24
1766015849.611777,26
1766015849.611787,22
1766015849.611796,23
1766015849.611806,22
1766015849.611815,26
1766015849.611824,23
1766015849.611833,20
1766015849.611846,23
1766015849.611857,26
1766015849.611866,24
1766015849.611875,25
1766015849.611884,26
1766015849.6118941,21
1766015849.611903,23
1766015849.611913,21
1766015849.611922,27
1766015849.6119308,23
1766015849.611941,23
1766015849.6119502,22
1766015849.611959,22
1766015849.611968,25
1766015849.6119769,22
1766015849.611986,26
1766015849.611996,27
1766015849.6120052,24
1766015849.612014,24
1766015849.612023,22
1766015849.612032,25
1766015849.612042,22
1766015849.612051,24
1766015849.6120598,23
1766015849.6120691,25
1766015849.6120791,22
1766015849.612088,25
1766015849.612097,24
1766015849.612106,23
1766015849.612115,23
1766015849.612124,24
1766015849.612133,25
1766015849.612142,25
1766015849.612155,21
1766015849.6121652,23
1766015849.612174,21
1766015849.612183,27
1766015849.612192,23
1766015849.612201,23
1766015849.612211,24
1766015849.6122198,21
1766015849.612229,22
1766015849.6122382,23
1766015849.6122482,24
1766015849.612257,25
1766015849.612266,25
1766015849.612275,28
1766015849.612284,25
1766015849.612294,27
1766015849.612302,26
1766015849.612312,24
1766015849.6123211,26
1766015849.61233,25
1766015849.612339,23
1766015849.6123478,23
1766015849.6123571,27
1766015849.6123672,25
1766015849.612376,26
1766015849.612385,24
1766015849.612394,26
1766015849.612403,26
1766015849.612412,23
1766015849.612421,23
1766015849.612431,25
1766015849.61244,25
1766015849.612449,22
1766015849.612461,24
1766015849.612471,26
1766015849.61248,24
1766015849.61249,25
1766015849.612499,24
1766015849.6125078,26
1766015849.612517,25
1766015849.6125271,25
1766015849.612637,21
1766015849.6126468,24
1766015849.612656,25
1766015849.6126661,25
1766015849.6126752,26
1766015849.612684,26
1766015849.612693,25
1766015849.612703,27
1766015849.612712,25
1766015849.612721,26
1766015849.61273,25
1766015849.612739,25
1766015849.612749,26
1766015849.612758,27
1766015849.612767,26
1766015849.612777,24
1766015849.6127858,26
1766015849.6127949,28
1766015849.6128042,26
1766015849.612813,26
1766015849.612822,25
1766015849.612832,26
1766015849.612841,24
1766015849.61285,28
1766015849.6128588,27
1766015849.612871,26
1766015849.612882,28
1766015849.612891,25
1766015849.6129,24
1766015849.61291,26
1766015849.612919,28
1766015849.612928,27
1766015849.612938,27
1766015849.612947,27
1766015849.6129558,28
1766015849.612965,25
1766015849.6129751,29
1766015849.6129842,25
1766015849.612993,24
1766015849.613003,25
1766015849.613012,26
1766015849.613021,28
1766015849.61303,23
1766015849.6130402,24
1766015849.613049,24
1766015849.613058,24
1766015849.613068,25
1766015849.613078,24
1766015849.613087,26
1766015849.613097,25
1766015849.613107,24
1766015849.6131158,25
1766015849.6131258,22
1766015849.613135,26
1766015849.6131442,27
1766015849.613153,24
1766015849.613163,24
1766015849.613172,26
1766015849.613184,26
1766015849.613195,26
1766015849.613204,24
1766015849.6132128,25
1766015849.613222,28
1766015849.6132321,24
1766015849.6132412,24
1766015849.61325,26
1766015849.61326,26
1766015849.613269,23
1766015849.613278,26
1766015849.613287,27
1766015849.613297,24
1766015849.613306,27
1766015849.613315,25
1766015849.613324,27
1766015849.613334,26
1766015849.613343,25
1766015849.613353,24
1766015849.6133618,27
1766015849.613371,24
1766015849.6133811,27
1766015849.61339,25
1766015849.613399,21
1766015849.613409,23
1766015849.613418,26
1766015849.613427,23
1766015849.613436,24
1766015849.613446,22
1766015849.613455,26
1766015849.613464,25
1766015849.6134741,24
1766015849.613483,27
1766015849.613496,27
1766015849.613508,27
1766015849.613517,25
1766015849.613526,26
1766015849.613536,23
1766015849.613545,24
1766015849.613554,25
1766015849.613564,26
1766015849.613573,23
1766015849.6135821,25
1766015849.6135921,25
1766015849.613601,22
1766015849.61361,20
1766015849.61362,23
1766015849.6136289,25
1766015849.6136389,23
1766015849.613648,26
1766015849.613657,24
1766015849.613667,23
1766015849.613676,27
1766015849.613685,26
1766015849.613695,25
1766015849.613704,23
1766015849.613714,26
1766015849.6137228,27
1766015849.613732,22
1766015849.613742,24
1766015849.613751,24
1766015849.61376,28
1766015849.613769,24
1766015849.6137788,25
1766015849.613788,22
1766015849.6137972,25
1766015849.6138098,23
1766015849.613821,26
1766015849.6138299,25
1766015849.6138399,21
1766015849.6138492,22
1766015849.613858,22
1766015849.613868,25
1766015849.613877,21
1766015849.6138859,27
1766015849.613895,23
1766015849.613905,25
1766015849.613914,21
1766015849.613923,25
1766015849.613933,24
1766015849.613942,22
1766015849.613952,24
1766015849.613961,23
1766015849.6139698,23
1766015849.6139798,24
1766015849.613989,22
1766015849.6139982,25
1766015849.614007,22
1766015849.614017,24
1766015849.614026,21
1766015849.614036,27
1766015849.614045,22
1766015849.614055,26
1766015849.614065,27
1766015849.6140742,22
1766015849.614083,27
1766015849.614093,24
1766015849.6141021,28
1766015849.614111,28
1766015849.614124,24
1766015849.614135,27
1766015849.614144,24
1766015849.614154,27
1766015849.614163,28
1766015849.614172,24
1766015849.614182,27
1766015849.614191,29
1766015849.6142,25
1766015849.6142101,28
1766015849.614219,27
1766015849.614228,29
1766015849.6142368,31
1766015849.614246,30
1766015849.6142561,32
1766015849.6142652,34
1766015849.614275,31
1766015849.614284,31
1766015849.614294,33
1766015849.6143029,33
1766015849.614313,30
1766015849.614322,33
1766015849.6143308,34
1766015849.614341,33
1766015849.61435,35
1766015849.61436,36
1766015849.614369,35
1766015849.614379,35
1766015849.614388,35
1766015849.6143968,35
1766015849.6144068,32
1766015849.6144168,33
1766015849.6144261,35
1766015849.614441,32
1766015849.614451,35
1766015849.61446,35
1766015849.61447,35
1766015849.614479,33
1766015849.614491,31
1766015849.6145,34
1766015849.61451,33
1766015849.6145191,35
1766015849.6145291,30
1766015849.614538,31
1766015849.614548,32
1766015849.614557,33
1766015849.6145668,33
1766015849.614576,32
1766015849.6145852,33
1766015849.614594,32
1766015849.614603,33
1766015849.614613,33
1766015849.6146219,32
1766015849.614631,32
1766015849.6146402,34
1766015849.61465,30
1766015849.614659,27
1766015849.6146681,28
1766015849.614677,30
1766015849.614687,32
1766015849.614696,28
1766015849.6147048,30
1766015849.6147141,32
1766015849.614723,33
1766015849.614733,31
1766015849.614742,28
1766015849.6147509,28
1766015849.61476,30
1766015849.61477,31
1766015849.614779,31
1766015849.614791,28
1766015849.614802,27
1766015849.614812,29
1766015849.6148212,31
1766015849.61483,29
1766015849.614839,29
1766015849.614849,28
1766015849.614858,28
1766015849.614867,30
1766015849.614877,30
1766015849.6148858,30
1766015849.614896,30
1766015849.614905,30
1766015849.614914,28
1766015849.614923,28
1766015849.614933,26
1766015849.6149418,30
1766015849.614951,29
1766015849.614961,27
1766015849.6149702,26
1766015849.614979,26
1766015849.614988,29
1766015849.614998,27
1766015849.615007,26
1766015849.615016,30
1766015849.615026,27
1766015849.6150348,29
1766015849.615044,28
1766015849.615053,29
1766015849.615063,29
1766015849.615072,29
1766015849.615081,27
1766015849.6150908,27
1766015849.615103,25
1766015849.615113,30
1766015849.6151218,24
1766015849.6151319,28
1766015849.6151412,26
1766015849.61515,27
1766015849.61516,28
1766015849.615169,26
1766015849.6151779,26
1766015849.615188,28
1766015849.615197,26
1766015849.615206,30
1766015849.615216,27
1766015849.615225,26
1766015849.6152341,27
1766015849.6152442,24
1766015849.615253,25
1766015849.615262,25
1766015849.6152709,27
1766015849.6152809,27
1766015849.6152902,24
1766015849.615299,25
1766015849.615309,27
1766015849.615318,24
1766015849.615327,23
1766015849.615336,24
1766015849.615346,28
1766015849.6153548,28
1766015849.615365,26
1766015849.615374,24
1766015849.6153831,28
1766015849.615393,27
1766015849.615402,28
1766015849.615415,26
1766015849.615425,27
1766015849.6154351,26
1766015849.615444,23
1766015849.615453,28
1766015849.615463,25
1766015849.615472,29
1766015849.6154811,26
1766015849.61549,28
1766015849.6155,25
1766015849.615509,27
1766015849.6155179,26
1766015849.615527,23
1766015849.615537,26
1766015849.6155462,26
1766015849.615555,26
1766015849.615564,27
1766015849.6155741,26
1766015849.615583,27
1766015849.615592,24
1766015849.615602,25
1766015849.6156108,27
1766015849.6156201,27
1766015849.6156301,27
1766015849.615639,28
1766015849.615648,28
1766015849.6156569,25
1766015849.6156669,27
1766015849.615676,28
1766015849.6156852,28
1766015849.615695,28
1766015849.615704,26
1766015849.6157131,25
1766015849.615726,28
1766015849.6157382,24
1766015849.615747,26
1766015849.615756,28
1766015849.615766,25
1766015849.6157749,26
1766015849.615784,25
1766015849.615793,27
1766015849.6158028,25
1766015849.615812,27
1766015849.615836,26
1766015849.615873,24
1766015849.615884,25
1766015849.615893,23
1766015849.615903,27
1766015849.615912,26
1766015849.6159208,27
1766015849.61593,23
1766015849.61594,26
1766015849.6159492,25
1766015849.615958,25
1766015849.615968,25
1766015849.615977,22
1766015849.6159859,23
1766015849.615995,24
1766015849.616004,28
1766015849.616014,25
1766015849.616023,22
1766015849.616032,27
1766015849.616041,25
1766015849.61605,25
1766015849.6160588,26
1766015849.616069,25
1766015849.616082,24
1766015849.616093,24
1766015849.616106,24
1766015849.6161149,27
1766015849.616124,23
1766015849.6161332,23
1766015849.616142,24
1766015849.616151,25
1766015849.61616,26
1766015849.61617,23
1766015849.616179,26
1766015849.6161878,23
1766015849.616197,22
1766015849.6162062,24
1766015849.616215,26
1766015849.616224,24
1766015849.6162329,26
1766015849.616242,25
1766015849.616251,23
1766015849.616261,25
1766015849.61627,24
1766015849.6162791,26
1766015849.616288,25
1766015849.616297,24
1766015849.6163058,25
1766015849.616315,24
1766015849.6163242,25
1766015849.616333,26
1766015849.616342,24
1766015849.616352,24
1766015849.616361,27
1766015849.61637,23
1766015849.6163788,28
1766015849.616388,23
1766015849.6163971,25
1766015849.616406,26
1766015849.616415,23
1766015849.616425,24
1766015849.616437,24
1766015849.616447,24
1766015849.616456,22
1766015849.616464,24
1766015849.6164742,22
1766015849.616483,22
1766015849.616492,24
1766015849.616501,23
1766015849.61651,23
1766015849.616519,25
1766015849.6165278,25
1766015849.616537,25
1766015849.6165462,23
1766015849.616555,23
1766015849.616564,24
1766015849.6165729,25
1766015849.616582,24
1766015849.6165912,23
1766015849.6166,24
1766015849.616609,24
1766015849.616618,25
1766015849.616628,24
1766015849.616637,22
1766015849.6166458,21
1766015849.616655,26
1766015849.6166642,25
1766015849.616673,26
1766015849.616682,25
1766015849.6166909,25
1766015849.6167,25
1766015849.61671,26
1766015849.616719,25
1766015849.616728,27
1766015849.6167371,27
1766015849.616746,23
1766015849.616755,26
1766015849.6167638,23
1766015849.6167731,23
1766015849.6167822,27
1766015849.616792,23
1766015849.616801,23
1766015849.61681,25
1766015849.616819,26
1766015849.616828,27
1766015849.616837,27
1766015849.616846,26
1766015849.6168551,26
1766015849.616864,25
1766015849.616873,24
1766015849.6168818,29
1766015849.616891,26
1766015849.6169002,29
1766015849.616909,26
1766015849.61692,25
1766015849.616929,24
1766015849.6169379,28
1766015849.616948,29
1766015849.616957,27
1766015849.6169658,27
1766015849.616975,24
1766015849.6169841,26
1766015849.616993,29
1766015849.617002,28
1766015849.6170108,27
1766015849.617024,28
1766015849.617033,27
1766015849.6170418,29
1766015849.617051,26
1766015849.6170602,27
1766015849.617069,23
1766015849.617078,24
1766015849.617087,27
1766015849.617096,25
1766015849.617105,25
1766015849.6171148,28
1766015849.617124,30
1766015849.6171331,29
1766015849.617142,24
1766015849.617151,28
1766015849.6171598,27
1766015849.617169,28
1766015849.6171782,28
1766015849.617187,29
1766015849.617196,30
1766015849.617205,26
1766015849.617214,28
1766015849.617223,28
1766015849.6172318,28
1766015849.6172411,26
1766015849.61725,26
1766015849.617259,26
1766015849.617268,27
1766015849.6172779,30
1766015849.617287,29
1766015849.617296,31
1766015849.617305,31
1766015849.617314,26
1766015849.617323,28
1766015849.617332,27
1766015849.617341,27
1766015849.6173499,26
1766015849.6173599,29
1766015849.6173692,28
1766015849.617378,29
1766015849.617387,28
1766015849.6173959,28
1766015849.617405,29
1766015849.617414,29
1766015849.617423,28
1766015849.617432,27
1766015849.617441,30
1766015849.61745,28
1766015849.617459,28
1766015849.6174679,25
1766015849.6174772,26
1766015849.617486,25
1766015849.617495,28
1766015849.617504,29
1766015849.617514,28
1766015849.617523,30
1766015849.617532,28
1766015849.617541,30
1766015849.6175501,27
1766015849.617559,30
1766015849.617568,33
1766015849.617578,31
1766015849.6175869,31
1766015849.617596,30
1766015849.6176052,30
1766015849.617614,30
1766015849.617623,31
1766015849.617632,32
1766015849.61764,31
1766015849.6176481,33
1766015849.617656,32
1766015849.617664,32
1766015849.617673,31
1766015849.6176808,29
1766015849.6176891,31
1766015849.617697,30
1766015849.6177049,35
1766015849.617713,33
1766015849.617721,31
1766015849.617729,35
1766015849.617738,37
1766015849.6177459,32
1766015849.6177542,30
1766015849.617763,31
1766015849.617773,33
1766015849.617781,33
1766015849.617789,32
1766015849.6177979,33
1766015849.6178062,30
1766015849.617814,32
1766015849.617822,34
1766015849.6178298,29
1766015849.6178381,30
1766015849.617847,35
1766015849.617855,32
1766015849.617863,34
1766015849.617871,30
1766015849.61788,34
1766015849.617888,32
1766015849.6178958,31
1766015849.6179042,30
1766015849.617912,34
1766015849.61792,29
1766015849.617929,33
1766015849.6179368,30
1766015849.6179452,31
1766015849.617953,31
1766015849.617961,29
1766015849.6179688,33
1766015849.6179771,31
1766015849.617985,30
1766015849.617994,31
1766015849.618002,28
1766015849.61801,29
1766015849.6180182,30
1766015849.618026,30
1766015849.618034,29
1766015849.6180422,26
1766015849.61805,28
1766015849.618058,27
1766015849.6180658,28
1766015849.6180742,29
1766015849.618083,27
1766015849.618091,27
1766015849.618099,28
1766015849.6181068,28
1766015849.6181152,27
1766015849.618123,28
1766015849.618131,27
1766015849.61814,26
1766015849.618148,26
1766015849.618156,28
1766015849.618164,29
1766015849.618172,27
1766015849.61818,28
1766015849.6181881,27
1766015849.618196,28
1766015849.6182048,31
1766015849.6182132,26
1766015849.618221,31
1766015849.618229,30
1766015849.618237,28
1766015849.6182451,30
1766015849.618253,29
1766015849.618262,28
1766015849.61827,31
1766015849.6182778,30
1766015849.6182861,31
1766015849.61877,30
1766015849.619777,29
1766015849.620787,30
1766015849.6217868,31
1766015849.622787,28
1766015849.623762,28
1766015849.6247969,29
1766015849.625746,30
1766015849.6267881,30
1766015849.6277802,28
1766015849.6288052,28
1766015849.629787,27
1766015849.63079,29
1766015849.6317708,30
1766015849.632792,29
1766015849.633812,28
1766015849.634808,28
1766015849.6357949,28
1766015849.636818,27
1766015849.6378171,29
1766015849.638825,27
1766015849.639821,27
1766015849.640809,30
1766015849.641825,30
1766015849.6428149,28
1766015849.6438022,27
1766015849.6448379,28
1766015849.645838,28
1766015849.646857,28
1766015849.647854,26
1766015849.648858,28
1766015849.649821,27
1766015849.650817,29
1766015849.651851,28
1766015849.652836,27
1766015849.6538591,27
1766015849.6548731,29
1766015849.6558568,31
1766015849.656843,29
1766015849.657846,31
1766015849.658875,27
1766015849.65986,30
1766015849.66084,26
1766015849.661891,30
1766015849.662893,31
1766015849.663881,30
1766015849.664876,27
1766015849.665856,30
1766015849.666899,29
1766015849.6679082,32
1766015849.668907,27
1766015849.669894,26
1766015849.6709151,26
1766015849.671911,29
1766015849.6729012,28
1766015849.6739268,28
1766015849.674925,25
1766015849.675906,23
1766015849.676916,26
1766015849.677923,27
1766015849.678922,26
1766015849.679956,28
1766015849.680935,25
1766015849.681942,30
1766015849.682945,27
1766015849.683946,28
1766015849.6849978,30
1766015849.685945,28
1766015849.686974,28
1766015849.687964,28
1766015849.688946,28
1766015849.689953,27
1766015849.690929,25
1766015849.691978,26
1766015849.69296,27
1766015849.69393,28
1766015849.6949701,27
1766015849.695982,28
1766015849.696974,24
1766015849.697988,29
1766015849.6989398,29
1766015849.699975,27
1766015849.701002,25
1766015849.701956,27
1766015849.702999,26
1766015849.703997,28
1766015849.705009,30
1766015849.7060149,26
1766015849.706958,28
1766015849.7079701,27
1766015849.70897,23
1766015849.710022,27
1766015849.7110422,27
1766015849.7120268,25
1766015849.712988,24
1766015849.7140439,26
1766015849.715018,25
1766015849.71599,26
1766015849.7170382,26
1766015849.718008,24
1766015849.719056,25
1766015849.720026,25
1766015849.721011,24
1766015849.722048,25
1766015849.723136,21
1766015849.7240949,25
1766015849.725044,28
1766015849.7261078,21
1766015849.727118,23
1766015849.728144,25
1766015849.729146,23
1766015849.730099,25
1766015849.7311249,24
1766015849.73211,25
1766015849.733115,23
1766015849.734129,24
1766015849.735144,27
1766015849.736151,24
1766015849.7371368,28
1766015849.738144,25
1766015849.739129,25
1766015849.7401369,25
1766015849.7411451,29
1766015849.7421298,25
1766015849.743127,22
1766015849.744127,22
1766015849.7451289,23
1766015849.7461262,27
1766015849.7471309,25
1766015849.748123,27
1766015849.749145,27
1766015849.750135,24
1766015849.751125,24
1766015849.7521229,25
1766015849.753122,25
1766015849.754125,26
1766015849.7551308,24
1766015849.756137,26
1766015849.75715,26
1766015849.758143,28
1766015849.7591438,24
1766015849.760153,27
1766015849.761153,26
1766015849.762154,23
1766015849.76316,26
1766015849.764162,27
1766015849.765179,27
1766015849.766164,26
1766015849.767165,26
1766015849.768165,24
1766015849.769186,25
1766015849.770188,26
1766015849.771172,24
1766015849.772183,27
1766015849.773171,26
1766015849.774199,25
1766015849.7752051,26
1766015849.776206,26
1766015849.777198,25
1766015849.778208,28
1766015849.7792158,30
1766015849.780221,28
1766015849.781219,30
1766015849.782201,28
1766015849.783238,28
1766015849.784215,28
1766015849.785225,30
1766015849.786227,28
1766015849.787255,27
1766015849.788262,28
1766015849.789216,26
1766015849.7902248,27
1766015849.7912378,29
1766015849.792253,28
1766015849.7932348,28
1766015849.794247,28
1766015849.795248,27
1766015849.796246,26
1766015849.7972522,27
1766015849.798246,28
1766015849.799246,30
1766015849.800252,30
1766015849.801253,25
1766015849.802262,28
1766015849.803267,30
1766015849.80427,26
1766015849.805273,26
1766015849.806286,25
1766015849.8072782,27
1766015849.808285,29
1766015849.80931,27
1766015849.8102899,30
1766015849.811286,28
1766015849.812289,28
1766015849.813298,27
1766015849.814278,27
1766015849.815309,29
1766015849.8163068,25
1766015849.817302,28
1766015849.818305,28
1766015849.819304,28
1766015849.820308,27
1766015849.8213272,27
1766015849.822325,26
1766015849.823328,27
1766015849.8243468,26
1766015849.8253398,29
1766015849.8263218,27
1766015849.827318,28
1766015849.828322,24
1766015849.8293371,27
1766015849.8303401,28
1766015849.831338,28
1766015849.8323462,28
1766015849.83334,27
1766015849.834335,27
1766015849.8353438,26
1766015849.836323,27
1766015849.837335,31
1766015849.83834,30
1766015849.839329,29
1766015849.840377,30
1766015849.841388,28
1766015849.842388,26
1766015849.843387,28
1766015849.844384,27
1766015849.845394,30
1766015849.846389,26
1766015849.84739,31
1766015849.848438,28
1766015849.8494039,33
1766015849.8504078,34
1766015849.851416,34
1766015849.85244,38
1766015849.8534038,38
1766015849.854414,40
1766015849.8554208,40
1766015849.8563998,38
1766015849.857436,38
1766015849.858424,36
1766015849.859431,35
1766015849.860427,37
1766015849.86143,38
1766015849.862425,37
1766015849.863433,36
1766015849.864427,38
1766015849.865449,39
1766015849.8664682,39
1766015849.8674471,40
1766015849.868441,41
1766015849.8694541,42
1766015849.8704698,39
1766015849.871456,40
1766015849.872457,40
1766015849.8734741,41
1766015849.87447,38
1766015849.875502,42
1766015849.876489,41
1766015849.8775191,43
1766015849.878473,41
1766015849.879498,40
1766015849.880481,43
1766015849.881501,45
1766015849.8824892,45
1766015849.883522,44
1766015849.8845,44
1766015849.885498,43
1766015849.886503,43
1766015849.887517,46
1766015849.88852,47
1766015849.8895202,44
1766015849.890505,44
1766015849.891541,45
1766015849.892523,42
1766015849.893533,45
1766015849.894528,45
1766015849.89553,43
1766015849.896534,46
1766015849.897557,46
1766015849.898546,42
1766015849.899532,45
1766015849.9005609,43
1766015849.901567,44
1766015849.902554,42
1766015849.903549,44
1766015849.904565,42
1766015849.905561,44
1766015849.9065669,44
1766015849.9075599,46
1766015849.9085598,42
1766015849.9095738,45
1766015849.910573,45
1766015849.911594,47
1766015849.912606,45
1766015849.91362,46
1766015849.914614,46
1766015849.915603,44
1766015849.91659,44
1766015849.917601,48
1766015849.918628,48
1766015849.919626,43
1766015849.920631,46
1766015849.921618,44
1766015849.9226298,45
1766015849.923618,43
1766015849.924622,48
1766015849.9256132,46
1766015849.926646,43
1766015849.9276621,42
1766015849.928651,42
1766015849.929667,41
1766015849.930635,41
1766015849.931648,45
1766015849.932659,43
1766015849.9336529,40
1766015849.9346602,42
1766015849.935651,45
1766015849.936652,46
1766015849.937647,51
1766015849.938672,55
1766015849.9396539,56
1766015849.940654,60
1766015849.941688,60
1766015849.942685,62
1766015849.9436932,63
1766015849.944708,62
1766015849.945708,62
1766015849.946696,63
1766015849.9476979,64
1766015849.948704,62
1766015849.949703,64
1766015849.950699,67
1766015849.951682,65
1766015849.9527411,66
1766015849.953713,64
1766015849.954709,65
1766015849.9557152,65
1766015849.956722,71
1766015849.9577222,70
1766015849.958734,73
1766015849.959732,82
1766015849.960727,82
1766015849.96174,83
1766015849.962751,85
1766015849.963722,81
1766015849.964714,84
1766015849.9657018,85
1766015849.966696,85
1766015849.967707,83
1766015849.96872,86
1766015849.96974,88
1766015849.970727,86
1766015849.971766,89
1766015849.972749,88
1766015849.973741,86
1766015849.9747598,85
1766015849.975753,93
1766015849.976736,92
1766015849.9777431,94
1766015849.9787579,90
1766015849.979739,92
1766015849.980737,96
1766015849.981766,96
1766015849.982767,95
1766015849.983781,96
1766015849.984925,102
1766015849.985873,106
1766015849.986898,108
1766015849.987863,108
1766015849.9889011,113
1766015849.989902,111
1766015849.990885,109
1766015849.991897,111
1766015849.992908,112
1766015849.9939032,115
1766015849.9949188,112
1766015849.9959161,119
1766015849.996913,120
1766015849.9979231,127
1766015849.998914,137
1766015849.9999092,150
1766015850.0009222,162
1766015850.001929,174
1766015850.0029361,188
1766015850.003934,201
1766015850.004938,200
1766015850.00593,203
1766015850.0069308,205
1766015850.0079381,203
1766015850.0089338,201
1766015850.00996,198
1766015850.010943,199
1766015850.011942,202
1766015850.0129359,204
1766015850.013951,207
1766015850.014955,208
1766015850.0159569,207
1766015850.017052,204
1766015850.017951,203
1766015850.018949,200
1766015850.0199392,203
1766015850.020939,208
1766015850.0219462,216
1766015850.022951,226
1766015850.023954,235
1766015850.025002,249
1766015850.0260081,248
1766015850.027006,246
1766015850.0280252,244
1766015850.0290308,242
1766015850.03003,240
1766015850.0310159,236
1766015850.0319948,237
1766015850.0330088,231
1766015850.034014,235
1766015850.03502,241
1766015850.035996,238
1766015850.0370271,234
1766015850.038029,233
1766015850.038999,231
1766015850.040041,229
1766015850.041054,227
1766015850.042041,228
1766015850.043008,230
1766015850.0440478,233
1766015850.045061,238
1766015850.0461318,238
1766015850.047147,242
1766015850.0481348,244
1766015850.0491369,245
1766015850.050095,248
1766015850.051144,250
1766015850.052136,244
1766015850.0531042,245
1766015850.054141,241
1766015850.055136,237
1766015850.056093,238
1766015850.0570948,244
1766015850.05811,241
1766015850.059126,247
1766015850.0601192,246
1766015850.061121,243
1766015850.0621061,239
1766015850.0631099,238
1766015850.064118,240
1766015850.0651252,239
1766015850.066118,244
1766015850.0671208,250
1766015850.06813,263
1766015850.069132,278
1766015850.070133,288
1766015850.071136,304
1766015850.072128,311
1766015850.07313,314
1766015850.074133,314
1766015850.075134,311
1766015850.0761359,305
1766015850.077133,308
1766015850.0781481,312
1766015850.079134,314
1766015850.0801542,314
1766015850.081152,309
1766015850.082154,304
1766015850.083151,301
1766015850.0841558,298
1766015850.085171,297
1766015850.0861719,290
1766015850.087183,290
1766015850.088182,287
1766015850.089174,282
1766015850.090219,279
1766015850.0911832,275
1766015850.092182,273
1766015850.0931919,272
1766015850.094191,276
1766015850.0951931,272
1766015850.0962062,272
1766015850.0972002,268
1766015850.098193,265
1766015850.099217,263
1766015850.100227,260
1766015850.101244,255
1766015850.102258,253
1766015850.103252,250
1766015850.1042309,250
1766015850.10524,248
1766015850.106242,244
1766015850.107266,241
1766015850.108303,238
1766015850.109261,242
1766015850.1102421,242
1766015850.11126,239
1766015850.112256,240
1766015850.113258,242
1766015850.114256,239
1766015850.115257,237
1766015850.116266,235
1766015850.117242,236
1766015850.118261,237
1766015850.1192472,240
1766015850.1202528,239
1766015850.12122,242
1766015850.1222332,236
1766015850.12325,236
1766015850.124254,236
1766015850.125248,233
1766015850.1262531,227
1766015850.127242,227
1766015850.128277,223
1766015850.1292539,222
1766015850.13027,220
1766015850.1313012,216
1766015850.132299,213
1766015850.133267,211
1766015850.134295,207
1766015850.135329,205
1766015850.13632,203
1766015850.137315,204
1766015850.138338,200
1766015850.139314,198
1766015850.14033,198
1766015850.14136,197
1766015850.1423209,193
1766015850.1433222,194
1766015850.144336,191
1766015850.145337,187
1766015850.146352,187
1766015850.147341,186
1766015850.14834,189
1766015850.149344,193
1766015850.150348,199
1766015850.151361,204
1766015850.152365,207
1766015850.153364,210
1766015850.1543858,207
1766015850.15538,204
1766015850.156358,204
1766015850.157391,201
1766015850.158402,200
1766015850.1593869,200
1766015850.160366,199
1766015850.1613781,197
1766015850.1623821,195
1766015850.163376,195
1766015850.164384,196
1766015850.1653929,198
1766015850.166409,200
1766015850.167399,200
1766015850.168402,197
1766015850.169405,198
1766015850.1704168,192
1766015850.171402,194
1766015850.172427,193
1766015850.173419,191
1766015850.174422,189
1766015850.1754181,187
1766015850.1764128,188
1766015850.1774411,188
1766015850.178436,192
1766015850.1794298,196
1766015850.180429,202
1766015850.181441,207
1766015850.182434,205
1766015850.183433,202
1766015850.184433,199
1766015850.185418,196
1766015850.1864278,196
1766015850.187424,197
1766015850.188423,195
1766015850.189445,194
1766015850.1904461,193
1766015850.191434,190
1766015850.192437,189
1766015850.1934762,185
1766015850.1944551,182
1766015850.1954792,183
1766015850.19645,182
1766015850.1974971,180
1766015850.198507,180
1766015850.199499,178
1766015850.200491,175
1766015850.2017548,176
1766015850.2024891,176
1766015850.203478,171
1766015850.204493,174
1766015850.205495,172
1766015850.206486,171
1766015850.207493,164
1766015850.2084858,164
1766015850.209482,163
1766015850.210489,163
1766015850.211473,160
1766015850.212503,158
1766015850.213501,157
1766015850.214505,155
1766015850.215501,154
1766015850.216506,156
1766015850.217514,161
1766015850.218503,165
1766015850.219509,175
1766015850.220521,179
1766015850.221544,177
1766015850.222551,175
1766015850.223559,176
1766015850.224552,172
1766015850.225524,172
1766015850.2265248,172
1766015850.2275379,168
1766015850.2285812,166
1766015850.229568,169
1766015850.230549,171
1766015850.2315829,167
1766015850.232585,164
1766015850.2335901,163
1766015850.2345889,164
1766015850.2355819,161
1766015850.236595,160
1766015850.2376032,158
1766015850.238604,156
1766015850.239609,157
1766015850.240576,151
1766015850.241633,151
1766015850.242613,151
1766015850.2436328,152
1766015850.244616,149
1766015850.24564,148
1766015850.2466218,150
1766015850.247626,146
1766015850.248613,143
1766015850.24964,144
1766015850.250637,139
1766015850.2516549,141
1766015850.252646,140
1766015850.253641,138
1766015850.254654,137
1766015850.2556329,137
1766015850.256646,141
1766015850.257657,148
1766015850.258658,153
1766015850.259661,153
1766015850.260664,152
1766015850.261662,150
1766015850.262666,152
1766015850.2636642,153
1766015850.264687,154
1766015850.265673,159
1766015850.2666829,158
1766015850.26769,161
1766015850.268692,156
1766015850.269701,156
1766015850.2706828,154
1766015850.2716851,155
1766015850.272693,150
1766015850.27371,151
1766015850.2747111,151
1766015850.275715,149
1766015850.2767181,148
1766015850.277716,148
1766015850.2787158,144
1766015850.279714,145
1766015850.280712,145
1766015850.2817202,144
1766015850.282729,142
1766015850.283732,143
1766015850.284729,141
1766015850.285726,142
1766015850.286738,142
1766015850.287744,138
1766015850.288745,139
1766015850.2897432,139
1766015850.29075,136
1766015850.2917461,134
1766015850.2927449,135
1766015850.293757,130
1766015850.2947562,131
1766015850.2957592,128
1766015850.2967622,128
1766015850.297774,126
1766015850.298781,125
1766015850.299778,123
1766015850.300778,122
1766015850.301779,120
1766015850.302784,120
1766015850.303784,118
1766015850.304786,117
1766015850.305797,117
1766015850.306794,114
1766015850.307798,117
1766015850.308803,112
1766015850.309792,111
1766015850.310793,109
1766015850.31179,109
1766015850.3128169,111
1766015850.313796,109
1766015850.314821,105
1766015850.315827,107
1766015850.316845,104
1766015850.317835,102
1766015850.31884,103
1766015850.319836,104
1766015850.3208451,110
1766015850.321834,113
1766015850.322839,126
1766015850.323829,135
1766015850.324845,143
1766015850.3258471,149
1766015850.326844,152
1766015850.327848,153
1766015850.328842,153
1766015850.329869,154
1766015850.3308642,156
1766015850.3318489,156
1766015850.332852,157
1766015850.333863,159
1766015850.334878,159
1766015850.335876,159
1766015850.336873,154
1766015850.337878,156
1766015850.338897,153
1766015850.339881,152
1766015850.340884,151
1766015850.34189,152
1766015850.3428988,150
1766015850.3438988,147
1766015850.344895,146
1766015850.345901,147
1766015850.346925,149
1766015850.347931,149
1766015850.348943,147
1766015850.3499148,147
1766015850.35092,145
1766015850.351917,148
1766015850.352942,149
1766015850.353947,149
1766015850.3549619,148
1766015850.355944,145
1766015850.3569448,145
1766015850.357954,145
1766015850.3589609,144
1766015850.359941,144
1766015850.36097,142
1766015850.361971,145
1766015850.362963,141
1766015850.3639529,146
1766015850.364942,147
1766015850.365949,145
1766015850.366961,148
1766015850.3679948,148
1766015850.368979,148
1766015850.369997,149
1766015850.3709939,149
1766015850.372,155
1766015850.372993,153
1766015850.3739898,152
1766015850.374997,153
1766015850.37599,152
1766015850.376972,150
1766015850.377961,150
1766015850.378977,150
1766015850.3799732,152
1766015850.3809721,145
1766015850.381974,146
1766015850.3829818,147
1766015850.383975,145
1766015850.3849988,141
1766015850.385994,140
1766015850.38697,137
1766015850.387999,137
1766015850.388982,135
1766015850.3899891,137
1766015850.390996,133
1766015850.3919969,132
1766015850.392997,128
1766015850.394001,130
1766015850.3950012,126
1766015850.3960059,125
1766015850.397015,124
1766015850.3981,124
1766015850.3991082,125
1766015850.399997,121
1766015850.401097,123
1766015850.402009,119
1766015850.4030888,118
1766015850.4040902,117
1766015850.4051032,116
1766015850.406101,117
1766015850.407088,120
1766015850.408133,117
1766015850.409085,116
1766015850.410094,121
1766015850.411092,126
1766015850.4121118,126
1766015850.4131079,128
1766015850.4141052,129
1766015850.415115,129
1766015850.416106,126
1766015850.417098,129
1766015850.418102,129
1766015850.4190998,125
1766015850.420098,125
1766015850.4211001,124
1766015850.4221041,125
1766015850.4231098,122
1766015850.424129,124
1766015850.4251049,122
1766015850.426102,122
1766015850.427117,122
1766015850.4281259,122
1766015850.429131,120
1766015850.430128,123
1766015850.431196,124
1766015850.4321332,130
1766015850.43313,130
1766015850.434152,131
1766015850.435115,128
1766015850.436152,129
1766015850.4371462,132
1766015850.438168,132
1766015850.439184,133
1766015850.4401789,130
1766015850.4411762,129
1766015850.442188,130
1766015850.443172,130
1766015850.444161,127
1766015850.445177,124
1766015850.44619,123
1766015850.4471948,126
1766015850.448179,127
1766015850.449169,131
1766015850.450187,129
1766015850.451179,133
1766015850.452179,133
1766015850.4531698,128
1766015850.4541912,130
1766015850.455188,128
1766015850.456192,127
1766015850.457193,127
1766015850.458195,126
1766015850.459192,128
1766015850.460187,127
1766015850.4611928,125
1766015850.462213,126
1766015850.463192,122
1766015850.4642072,124
1766015850.465203,122
1766015850.466203,123
1766015850.4672031,122
1766015850.468197,126
1766015850.4692101,129
1766015850.470198,129
1766015850.471194,132
1766015850.472218,130
1766015850.4732292,129
1766015850.4742131,128
1766015850.4752269,129
1766015850.476235,131
1766015850.477264,132
1766015850.478246,129
1766015850.4792619,131
1766015850.4802308,131
1766015850.481267,137
1766015850.4822788,135
1766015850.48328,134
1766015850.484286,139
1766015850.485302,137
1766015850.486316,138
1766015850.487326,139
1766015850.48833,131
1766015850.4894788,133
1766015850.490301,132
1766015850.491317,133
1766015850.492328,131
1766015850.493331,129
1766015850.494318,131
1766015850.49534,131
1766015850.496313,130
1766015850.4973152,131
1766015850.498325,130
1766015850.4993448,131
1766015850.500306,131
1766015850.5013309,137
1766015850.502337,142
1766015850.5033119,143
1766015850.5043159,145
1766015850.505322,145
1766015850.506343,146
1766015850.507355,143
1766015850.508339,142
1766015850.5093682,144
1766015850.510338,142
1766015850.511391,141
1766015850.512361,140
1766015850.513356,140
1766015850.514354,140
1766015850.515389,139
1766015850.516393,136
1766015850.5173728,135
1766015850.5183759,134
1766015850.519352,134
1766015850.520351,134
1766015850.521346,132
1766015850.522336,133
1766015850.523361,130
1766015850.5243578,131
1766015850.525384,127
1766015850.5263941,134
1766015850.5273972,135
1766015850.528383,136
1766015850.52944,137
1766015850.5303922,140
1766015850.5314,142
1766015850.532417,141
1766015850.533409,139
1766015850.534445,143
1766015850.535428,141
1766015850.536484,140
1766015850.537434,146
1766015850.53844,149
1766015850.539445,156
1766015850.540438,163
1766015850.541449,164
1766015850.542453,163
1766015850.5434291,163
1766015850.544459,164
1766015850.54544,171
1766015850.546473,171
1766015850.547466,171
1766015850.548477,171
1766015850.549475,169
1766015850.550551,166
1766015850.551512,167
1766015850.552458,163
1766015850.553459,161
1766015850.5544698,161
1766015850.5555441,158
1766015850.55651,157
1766015850.5574908,158
1766015850.55853,156
1766015850.55949,155
1766015850.560482,155
1766015850.561502,157
1766015850.562476,154
1766015850.563513,153
1766015850.5644999,154
1766015850.565503,153
1766015850.5665169,151
1766015850.56749,149
1766015850.568476,149
1766015850.569482,148
1766015850.570488,147
1766015850.571517,146
1766015850.572533,147
1766015850.573523,147
1766015850.574532,148
1766015850.575536,145
1766015850.5765362,146
1766015850.5775528,149
1766015850.578519,148
1766015850.579547,150
1766015850.580553,146
1766015850.581547,148
1766015850.582547,145
1766015850.5835829,144
1766015850.584578,144
1766015850.5855901,143
1766015850.586611,139
