timestamp,emg_value
1766015835.92973,84
1766015835.9297369,83
1766015835.929743,86
1766015835.929748,80
1766015835.929753,81
1766015835.9297578,81
1766015835.929763,81
1766015835.9297678,81
1766015835.929773,80
1766015835.9297779,77
1766015835.929783,78
1766015835.9297879,77
1766015835.9297931,78
1766015835.9297972,75
1766015835.929802,74
1766015835.9298072,72
1766015835.929812,75
1766015835.9298172,76
1766015835.929822,69
1766015835.929827,73
1766015835.929832,71
1766015835.929837,72
1766015835.929842,70
1766015835.929847,68
1766015835.929852,70
1766015835.929857,68
1766015835.9298618,68
1766015835.929867,67
1766015835.929871,66
1766015835.9298759,70
1766015835.929881,66
1766015835.9298859,66
1766015835.929894,67
1766015835.9299011,68
1766015835.929906,72
1766015835.9299111,69
1766015835.929915,74
1766015835.92992,70
1766015835.9299252,73
1766015835.92993,72
1766015835.9299352,71
1766015835.92994,72
1766015835.929945,72
1766015835.92995,71
1766015835.929955,70
1766015835.92996,72
1766015835.929965,68
1766015835.9299688,68
1766015835.929974,67
1766015835.9299788,70
1766015835.929984,69
1766015835.929989,66
1766015835.9299939,69
1766015835.929999,67
1766015835.930004,67
1766015835.9300091,68
1766015835.930013,69
1766015835.930018,67
1766015835.930023,67
1766015835.930028,65
1766015835.930033,63
1766015835.930038,62
1766015835.930043,61
1766015835.930048,64
1766015835.930052,64
1766015835.930063,64
1766015835.930069,65
1766015835.9300742,63
1766015835.930079,64
1766015835.930084,67
1766015835.930089,70
1766015835.930093,70
1766015835.9300978,71
1766015835.930103,71
1766015835.9301078,70
1766015835.930113,69
1766015835.9301178,73
1766015835.930124,69
1766015835.9301288,68
1766015835.930134,70
1766015835.9301388,71
1766015835.9301429,72
1766015835.9301481,71
1766015835.930153,71
1766015835.9301581,71
1766015835.930163,74
1766015835.9301682,74
1766015835.930172,77
1766015835.930177,81
1766015835.930182,77
1766015835.930187,73
1766015835.9301918,77
1766015835.930196,75
1766015835.930202,78
1766015835.930206,77
1766015835.930211,77
1766015835.9302158,76
1766015835.930221,74
1766015835.9302258,73
1766015835.930232,73
1766015835.930238,74
1766015835.930243,70
1766015835.9302468,73
1766015835.930252,70
1766015835.9302568,70
1766015835.930262,69
1766015835.9302669,69
1766015835.930272,70
1766015835.9302762,71
1766015835.9302862,73
1766015835.930291,76
1766015835.9302962,71
1766015835.930301,75
1766015835.930306,75
1766015835.9303098,73
1766015835.930315,74
1766015835.9303198,72
1766015835.930325,74
1766015835.93033,76
1766015835.9303339,76
1766015835.930339,77
1766015835.9303439,77
1766015835.930349,77
1766015835.9303539,79
1766015835.930358,77
1766015835.930363,76
1766015835.930368,78
1766015835.9303732,75
1766015835.930378,78
1766015835.9303849,76
1766015835.9303901,75
1766015835.930395,74
1766015835.930401,73
1766015835.9304059,74
1766015835.930411,72
1766015835.930416,71
1766015835.9304209,72
1766015835.9304261,73
1766015835.930431,72
1766015835.9304361,72
1766015835.93044,70
1766015835.930445,71
1766015835.93045,71
1766015835.930455,70
1766015835.93046,68
1766015835.930464,70
1766015835.930469,71
1766015835.930474,67
1766015835.930479,68
1766015835.930484,67
1766015835.930489,70
1766015835.930494,71
1766015835.9304981,72
1766015835.930503,68
1766015835.9305081,68
1766015835.930513,69
1766015835.930518,69
1766015835.9305222,73
1766015835.930527,69
1766015835.930532,66
1766015835.930537,68
1766015835.930542,72
1766015835.9305458,68
1766015835.930551,66
1766015835.9305558,67
1766015835.930561,65
1766015835.930567,65
1766015835.930573,63
1766015835.9305768,66
1766015835.930582,63
1766015835.9305868,63
1766015835.930592,62
1766015835.930597,66
1766015835.930602,65
1766015835.930607,67
1766015835.9306118,69
1766015835.9306161,65
1766015835.930621,67
1766015835.9306262,66
1766015835.930631,68
1766015835.930636,65
1766015835.930641,65
1766015835.930645,63
1766015835.93065,65
1766015835.930655,64
1766015835.93066,65
1766015835.930665,64
1766015835.93067,66
1766015835.9306738,65
1766015835.930679,69
1766015835.9306839,67
1766015835.930689,65
1766015835.9306939,66
1766015835.930698,66
1766015835.9307032,66
1766015835.930708,65
1766015835.9307132,62
1766015835.930718,63
1766015835.930722,64
1766015835.930729,64
1766015835.930735,64
1766015835.9307399,60
1766015835.9307451,61
1766015835.930749,59
1766015835.930754,62
1766015835.930759,61
1766015835.930764,60
1766015835.930769,66
1766015835.930773,69
1766015835.930778,75
1766015835.930783,76
1766015835.930788,72
1766015835.930793,74
1766015835.930797,71
1766015835.9308019,73
1766015835.930807,79
1766015835.930812,80
1766015835.930816,77
1766015835.9308212,74
1766015835.930826,74
1766015835.9308312,77
1766015835.930836,79
1766015835.93084,77
1766015835.930845,79
1766015835.93085,77
1766015835.9308548,76
1766015835.93086,75
1766015835.9308648,75
1766015835.930869,76
1766015835.930874,75
1766015835.9308789,79
1766015835.9308841,73
1766015835.93089,78
1766015835.9308958,74
1766015835.930901,76
1766015835.930906,74
1766015835.930911,74
1766015835.930915,75
1766015835.93092,72
1766015835.9309251,75
1766015835.93093,69
1766015835.9309351,71
1766015835.930939,68
1766015835.930944,73
1766015835.9309492,72
1766015835.930954,69
1766015835.930959,71
1766015835.930963,73
1766015835.930968,78
1766015835.9309728,75
1766015835.930978,75
1766015835.9309819,75
1766015835.9309871,76
1766015835.9309921,79
1766015835.930997,77
1766015835.9310012,76
1766015835.931006,80
1766015835.931011,79
1766015835.931016,76
1766015835.931021,77
1766015835.9310248,80
1766015835.93103,78
1766015835.9310348,77
1766015835.93104,74
1766015835.931044,76
1766015835.9310489,76
1766015835.931056,73
1766015835.931061,72
1766015835.931066,69
1766015835.9310699,69
1766015835.931075,70
1766015835.9310799,71
1766015835.931085,69
1766015835.9310899,70
1766015835.9310951,69
1766015835.9311,67
1766015835.931104,66
1766015835.9311092,65
1766015835.931114,67
1766015835.9311192,66
1766015835.931123,65
1766015835.931128,66
1766015835.931133,61
1766015835.931138,63
1766015835.9311428,65
1766015835.931147,63
1766015835.9311519,67
1766015835.9311569,64
1766015835.931162,72
1766015835.931167,76
1766015835.9311712,84
1766015835.931176,91
1766015835.931181,98
1766015835.931186,98
1766015835.931191,99
1766015835.931197,105
1766015835.9312031,105
1766015835.9312088,108
1766015835.9312158,109
1766015835.9312232,111
1766015835.9312289,112
1766015835.931235,110
1766015835.931241,111
1766015835.931247,110
1766015835.931253,111
1766015835.931259,109
1766015835.931265,110
1766015835.93127,107
1766015835.931276,109
1766015835.931283,107
1766015835.931288,105
1766015835.931294,106
1766015835.9313002,103
1766015835.931306,101
1766015835.9313111,99
1766015835.931317,102
1766015835.931322,99
1766015835.9313269,97
1766015835.9313312,96
1766015835.931336,98
1766015835.9313412,95
1766015835.931346,95
1766015835.931351,95
1766015835.9313548,92
1766015835.93136,92
1766015835.931365,90
1766015835.93137,88
1766015835.931374,92
1766015835.931381,91
1766015835.931387,88
1766015835.931391,87
1766015835.931396,86
1766015835.931401,84
1766015835.931406,87
1766015835.931411,85
1766015835.931415,86
1766015835.9314198,86
1766015835.931425,87
1766015835.9314299,87
1766015835.931435,88
1766015835.9314392,89
1766015835.931444,85
1766015835.9314492,85
1766015835.931454,84
1766015835.931458,85
1766015835.931463,85
1766015835.931468,88
1766015835.9314728,87
1766015835.931478,92
1766015835.9314828,89
1766015835.931487,85
1766015835.931492,89
1766015835.9314969,86
1766015835.931502,89
1766015835.9315069,90
1766015835.931511,90
1766015835.931516,88
1766015835.931521,88
1766015835.931526,87
1766015835.93153,88
1766015835.931535,85
1766015835.931542,87
1766015835.931547,83
1766015835.931552,82
1766015835.931561,85
1766015835.9315672,85
1766015835.931571,82
1766015835.931576,85
1766015835.931581,83
1766015835.931586,84
1766015835.9315908,83
1766015835.931595,81
1766015835.9315999,78
1766015835.931605,79
1766015835.93161,79
1766015835.9316149,77
1766015835.9316192,74
1766015835.931624,74
1766015835.931629,76
1766015835.931634,78
1766015835.931638,77
1766015835.9316428,76
1766015835.931648,78
1766015835.931653,75
1766015835.931657,72
1766015835.931662,70
1766015835.9316669,72
1766015835.931672,74
1766015835.9316769,72
1766015835.931681,72
1766015835.931686,69
1766015835.931691,72
1766015835.9316962,69
1766015835.9317,70
1766015835.931705,67
1766015835.931711,68
1766015835.9317172,69
1766015835.931722,66
1766015835.9317272,67
1766015835.931732,70
1766015835.9317372,68
1766015835.931742,67
1766015835.931747,68
1766015835.931752,68
1766015835.931756,70
1766015835.9317608,66
1766015835.931766,68
1766015835.9317708,69
1766015835.931775,67
1766015835.93178,70
1766015835.9317849,69
1766015835.93179,68
1766015835.931794,65
1766015835.931799,66
1766015835.931804,68
1766015835.931809,65
1766015835.931814,64
1766015835.931818,64
1766015835.931823,63
1766015835.931828,64
1766015835.931833,66
1766015835.931838,60
1766015835.931842,66
1766015835.9318469,62
1766015835.931852,64
1766015835.9318569,59
1766015835.931861,60
1766015835.9318662,65
1766015835.931872,61
1766015835.9318771,62
1766015835.931883,65
1766015835.931888,64
1766015835.931893,67
1766015835.931898,67
1766015835.931902,65
1766015835.9319072,69
1766015835.931912,68
1766015835.931917,67
1766015835.931922,67
1766015835.931927,68
1766015835.9319308,70
1766015835.931936,73
1766015835.931941,73
1766015835.931946,71
1766015835.931951,72
1766015835.9319549,67
1766015835.93196,70
1766015835.931966,70
1766015835.931971,69
1766015835.9319758,71
1766015835.931981,70
1766015835.9319859,68
1766015835.931991,69
1766015835.931998,68
1766015835.932003,68
1766015835.932008,67
1766015835.932013,67
1766015835.9320178,66
1766015835.932023,63
1766015835.9320269,68
1766015835.932032,65
1766015835.932037,64
1766015835.932043,66
1766015835.9320488,67
1766015835.932054,65
1766015835.9320588,68
1766015835.932064,71
1766015835.932068,68
1766015835.9320729,71
1766015835.9320781,68
1766015835.932083,69
1766015835.9320881,69
1766015835.932092,71
1766015835.932097,67
1766015835.932102,68
1766015835.932107,70
1766015835.932111,68
1766015835.932116,68
1766015835.932121,67
1766015835.932126,68
1766015835.932131,64
1766015835.9321349,66
1766015835.93214,63
1766015835.9321449,64
1766015835.9321501,63
1766015835.9321542,62
1766015835.932159,61
1766015835.9321642,64
1766015835.932169,63
1766015835.932174,61
1766015835.932178,58
1766015835.932183,62
1766015835.9321878,61
1766015835.932193,62
1766015835.9321978,63
1766015835.932204,59
1766015835.93221,61
1766015835.932214,63
1766015835.9322188,63
1766015835.932224,64
1766015835.932229,61
1766015835.9322329,63
1766015835.932238,62
1766015835.9322429,61
1766015835.932248,61
1766015835.932253,58
1766015835.932257,62
1766015835.932262,57
1766015835.932267,58
1766015835.9322722,57
1766015835.932277,57
1766015835.9322822,58
1766015835.932286,59
1766015835.932291,57
1766015835.932296,54
1766015835.932301,58
1766015835.9323049,58
1766015835.93231,56
1766015835.9323149,56
1766015835.93232,54
1766015835.9323251,54
1766015835.93233,54
1766015835.9323351,55
1766015835.93234,52
1766015835.932344,55
1766015835.932349,54
1766015835.932354,59
1766015835.932359,55
1766015835.932365,55
1766015835.932371,56
1766015835.9323761,57
1766015835.93238,57
1766015835.932385,59
1766015835.93239,57
1766015835.932395,59
1766015835.9324002,58
1766015835.932404,57
1766015835.932409,57
1766015835.932414,56
1766015835.932418,55
1766015835.9324229,55
1766015835.9324281,59
1766015835.932433,58
1766015835.9324381,57
1766015835.9324422,61
1766015835.932447,62
1766015835.9324522,61
1766015835.932457,64
1766015835.932461,63
1766015835.932466,64
1766015835.932471,65
1766015835.9324758,64
1766015835.93248,64
1766015835.932485,63
1766015835.9324899,65
1766015835.932512,63
1766015835.932526,68
1766015835.932532,62
1766015835.932537,64
1766015835.9325418,64
1766015835.932547,66
1766015835.932554,66
1766015835.932561,66
1766015835.932566,69
1766015835.932571,73
1766015835.932576,83
1766015835.93258,87
1766015835.932585,95
1766015835.9325912,101
1766015835.932596,99
1766015835.9326022,108
1766015835.932608,113
1766015835.9326138,118
1766015835.93262,117
1766015835.932626,124
1766015835.932632,121
1766015835.932638,120
1766015835.9326441,121
1766015835.93265,120
1766015835.932656,121
1766015835.932662,121
1766015835.932668,121
1766015835.932674,119
1766015835.93268,118
1766015835.932693,115
1766015835.932702,118
1766015835.932708,115
1766015835.932714,115
1766015835.9327202,111
1766015835.932727,110
1766015835.932734,112
1766015835.9327402,111
1766015835.932746,111
1766015835.932752,107
1766015835.9327831,109
1766015835.932792,109
1766015835.932798,103
1766015835.932804,103
1766015835.93281,101
1766015835.9328158,104
1766015835.932822,100
1766015835.932828,100
1766015835.932833,98
1766015835.932839,100
1766015835.932844,99
1766015835.932849,98
1766015835.932854,95
1766015835.9328582,96
1766015835.93288,94
1766015835.932885,93
1766015835.9328902,92
1766015835.932895,91
1766015835.9329002,88
1766015835.932904,90
1766015835.932909,87
1766015835.932914,88
1766015835.932919,86
1766015835.9329238,84
1766015835.932928,85
1766015835.932935,85
1766015835.93294,82
1766015835.932945,80
1766015835.93295,82
1766015835.9329548,82
1766015835.932959,77
1766015835.932964,79
1766015835.9329689,77
1766015835.932974,76
1766015835.9329789,78
1766015835.932983,76
1766015835.932988,75
1766015835.932993,73
1766015835.932998,73
1766015835.933003,71
1766015835.933007,74
1766015835.933012,73
1766015835.933017,71
1766015835.933022,70
1766015835.933026,70
1766015835.9330308,68
1766015835.933036,67
1766015835.9330409,70
1766015835.933046,70
1766015835.9330502,68
1766015835.933055,67
1766015835.9330602,64
1766015835.933065,64
1766015835.9330702,63
1766015835.933075,65
1766015835.933079,67
1766015835.933084,63
1766015835.933089,64
1766015835.9330938,63
1766015835.933103,63
1766015835.933109,61
1766015835.933114,62
1766015835.933119,63
1766015835.933124,60
1766015835.933129,60
1766015835.9331331,61
1766015835.933138,61
1766015835.9331431,59
1766015835.933148,57
1766015835.933153,61
1766015835.9331572,59
1766015835.933162,55
1766015835.9331672,54
1766015835.933172,59
1766015835.933177,53
1766015835.933182,57
1766015835.933186,54
1766015835.9331908,53
1766015835.933196,53
1766015835.9332008,54
1766015835.933206,56
1766015835.9332108,52
1766015835.933216,52
1766015835.9332201,53
1766015835.933225,49
1766015835.9332302,53
1766015835.933235,52
1766015835.9332402,54
1766015835.933245,49
1766015835.93325,48
1766015835.933255,50
1766015835.933259,51
1766015835.933266,53
1766015835.9332721,49
1766015835.933276,48
1766015835.933281,48
1766015835.933286,48
1766015835.933291,47
1766015835.9332962,47
1766015835.9333,48
1766015835.933305,51
1766015835.93331,50
1766015835.933315,48
1766015835.93332,46
1766015835.933324,48
1766015835.9333289,46
1766015835.933334,44
1766015835.9333389,46
1766015835.933344,45
1766015835.9333491,44
1766015835.933353,45
1766015835.9333582,42
1766015835.933363,46
1766015835.933368,45
1766015835.933373,44
1766015835.933377,44
1766015835.9333818,46
1766015835.933387,43
1766015835.9333918,47
1766015835.933397,46
1766015835.933402,42
1766015835.9334059,44
1766015835.9334111,45
1766015835.933418,42
1766015835.933423,42
1766015835.933434,44
1766015835.933439,44
1766015835.9334452,44
1766015835.93345,43
1766015835.933455,46
1766015835.933459,41
1766015835.933464,42
1766015835.9334688,41
1766015835.933474,40
1766015835.9334788,42
1766015835.9334831,40
1766015835.9334881,44
1766015835.933493,41
1766015835.9334981,42
1766015835.933503,44
1766015835.9335082,45
1766015835.933512,42
1766015835.933517,45
1766015835.933522,43
1766015835.933527,43
1766015835.933532,41
1766015835.933536,41
1766015835.933541,44
1766015835.933546,44
1766015835.933551,44
1766015835.933556,39
1766015835.9335601,43
1766015835.933565,41
1766015835.9335701,40
1766015835.933575,40
1766015835.93358,39
1766015835.933585,41
1766015835.933589,43
1766015835.9335942,39
1766015835.9336011,40
1766015835.933606,42
1766015835.933611,39
1766015835.9336162,41
1766015835.933621,41
1766015835.9336262,39
1766015835.93363,40
1766015835.933635,41
1766015835.93364,42
1766015835.933645,40
1766015835.93365,39
1766015835.933654,40
1766015835.9336588,40
1766015835.933664,41
1766015835.933669,37
1766015835.933674,37
1766015835.9336782,41
1766015835.933683,39
1766015835.9336882,40
1766015835.933693,40
1766015835.933698,41
1766015835.933702,40
1766015835.933707,41
1766015835.9337118,41
1766015835.933717,40
1766015835.933722,37
1766015835.933727,38
1766015835.933731,37
1766015835.9337358,41
1766015835.933741,38
1766015835.9337459,39
1766015835.933751,41
1766015835.9337559,41
1766015835.933763,38
1766015835.933768,40
1766015835.933776,37
1766015835.933781,39
1766015835.9337862,39
1766015835.933791,37
1766015835.9337962,38
1766015835.9338,36
1766015835.933805,36
1766015835.93381,36
1766015835.933815,37
1766015835.93382,37
1766015835.933825,39
1766015835.933829,37
1766015835.933834,37
1766015835.933839,35
1766015835.9338439,35
1766015835.933849,36
1766015835.9338539,35
1766015835.9338582,38
1766015835.933863,39
1766015835.933868,38
1766015835.933873,38
1766015835.933878,36
1766015835.933883,37
1766015835.933887,37
1766015835.933892,36
1766015835.933897,37
1766015835.933902,37
1766015835.933907,35
1766015835.933912,35
1766015835.9339159,36
1766015835.933921,35
1766015835.9339259,34
1766015835.933931,37
1766015835.933938,39
1766015835.933943,34
1766015835.93395,37
1766015835.933955,38
1766015835.93396,37
1766015835.933964,35
1766015835.9339688,34
1766015835.933974,32
1766015835.9339788,33
1766015835.933984,36
1766015835.933988,37
1766015835.9339929,37
1766015835.933998,37
1766015835.9340029,34
1766015835.9340081,34
1766015835.934012,35
1766015835.934017,33
1766015835.934022,33
1766015835.934027,33
1766015835.934032,36
1766015835.934036,36
1766015835.934041,36
1766015835.934046,37
1766015835.934051,37
1766015835.934056,36
1766015835.934061,31
1766015835.9340649,34
1766015835.93407,33
1766015835.9340749,35
1766015835.93408,35
1766015835.9340851,34
1766015835.934089,36
1766015835.9340942,34
1766015835.934099,31
1766015835.9341068,33
1766015835.934112,37
1766015835.934119,33
1766015835.934125,34
1766015835.934129,36
1766015835.934134,33
1766015835.9341388,30
1766015835.934144,34
1766015835.934149,34
1766015835.934154,35
1766015835.934159,34
1766015835.9341629,31
1766015835.934168,33
1766015835.9341729,33
1766015835.934178,34
1766015835.934183,33
1766015835.9341881,37
1766015835.9341922,33
1766015835.934197,32
1766015835.9342022,32
1766015835.934207,35
1766015835.934211,34
1766015835.934216,34
1766015835.934221,32
1766015835.934226,36
1766015835.93423,32
1766015835.9342349,31
1766015835.93424,32
1766015835.934245,33
1766015835.9342499,31
1766015835.9342542,30
1766015835.934259,33
1766015835.9342642,30
1766015835.934269,29
1766015835.934274,33
1766015835.9342852,32
1766015835.93429,35
1766015835.934297,33
1766015835.934301,35
1766015835.9343061,32
1766015835.934311,34
1766015835.934316,33
1766015835.934321,33
1766015835.934326,31
1766015835.934331,30
1766015835.934335,29
1766015835.93434,31
1766015835.934345,31
1766015835.93435,31
1766015835.934355,34
1766015835.934359,32
1766015835.9343638,28
1766015835.934369,31
1766015835.9343739,31
1766015835.934378,32
1766015835.9343832,30
1766015835.934388,30
1766015835.9343932,33
1766015835.934398,30
1766015835.9344032,31
1766015835.934407,32
1766015835.934412,33
1766015835.934417,29
1766015835.934422,32
1766015835.9344268,30
1766015835.934431,33
1766015835.934436,31
1766015835.9344409,28
1766015835.934446,32
1766015835.934453,30
1766015835.934458,28
1766015835.934464,31
1766015835.93447,30
1766015835.934475,31
1766015835.93448,31
1766015835.934485,33
1766015835.934489,28
1766015835.934494,35
1766015835.934499,31
1766015835.934504,30
1766015835.934509,31
1766015835.9345138,29
1766015835.934518,35
1766015835.9345229,28
1766015835.934528,31
1766015835.934533,30
1766015835.934537,34
1766015835.9345422,31
1766015835.934547,31
1766015835.934552,29
1766015835.934556,31
1766015835.934561,32
1766015835.9345658,31
1766015835.934571,32
1766015835.934576,31
1766015835.934581,35
1766015835.934585,31
1766015835.9345899,32
1766015835.934595,38
1766015835.9345999,37
1766015835.934604,37
1766015835.934609,35
1766015835.934614,39
1766015835.934619,34
1766015835.934626,34
1766015835.9346309,37
1766015835.9346392,35
1766015835.934644,36
1766015835.934649,33
1766015835.934654,32
1766015835.934658,34
1766015835.9346628,35
1766015835.934668,34
1766015835.9346728,36
1766015835.934677,35
1766015835.9346821,35
1766015835.934687,34
1766015835.9346921,32
1766015835.934697,34
1766015835.9347022,33
1766015835.934707,35
1766015835.9347122,35
1766015835.934717,36
1766015835.934722,34
1766015835.934726,34
1766015835.934731,35
1766015835.9347358,34
1766015835.934741,30
1766015835.934745,34
1766015835.9347498,33
1766015835.934755,35
1766015835.9347599,33
1766015835.934765,33
1766015835.934769,29
1766015835.934774,33
1766015835.934779,33
1766015835.934784,31
1766015835.934788,31
1766015835.934795,30
1766015835.9348,29
1766015835.934806,28
1766015835.9348118,32
1766015835.934817,33
1766015835.9348218,35
1766015835.934826,33
1766015835.9348311,34
1766015835.934836,33
1766015835.9348412,36
1766015835.934846,36
1766015835.93485,39
1766015835.934855,35
1766015835.93486,37
1766015835.934865,34
1766015835.934869,37
1766015835.934874,35
1766015835.934879,37
1766015835.934884,33
1766015835.934889,34
1766015835.9348931,32
1766015835.934898,35
1766015835.9349031,33
1766015835.934908,36
1766015835.934913,37
1766015835.934918,32
1766015835.934922,34
1766015835.934927,36
1766015835.934932,36
1766015835.934937,38
1766015835.934942,36
1766015835.934947,35
1766015835.9349508,35
1766015835.934956,36
1766015835.9349608,35
1766015835.934968,37
1766015835.934973,34
1766015835.934981,36
1766015835.934985,37
1766015835.9349902,36
1766015835.934995,36
1766015835.9350002,34
1766015835.935004,38
1766015835.935009,39
1766015835.9350138,38
1766015835.935019,41
1766015835.935023,38
1766015835.935028,38
1766015835.935033,38
1766015835.9350379,38
1766015835.935043,41
1766015835.935047,38
1766015835.935052,38
1766015835.935057,38
1766015835.935062,39
1766015835.935067,40
1766015835.935072,39
1766015835.935076,37
1766015835.935081,38
1766015835.935086,37
1766015835.935091,38
1766015835.935095,41
1766015835.9350998,37
1766015835.935105,37
1766015835.9351099,39
1766015835.935114,37
1766015835.9351192,37
1766015835.935124,36
1766015835.9351292,37
1766015835.935135,40
1766015835.9351401,36
1766015835.935146,38
1766015835.935152,35
1766015835.935157,35
1766015835.935162,35
1766015835.935167,36
1766015835.9351711,36
1766015835.935176,37
1766015835.9351811,32
1766015835.935186,35
1766015835.9351912,38
1766015835.935196,36
1766015835.9352,39
1766015835.9352052,33
1766015835.93521,39
1766015835.935215,40
1766015835.93522,37
1766015835.935224,36
1766015835.9352288,37
1766015835.935234,34
1766015835.9352388,38
1766015835.935244,37
1766015835.9352489,35
1766015835.935253,35
1766015835.9352582,35
1766015835.935263,35
1766015835.9352682,39
1766015835.935273,38
1766015835.935277,35
1766015835.935282,38
1766015835.935287,36
1766015835.935292,35
1766015835.935297,35
1766015835.9353018,36
1766015835.9353092,36
1766015835.9353302,36
1766015835.935335,38
1766015835.93534,37
1766015835.935345,37
1766015835.93535,33
1766015835.935355,36
1766015835.935359,36
1766015835.935364,35
1766015835.935371,38
1766015835.935376,34
1766015835.935381,36
1766015835.9353862,38
1766015835.935391,38
1766015835.935395,35
1766015835.9354,34
1766015835.935405,36
1766015835.93541,37
1766015835.935414,33
1766015835.9354188,34
1766015835.935424,38
1766015835.935429,36
1766015835.935433,41
1766015835.9354382,35
1766015835.935443,40
1766015835.9354482,37
1766015835.935453,38
1766015835.935457,38
1766015835.935462,37
1766015835.935467,37
1766015835.935472,39
1766015835.935477,38
1766015835.935481,38
1766015835.935488,35
1766015835.9354932,36
1766015835.935499,37
1766015835.9355059,38
1766015835.935511,36
1766015835.9355159,40
1766015835.93552,37
1766015835.9355252,41
1766015835.93553,40
1766015835.9355352,39
1766015835.93554,38
1766015835.9355452,35
1766015835.93555,40
1766015835.935555,40
1766015835.93556,40
1766015835.935564,40
1766015835.9355688,38
1766015835.935574,37
1766015835.9355788,41
1766015835.9355829,38
1766015835.9355881,39
1766015835.935593,39
1766015835.9355981,40
1766015835.935603,40
1766015835.935607,40
1766015835.935612,39
1766015835.935617,41
1766015835.935622,40
1766015835.935627,41
1766015835.935631,40
1766015835.935636,42
1766015835.935641,41
1766015835.935646,43
1766015835.93565,39
1766015835.9356549,39
1766015835.935662,41
1766015835.935667,43
1766015835.935673,37
1766015835.935678,39
1766015835.935683,41
1766015835.935688,39
1766015835.935692,38
1766015835.9356968,42
1766015835.935702,42
1766015835.9357078,40
1766015835.935713,42
1766015835.935717,41
1766015835.9357219,40
1766015835.93573,41
1766015835.935734,42
1766015835.9357388,39
1766015835.935744,39
1766015835.935749,42
1766015835.935754,42
1766015835.935758,40
1766015835.935763,43
1766015835.9357681,45
1766015835.935773,41
1766015835.9357781,45
1766015835.935783,40
1766015835.935787,43
1766015835.9357922,43
1766015835.935797,45
1766015835.9358022,43
1766015835.935806,40
1766015835.935811,42
1766015835.935816,43
1766015835.935843,41
1766015835.935849,45
1766015835.935858,41
1766015835.935863,44
1766015835.9358678,46
1766015835.935873,42
1766015835.9358778,47
1766015835.935883,44
1766015835.9358878,45
1766015835.935893,43
1766015835.935898,42
1766015835.9359019,47
1766015835.9359071,43
1766015835.935912,44
1766015835.9359171,44
1766015835.935922,44
1766015835.9359272,47
1766015835.935932,45
1766015835.935936,45
1766015835.9359412,43
1766015835.935946,46
1766015835.935951,46
1766015835.935956,46
1766015835.93596,48
1766015835.9359648,45
1766015835.93597,46
1766015835.9359748,45
1766015835.93598,45
1766015835.9359848,46
1766015835.93599,44
1766015835.9359949,47
1766015835.936,44
1766015835.9360042,48
1766015835.936009,46
1766015835.9360142,46
1766015835.936019,44
1766015835.9360251,47
1766015835.9360309,47
1766015835.936036,50
1766015835.9360409,44
1766015835.9360461,46
1766015835.93605,48
1766015835.936055,47
1766015835.93606,48
1766015835.936065,50
1766015835.93607,48
1766015835.936074,47
1766015835.936079,46
1766015835.936085,46
1766015835.9360902,46
1766015835.936095,47
1766015835.936099,44
1766015835.9361038,46
1766015835.936109,45
1766015835.9361138,49
1766015835.936119,44
1766015835.936123,48
1766015835.936128,45
1766015835.9361331,46
1766015835.936138,46
1766015835.936142,43
1766015835.936147,44
1766015835.936152,44
1766015835.936157,46
1766015835.936162,46
1766015835.9361658,45
1766015835.936171,48
1766015835.936176,45
1766015835.936181,44
1766015835.9361868,44
1766015835.936192,46
1766015835.936197,45
1766015835.936202,47
1766015835.936207,44
1766015835.9362109,45
1766015835.936216,47
1766015835.936221,41
1766015835.9362261,46
1766015835.936231,46
1766015835.9362361,48
1766015835.936241,46
1766015835.936245,45
1766015835.9362502,48
1766015835.936255,51
1766015835.93626,46
1766015835.936264,48
1766015835.936269,46
1766015835.9362738,48
1766015835.936279,46
1766015835.9362838,43
1766015835.936288,46
1766015835.9362931,45
1766015835.936298,44
1766015835.9363031,47
1766015835.936308,46
1766015835.936312,47
1766015835.936317,47
1766015835.936322,48
1766015835.9363258,45
1766015835.936331,46
1766015835.9363358,46
1766015835.936341,50
1766015835.9363468,45
1766015835.936352,49
1766015835.936357,47
1766015835.936362,48
1766015835.936367,48
1766015835.936372,48
1766015835.936376,48
1766015835.9363809,46
1766015835.936386,50
1766015835.9363909,51
1766015835.936395,53
1766015835.9364,53
1766015835.936405,50
1766015835.936409,53
1766015835.936414,54
1766015835.936419,54
1766015835.936424,55
1766015835.936428,54
1766015835.9364328,53
1766015835.936438,54
1766015835.9364421,55
1766015835.936447,55
1766015835.9364522,53
1766015835.936457,54
1766015835.9364622,57
1766015835.936466,54
1766015835.936471,53
1766015835.936476,57
1766015835.936481,53
1766015835.936486,50
1766015835.93649,52
1766015835.936495,53
1766015835.9365,52
1766015835.936505,53
1766015835.936511,53
1766015835.9365172,52
1766015835.936522,54
1766015835.936526,57
1766015835.9365308,58
1766015835.936536,60
1766015835.93654,59
1766015835.9365451,58
1766015835.93655,63
1766015835.936555,63
1766015835.9365602,67
1766015835.936564,63
1766015835.936569,61
1766015835.936574,65
1766015835.936579,64
1766015835.9365828,63
1766015835.936588,64
1766015835.9365928,62
1766015835.936597,62
1766015835.936602,65
1766015835.936607,63
1766015835.9366121,67
1766015835.936617,65
1766015835.936621,65
1766015835.936626,66
1766015835.936631,67
1766015835.9366348,67
1766015835.93664,67
1766015835.936645,68
1766015835.93665,71
1766015835.936655,66
1766015835.9366589,71
1766015835.936664,70
1766015835.93667,71
1766015835.936676,69
1766015835.936681,69
1766015835.936686,69
1766015835.9366899,72
1766015835.936695,70
1766015835.9366999,72
1766015835.936705,69
1766015835.9367092,72
1766015835.936714,70
1766015835.9367192,71
1766015835.936724,72
1766015835.9367292,74
1766015835.936733,69
1766015835.936738,72
1766015835.936743,73
1766015835.936748,71
1766015835.936752,74
1766015835.936757,72
1766015835.936762,71
1766015835.9367669,74
1766015835.936772,73
1766015835.936776,72
1766015835.9367812,72
1766015835.936786,72
1766015835.936791,71
1766015835.936795,72
1766015835.9368,68
1766015835.936805,75
1766015835.93681,71
1766015835.936814,69
1766015835.9368188,72
1766015835.936824,72
1766015835.9368289,73
1766015835.936835,71
1766015835.9368398,68
1766015835.936848,69
1766015835.936852,70
1766015835.936857,71
1766015835.936874,68
1766015835.9368792,69
1766015835.936884,69
1766015835.936888,69
1766015835.936893,70
1766015835.936898,71
1766015835.936903,67
1766015835.936908,70
1766015835.936913,70
1766015835.936917,71
1766015835.936922,71
1766015835.936927,72
1766015835.936932,71
1766015835.9369369,70
1766015835.9369411,69
1766015835.936946,74
1766015835.936951,71
1766015835.936956,73
1766015835.936961,70
1766015835.936966,70
1766015835.93697,67
1766015835.936975,68
1766015835.93698,66
1766015835.936985,72
1766015835.93699,69
1766015835.936994,71
1766015835.9369988,71
1766015835.937004,68
1766015835.9370089,69
1766015835.937015,72
1766015835.9370198,69
1766015835.937027,70
1766015835.937032,71
1766015835.937037,71
1766015835.9370408,72
1766015835.937046,71
1766015835.9370508,72
1766015835.9370549,70
1766015835.93706,71
1766015835.937065,73
1766015835.9370701,70
1766015835.937074,68
1766015835.937079,69
1766015835.937084,70
1766015835.937089,68
1766015835.937093,71
1766015835.937098,71
1766015835.937103,70
1766015835.937108,66
1766015835.937112,70
1766015835.9371169,69
1766015835.937122,67
1766015835.937126,71
1766015835.937131,69
1766015835.9371362,69
1766015835.93714,68
1766015835.937145,70
1766015835.93715,67
1766015835.9371562,65
1766015835.93716,69
1766015835.937165,65
1766015835.93717,68
1766015835.937175,66
1766015835.937181,68
1766015835.937186,66
1766015835.937192,68
1766015835.9371982,69
1766015835.937203,69
1766015835.9372082,67
1766015835.937212,66
1766015835.937217,66
1766015835.937222,69
1766015835.937227,63
1766015835.9372318,65
1766015835.937237,67
1766015835.937242,64
1766015835.937247,65
1766015835.937251,66
1766015835.9372559,64
1766015835.937261,64
1766015835.9372659,67
1766015835.937271,63
1766015835.937275,67
1766015835.93728,66
1766015835.9372852,64
1766015835.93729,64
1766015835.9372952,66
1766015835.937299,66
1766015835.937304,64
1766015835.937309,66
1766015835.937314,63
1766015835.9373178,64
1766015835.937323,64
1766015835.937328,61
1766015835.937333,60
1766015835.9373372,62
1766015835.937342,60
1766015835.9373472,60
1766015835.937353,63
1766015835.937359,64
1766015835.9373639,63
1766015835.937369,65
1766015835.937373,63
1766015835.937378,65
1766015835.937383,63
1766015835.937388,63
1766015835.9373922,63
1766015835.937397,65
1766015835.937402,65
1766015835.937407,61
1766015835.937411,62
1766015835.9374158,61
1766015835.937421,65
1766015835.937425,62
1766015835.93743,62
1766015835.937435,61
1766015835.93744,60
1766015835.9374442,62
1766015835.937449,62
1766015835.937454,58
1766015835.937459,59
1766015835.937463,60
1766015835.9374678,63
1766015835.937473,60
1766015835.937477,58
1766015835.9374819,60
1766015835.9374871,60
1766015835.937492,61
1766015835.937496,60
1766015835.937501,58
1766015835.937506,61
1766015835.937512,58
1766015835.9375172,57
1766015835.937522,62
1766015835.937527,59
1766015835.937532,59
1766015835.937536,60
1766015835.937541,60
1766015835.937546,57
1766015835.93755,56
1766015835.9375548,60
1766015835.93756,59
1766015835.9375648,58
1766015835.9375691,57
1766015835.937574,59
1766015835.937579,60
1766015835.9375842,58
1766015835.937588,58
1766015835.937593,57
1766015835.937598,59
1766015835.937602,59
1766015835.9376068,60
1766015835.937612,56
1766015835.9376159,56
1766015835.9376209,57
1766015835.9376261,58
1766015835.937631,55
1766015835.9376352,56
1766015835.93764,57
1766015835.937645,57
1766015835.93765,57
1766015835.937654,59
1766015835.9376588,55
1766015835.937664,60
1766015835.937669,59
1766015835.937675,55
1766015835.937681,58
1766015835.937685,59
1766015835.93769,58
1766015835.937695,56
1766015835.9377,59
1766015835.9377038,56
1766015835.937709,55
1766015835.9377139,57
1766015835.937719,56
1766015835.937723,56
1766015835.937728,57
1766015835.9377332,56
1766015835.937738,53
1766015835.9377432,56
1766015835.937747,53
1766015835.937752,56
1766015835.937757,58
1766015835.937762,56
1766015835.9377658,55
1766015835.937771,53
1766015835.937776,56
1766015835.937781,55
1766015835.9377851,56
1766015835.93779,52
1766015835.9377952,52
1766015835.937799,54
1766015835.937804,54
1766015835.937809,53
1766015835.937813,53
1766015835.937818,54
1766015835.937823,54
1766015835.937828,56
1766015835.937834,50
1766015835.9378402,52
1766015835.937844,52
1766015835.937849,49
1766015835.937854,52
1766015835.937858,50
1766015835.9378629,52
1766015835.937868,49
1766015835.937873,51
1766015835.937877,51
1766015835.9378822,52
1766015835.937887,51
1766015835.9378922,50
1766015835.937896,49
1766015835.937901,52
1766015835.937906,49
1766015835.937911,52
1766015835.9379148,51
1766015835.93792,49
1766015835.937925,48
1766015835.9379299,51
1766015835.9379342,50
1766015835.937939,49
1766015835.9379442,48
1766015835.937949,47
1766015835.937954,50
1766015835.937958,46
1766015835.937963,46
1766015835.937968,50
1766015835.937972,50
1766015835.937977,50
1766015835.9379818,47
1766015835.937987,50
1766015835.937993,49
1766015835.937998,51
1766015835.938003,49
1766015835.938008,48
1766015835.938012,51
1766015835.9380171,51
1766015835.938022,47
1766015835.938027,50
1766015835.9380312,49
1766015835.938036,46
1766015835.938041,48
1766015835.938046,46
1766015835.938051,48
1766015835.9380548,47
1766015835.93806,46
1766015835.9380648,46
1766015835.93807,46
1766015835.9380748,48
1766015835.9380789,48
1766015835.9380841,46
1766015835.938089,45
1766015835.9380941,46
1766015835.938099,47
1766015835.938103,46
1766015835.938108,47
1766015835.938113,46
1766015835.938118,46
1766015835.938122,43
1766015835.938127,46
1766015835.938132,46
1766015835.938137,43
1766015835.9381409,48
1766015835.938146,49
1766015835.938151,46
1766015835.938157,46
1766015835.9381618,46
1766015835.9381702,46
1766015835.938175,42
1766015835.938179,45
1766015835.938184,45
1766015835.938189,45
1766015835.938194,44
1766015835.938199,44
1766015835.9382029,44
1766015835.938208,47
1766015835.938213,43
1766015835.9382179,42
1766015835.9382231,44
1766015835.938227,44
1766015835.938232,43
1766015835.938237,44
1766015835.938241,44
1766015835.9382458,45
1766015835.938251,44
1766015835.9382558,44
1766015835.938261,43
1766015835.938265,46
1766015835.9382699,46
1766015835.938275,44
1766015835.938279,44
1766015835.938284,45
1766015835.938289,43
1766015835.938293,44
1766015835.9382982,44
1766015835.938303,43
1766015835.938308,45
1766015835.938312,44
1766015835.938317,41
1766015835.938325,43
1766015835.9383428,45
1766015835.938347,45
1766015835.938352,42
1766015835.9383569,41
1766015835.9383621,41
1766015835.938366,41
1766015835.9383712,41
1766015835.938376,43
1766015835.938381,42
1766015835.938385,38
1766015835.93839,41
1766015835.9383948,41
1766015835.9384,44
1766015835.938404,41
1766015835.9384089,39
1766015835.938414,40
1766015835.9384189,38
1766015835.938424,42
1766015835.938428,41
1766015835.938433,40
1766015835.938438,42
1766015835.938443,38
1766015835.938447,41
1766015835.938452,42
1766015835.938457,37
1766015835.938463,41
1766015835.938468,40
1766015835.938473,39
1766015835.938478,40
1766015835.938483,38
1766015835.938487,38
1766015835.9384918,40
1766015835.938499,37
1766015835.938504,40
1766015835.9385102,38
1766015835.938515,37
1766015835.93852,37
1766015835.938525,36
1766015835.938529,37
1766015835.9385338,39
1766015835.938539,41
1766015835.938544,38
1766015835.938549,38
1766015835.938553,39
1766015835.9385579,40
1766015835.938563,38
1766015835.9385679,39
1766015835.938572,39
1766015835.938577,38
1766015835.938582,39
1766015835.938586,36
1766015835.938591,35
1766015835.938596,39
1766015835.938601,35
1766015835.938605,36
1766015835.9386098,34
1766015835.938615,38
1766015835.9386199,35
1766015835.938624,37
1766015835.9386292,39
1766015835.938634,36
1766015835.9386392,37
1766015835.938643,34
1766015835.938648,36
1766015835.938653,36
1766015835.938658,38
1766015835.9386618,36
1766015835.938669,35
1766015835.938674,36
1766015835.9386811,36
1766015835.938685,36
1766015835.93869,37
1766015835.938695,34
1766015835.9387,37
1766015835.9387038,35
1766015835.938709,37
1766015835.938714,35
1766015835.938719,35
1766015835.938723,37
1766015835.9387279,36
1766015835.938733,35
1766015835.9387379,36
1766015835.938742,36
1766015835.938747,33
1766015835.938752,34
1766015835.9387572,37
1766015835.938761,35
1766015835.938766,34
1766015835.938771,33
1766015835.938776,34
1766015835.9387798,31
1766015835.938785,31
1766015835.9387898,31
1766015835.938794,35
1766015835.9387991,31
1766015835.938804,31
1766015835.9388092,31
1766015835.938813,31
1766015835.938818,33
1766015835.938823,32
1766015835.938828,31
1766015835.938835,32
1766015835.938839,31
1766015835.9388459,30
1766015835.938851,31
1766015835.938856,33
1766015835.9388611,31
1766015835.938865,31
1766015835.93887,31
1766015835.938875,32
1766015835.938879,32
1766015835.938884,32
1766015835.938889,34
1766015835.938894,33
1766015835.9388978,30
1766015835.938903,32
1766015835.9389079,30
1766015835.938913,32
1766015835.9389172,30
1766015835.938922,29
1766015835.9389272,35
1766015835.938931,31
1766015835.938936,30
1766015835.938941,32
1766015835.938946,32
1766015835.9389498,32
1766015835.938955,31
1766015835.9389598,30
1766015835.938964,29
1766015835.9389691,31
1766015835.938974,29
1766015835.9389791,32
1766015835.938983,32
1766015835.938988,31
1766015835.938993,33
1766015835.938998,27
1766015835.939004,30
1766015835.939009,29
1766015835.9390159,31
1766015835.939021,30
1766015835.9390259,32
1766015835.93903,29
1766015835.939035,29
1766015835.93904,33
1766015835.9390452,30
1766015835.93905,31
1766015835.939054,29
1766015835.939059,29
1766015835.939064,29
1766015835.9390678,30
1766015835.939073,30
1766015835.9390779,30
1766015835.939083,31
1766015835.9390872,29
1766015835.939092,28
1766015835.9390972,29
1766015835.939101,29
1766015835.939106,28
1766015835.939111,27
1766015835.939116,28
1766015835.93912,26
1766015835.939125,27
1766015835.93913,29
1766015835.939134,27
1766015835.9391391,28
1766015835.939144,29
1766015835.9391491,29
1766015835.939153,30
1766015835.939158,30
1766015835.939163,27
1766015835.939169,29
1766015835.939174,29
1766015835.939181,26
1766015835.9391859,28
1766015835.939191,29
1766015835.9391959,28
1766015835.9392,30
1766015835.9392052,28
1766015835.93921,26
1766015835.939214,28
1766015835.939219,26
1766015835.939224,28
1766015835.939229,29
1766015835.939233,27
1766015835.9392378,29
1766015835.939243,27
1766015835.939248,29
1766015835.939252,25
1766015835.9392571,27
1766015835.939262,29
1766015835.939266,28
1766015835.939271,27
1766015835.939276,24
1766015835.939281,24
1766015835.939285,26
1766015835.93929,28
1766015835.939295,29
1766015835.939299,26
1766015835.9393039,25
1766015835.9393091,27
1766015835.939314,30
1766015835.9393191,29
1766015835.939323,28
1766015835.939328,27
1766015835.9393332,27
1766015835.939339,26
1766015835.939344,27
1766015835.939351,23
1766015835.9393559,25
1766015835.93936,25
1766015835.9393651,27
1766015835.93937,24
1766015835.9393752,27
1766015835.939379,27
1766015835.939384,28
1766015835.939389,28
1766015835.939393,27
1766015835.9393978,25
1766015835.939403,26
1766015835.939407,26
1766015835.9394119,26
1766015835.9394171,26
1766015835.939422,26
1766015835.939426,27
1766015835.939431,29
1766015835.939436,25
1766015835.939441,27
1766015835.939445,26
1766015835.93945,23
1766015835.939455,27
1766015835.939459,30
1766015835.9394639,27
1766015835.939469,26
1766015835.9394739,24
1766015835.939478,27
1766015835.939483,23
1766015835.939488,26
1766015835.939492,25
1766015835.939497,24
1766015835.9395041,23
1766015835.939509,24
1766015835.9395149,26
1766015835.93952,23
1766015835.9395251,22
1766015835.939529,22
1766015835.9395342,26
1766015835.939539,24
1766015835.939543,27
1766015835.939548,26
1766015835.939553,26
1766015835.9395578,27
1766015835.939563,24
1766015835.939567,26
1766015835.9395719,24
1766015835.939577,23
1766015835.939581,25
1766015835.9395862,24
1766015835.939591,28
1766015835.939596,23
1766015835.9396,23
1766015835.939605,27
1766015835.9396129,24
1766015835.939618,25
1766015835.939622,23
1766015835.939627,25
1766015835.9396322,27
1766015835.939636,25
1766015835.939641,21
1766015835.939646,21
1766015835.939651,23
1766015835.939656,23
1766015835.93966,21
1766015835.9396648,23
1766015835.939672,23
1766015835.939677,26
1766015835.939682,24
1766015835.939689,24
1766015835.9396951,27
1766015835.9397,26
1766015835.9397051,26
1766015835.93971,24
1766015835.939714,24
1766015835.939719,25
1766015835.939724,25
1766015835.939729,25
1766015835.939734,23
1766015835.939739,22
1766015835.939744,24
1766015835.939749,23
1766015835.939754,24
1766015835.939759,21
1766015835.9397628,23
1766015835.939768,24
1766015835.9397728,22
1766015835.939778,24
1766015835.939782,25
1766015835.939787,23
1766015835.939792,23
1766015835.939797,24
1766015835.939801,26
1766015835.939806,25
1766015835.939811,25
1766015835.939816,25
1766015835.93982,21
1766015835.9398248,24
1766015835.93983,24
1766015835.9398348,26
1766015835.939839,23
1766015835.9398458,24
1766015835.939851,21
1766015835.939859,22
1766015835.939863,23
1766015835.939868,22
1766015835.939873,22
1766015835.939878,24
1766015835.939882,23
1766015835.939887,24
1766015835.939892,25
1766015835.939897,20
1766015835.9399009,20
1766015835.9399061,19
1766015835.939911,23
1766015835.9399161,22
1766015835.939921,22
1766015835.939925,20
1766015835.9399302,18
1766015835.939935,23
1766015835.9399402,24
1766015835.939944,21
1766015835.939949,21
1766015835.9399538,22
1766015835.939959,23
1766015835.9399629,22
1766015835.939968,23
1766015835.939973,23
1766015835.939978,22
1766015835.9399822,25
1766015835.939987,24
1766015835.939992,20
1766015835.939996,24
1766015835.940001,23
1766015835.9400058,25
1766015835.9400132,23
1766015835.940018,25
1766015835.9400241,20
1766015835.940029,23
1766015835.9400342,23
1766015835.940039,24
1766015835.940043,24
1766015835.940048,23
1766015835.940053,22
1766015835.940058,24
1766015835.940063,21
1766015835.940067,22
1766015835.9400718,24
1766015835.940077,21
1766015835.9400818,22
1766015835.9400861,25
1766015835.940091,24
1766015835.940096,21
1766015835.9401011,24
1766015835.940105,22
1766015835.94011,24
1766015835.940115,20
1766015835.94012,24
1766015835.9401238,24
1766015835.940129,18
1766015835.9401789,22
1766015835.940184,23
1766015835.940189,23
1766015835.9401941,22
1766015835.940199,22
1766015835.940203,24
1766015835.9402082,27
1766015835.940213,22
1766015835.9402182,22
1766015835.940224,25
1766015835.9402292,26
1766015835.940235,21
1766015835.9402418,22
1766015835.940246,23
1766015835.9402509,23
1766015835.940256,22
1766015835.9402611,21
1766015835.940265,23
1766015835.9402702,21
1766015835.940275,22
1766015835.94028,24
1766015835.940284,23
1766015835.940289,24
1766015835.9402938,22
1766015835.940299,24
1766015835.9403038,23
1766015835.940309,23
1766015835.940313,25
1766015835.9403179,24
1766015835.940323,24
1766015835.940328,27
1766015835.9403331,25
1766015835.940338,23
1766015835.9403431,27
1766015835.940348,22
1766015835.940352,26
1766015835.9403572,23
1766015835.940362,23
1766015835.9403672,23
1766015835.940371,25
1766015835.940376,28
1766015835.9403808,28
1766015835.940386,24
1766015835.9403899,26
1766015835.940397,27
1766015835.940402,23
1766015835.940408,25
1766015835.940413,25
1766015835.940418,21
1766015835.940423,26
1766015835.940427,26
1766015835.9404318,26
1766015835.940437,23
1766015835.9404411,29
1766015835.940446,23
1766015835.9404511,25
1766015835.940456,23
1766015835.94046,24
1766015835.940465,29
1766015835.94047,24
1766015835.940475,26
1766015835.940479,26
1766015835.940484,25
1766015835.940489,21
1766015835.940493,24
1766015835.9404979,29
1766015835.9405031,24
1766015835.940508,24
1766015835.940512,24
1766015835.9405172,26
1766015835.940522,23
1766015835.940526,26
1766015835.940531,27
1766015835.940536,25
1766015835.940541,25
1766015835.940546,27
1766015835.9405499,26
1766015835.940555,24
1766015835.940562,23
1766015835.940566,24
1766015835.9405718,25
1766015835.940578,26
1766015835.9405818,23
1766015835.940587,25
1766015835.940592,27
1766015835.940597,27
1766015835.940601,24
1766015835.9406059,26
1766015835.9406111,26
1766015835.940616,27
1766015835.94062,27
1766015835.940625,25
1766015835.94063,29
1766015835.940634,28
1766015835.940639,28
1766015835.940644,26
1766015835.940649,26
1766015835.940653,24
1766015835.9406579,26
1766015835.940663,25
1766015835.9406679,27
1766015835.940672,28
1766015835.9406772,22
1766015835.940682,27
1766015835.940686,26
1766015835.940691,27
1766015835.940696,26
1766015835.9406998,26
1766015835.940705,27
1766015835.9407098,27
1766015835.940715,24
1766015835.94072,26
1766015835.940724,25
1766015835.9407308,26
1766015835.940736,27
1766015835.940743,24
1766015835.940748,27
1766015835.9407518,26
1766015835.940757,29
1766015835.940762,25
1766015835.940767,28
1766015835.940771,31
1766015835.9407759,29
1766015835.940781,28
1766015835.940786,26
1766015835.94079,26
1766015835.940795,25
1766015835.9408,29
1766015835.9408052,25
1766015835.940809,27
1766015835.940814,28
1766015835.9409258,27
1766015835.940952,26
1766015835.940958,28
1766015835.940963,28
1766015835.940968,28
1766015835.940972,26
1766015835.9409769,26
1766015835.940982,26
1766015835.9409869,28
1766015835.940992,28
1766015835.9409971,23
1766015835.941001,28
1766015835.9410062,24
1766015835.941011,28
1766015835.941016,27
1766015835.941021,24
1766015835.9410272,28
1766015835.941032,26
1766015835.9410381,28
1766015835.941042,29
1766015835.941047,31
1766015835.941052,29
1766015835.941057,29
1766015835.941062,28
1766015835.941067,28
1766015835.941071,26
1766015835.941076,29
1766015835.941081,29
1766015835.941086,26
1766015835.941091,26
1766015835.9410949,26
1766015835.9411001,29
1766015835.941105,28
1766015835.9411101,26
1766015835.941115,29
1766015835.94112,28
1766015835.9411242,25
1766015835.941129,27
1766015835.941134,26
1766015835.941139,29
1766015835.941144,30
1766015835.941149,28
1766015835.941154,29
1766015835.941159,28
1766015835.941163,26
1766015835.941168,26
1766015835.941173,29
1766015835.941178,26
1766015835.941183,27
1766015835.9411871,23
1766015835.941194,25
1766015835.9411998,25
1766015835.941205,27
1766015835.94121,27
1766015835.941215,28
1766015835.941219,24
1766015835.9412239,28
1766015835.941229,26
1766015835.9412339,27
1766015835.941239,28
1766015835.941243,27
1766015835.941248,27
1766015835.9412532,27
1766015835.941258,27
1766015835.941262,26
1766015835.941267,27
1766015835.941272,26
1766015835.941277,27
1766015835.941282,26
1766015835.9412858,25
1766015835.941293,27
1766015835.941298,24
1766015835.941302,29
1766015835.9413068,26
1766015835.941312,27
1766015835.941317,26
1766015835.941322,25
1766015835.9413261,23
1766015835.941331,25
1766015835.9413362,28
1766015835.941341,22
1766015835.941346,24
1766015835.941351,23
1766015835.9413571,24
1766015835.9413629,26
1766015835.941368,26
1766015835.941372,28
1766015835.941378,23
1766015835.941382,29
1766015835.941387,25
1766015835.941392,26
1766015835.941397,28
1766015835.9414022,27
1766015835.941406,26
1766015835.941411,27
1766015835.941416,25
1766015835.941421,25
1766015835.941426,25
1766015835.941431,26
1766015835.9414349,24
1766015835.94144,23
1766015835.941445,21
1766015835.9414499,26
1766015835.9414551,23
1766015835.941459,23
1766015835.941464,24
1766015835.941469,26
1766015835.941474,23
1766015835.941479,26
1766015835.941483,25
1766015835.941488,25
1766015835.941493,24
1766015835.941498,25
1766015835.9415119,21
1766015835.941518,23
1766015835.9415228,23
1766015835.941531,23
1766015835.941538,23
1766015835.941542,24
1766015835.941547,23
1766015835.9415522,25
1766015835.941557,24
1766015835.9415622,22
1766015835.941566,22
1766015835.941571,22
1766015835.941576,25
1766015835.941581,23
1766015835.941586,23
1766015835.941591,21
1766015835.9415948,24
1766015835.9416,22
1766015835.941605,24
1766015835.94161,24
1766015835.941615,22
1766015835.941619,25
1766015835.9416242,22
1766015835.941629,23
1766015835.941634,24
1766015835.941639,23
1766015835.941643,24
1766015835.9416478,21
1766015835.941653,23
1766015835.941658,20
1766015835.941663,22
1766015835.941668,23
1766015835.9416718,22
1766015835.941677,23
1766015835.9416819,25
1766015835.941687,23
1766015835.941694,22
1766015835.941699,22
1766015835.941704,21
1766015835.941709,21
1766015835.9417138,17
1766015835.941719,22
1766015835.9417229,21
1766015835.941728,24
1766015835.9417331,23
1766015835.941738,21
1766015835.9417431,26
1766015835.941747,22
1766015835.9417531,23
1766015835.941768,21
1766015835.941773,23
1766015835.941777,21
1766015835.941782,23
1766015835.9417868,22
1766015835.941792,20
1766015835.941797,21
1766015835.941801,24
1766015835.941806,22
1766015835.9418108,24
1766015835.941816,21
1766015835.9418209,24
1766015835.941825,22
1766015835.94183,23
1766015835.941835,24
1766015835.94184,24
1766015835.941844,24
1766015835.941849,22
1766015835.941854,24
1766015835.941859,22
1766015835.941865,21
1766015835.9418712,22
1766015835.941876,21
1766015835.94188,19
1766015835.941885,25
1766015835.94189,23
1766015835.941895,22
1766015835.9419,20
1766015835.9419038,22
1766015835.941909,22
1766015835.941914,21
1766015835.941919,20
1766015835.9419231,21
1766015835.941928,25
1766015835.9419332,23
1766015835.941938,22
1766015835.941943,20
1766015835.941947,22
1766015835.941952,20
1766015835.9419572,24
1766015835.941962,22
1766015835.941966,22
1766015835.9419708,21
1766015835.941976,21
1766015835.9419808,19
1766015835.941986,23
1766015835.94199,20
1766015835.941995,23
1766015835.9420002,22
1766015835.942005,22
1766015835.9420102,20
1766015835.942015,23
1766015835.942019,20
1766015835.942026,21
1766015835.94206,23
1766015835.942066,22
1766015835.942071,20
1766015835.942076,19
1766015835.942081,22
1766015835.942085,21
1766015835.94209,23
1766015835.942095,22
1766015835.9421,19
1766015835.942105,22
1766015835.94211,23
1766015835.942115,22
1766015835.9421198,20
1766015835.942125,21
1766015835.9421299,24
1766015835.942135,24
1766015835.942139,20
1766015835.942144,22
1766015835.9421492,23
1766015835.942154,23
1766015835.9421592,19
1766015835.942164,20
1766015835.942168,22
1766015835.942173,21
1766015835.942178,20
1766015835.942183,21
1766015835.942188,25
1766015835.9421928,19
1766015835.942198,23
1766015835.942202,20
1766015835.9422069,19
1766015835.942212,22
1766015835.942219,20
1766015835.942225,20
1766015835.94223,22
1766015835.942235,19
1766015835.942239,19
1766015835.942244,21
1766015835.942249,21
1766015835.942254,20
1766015835.9422588,20
1766015835.942264,19
1766015835.9422688,22
1766015835.942274,20
1766015835.942278,17
1766015835.942283,21
1766015835.942288,21
1766015835.942293,22
1766015835.942297,18
1766015835.942302,19
1766015835.942307,19
1766015835.942312,19
1766015835.942317,19
1766015835.942322,21
1766015835.942327,21
1766015835.9423308,18
1766015835.942336,19
1766015835.942341,20
1766015835.942346,20
1766015835.942351,22
1766015835.9423559,21
1766015835.942361,20
1766015835.942365,20
1766015835.94237,21
1766015835.942375,22
1766015835.942382,19
1766015835.9423869,23
1766015835.942394,22
1766015835.942399,18
1766015835.942403,20
1766015835.9424078,20
1766015835.942413,21
1766015835.9424179,19
1766015835.942423,22
1766015835.9424279,23
1766015835.942432,21
1766015835.9424372,23
1766015835.942442,20
1766015835.9424472,19
1766015835.942452,20
1766015835.9424572,19
1766015835.942462,21
1766015835.942467,23
1766015835.942471,21
1766015835.942476,22
1766015835.9424808,20
1766015835.942486,21
1766015835.9424908,21
1766015835.9424949,18
1766015835.9425,20
1766015835.942505,20
1766015835.9425101,20
1766015835.942515,21
1766015835.9425201,20
1766015835.942524,20
1766015835.942529,21
1766015835.942534,23
1766015835.942539,20
1766015835.942544,21
1766015835.94255,20
1766015835.942556,20
1766015835.942561,20
1766015835.9425652,20
1766015835.94257,20
1766015835.9425752,19
1766015835.94258,18
1766015835.942585,20
1766015835.94259,23
1766015835.942594,21
1766015835.9425988,19
1766015835.942604,22
1766015835.9426088,20
1766015835.942614,18
1766015835.9426188,18
1766015835.942623,19
1766015835.9426281,22
1766015835.942633,19
1766015835.9426382,19
1766015835.942643,19
1766015835.942647,21
1766015835.942652,18
1766015835.942657,21
1766015835.942662,19
1766015835.942667,18
1766015835.9426718,21
1766015835.942676,21
1766015835.942681,23
1766015835.9426858,20
1766015835.942691,20
1766015835.9426959,21
1766015835.942701,18
1766015835.942705,21
1766015835.942712,19
1766015835.9427168,20
1766015835.942723,21
1766015835.942728,22
1766015835.942733,21
1766015835.9427378,19
1766015835.942742,20
1766015835.9427469,18
1766015835.942752,21
1766015835.9427571,22
1766015835.942764,20
1766015835.9427688,24
1766015835.942774,24
1766015835.9427788,25
1766015835.9427829,24
1766015835.9427881,19
1766015835.942793,20
1766015835.9427981,19
1766015835.942802,20
1766015835.942807,20
1766015835.942812,21
1766015835.942817,20
1766015835.942822,18
1766015835.942827,20
1766015835.942831,22
1766015835.942836,21
1766015835.942841,22
1766015835.942846,22
1766015835.942851,21
1766015835.9428558,21
1766015835.942861,19
1766015835.942865,21
1766015835.94287,21
1766015835.942875,24
1766015835.942881,21
1766015835.9428868,22
1766015835.942892,21
1766015835.9428968,21
1766015835.942901,19
1766015835.9429061,19
1766015835.942911,21
1766015835.9429162,22
1766015835.942921,20
1766015835.9429262,20
1766015835.94293,18
1766015835.942935,23
1766015835.94294,23
1766015835.942945,21
1766015835.9429498,22
1766015835.942955,21
1766015835.942959,21
1766015835.942964,24
1766015835.942969,18
1766015835.9429739,22
1766015835.942979,22
1766015835.942983,20
1766015835.942988,22
1766015835.942993,19
1766015835.942998,20
1766015835.9430022,21
1766015835.943007,19
1766015835.943012,24
1766015835.943018,22
1766015835.943022,21
1766015835.943027,21
1766015835.943032,23
1766015835.943037,21
1766015835.943043,21
1766015835.943048,22
1766015835.943054,23
1766015835.943059,22
1766015835.943064,20
1766015835.9430678,21
1766015835.943073,21
1766015835.9430778,23
1766015835.943083,26
1766015835.943088,24
1766015835.943093,23
1766015835.943097,22
1766015835.943102,21
1766015835.9431071,18
1766015835.943112,22
1766015835.9431171,23
1766015835.943122,23
1766015835.9431272,24
1766015835.943131,23
1766015835.943136,23
1766015835.9431412,26
1766015835.943146,23
1766015835.943151,23
1766015835.943156,22
1766015835.94316,23
1766015835.9431648,24
1766015835.94317,22
1766015835.9431748,24
1766015835.943179,24
1766015835.943184,23
1766015835.943189,25
1766015835.9431942,24
1766015835.943199,24
1766015835.943203,22
1766015835.943209,25
1766015835.9432151,24
1766015835.94322,26
1766015835.9432251,26
1766015835.943229,25
1766015835.943234,27
1766015835.943239,25
1766015835.943244,25
1766015835.943249,22
1766015835.943253,23
1766015835.943258,25
1766015835.943263,23
1766015835.943268,27
1766015835.943273,23
1766015835.9432771,23
1766015835.943282,24
1766015835.9432871,26
1766015835.943292,25
1766015835.943297,27
1766015835.9433012,28
1766015835.943306,25
1766015835.9433112,26
1766015835.943316,24
1766015835.943321,25
1766015835.943325,26
1766015835.94333,25
1766015835.9433348,24
1766015835.94334,25
1766015835.9433448,23
1766015835.94335,23
1766015835.9433541,26
1766015835.943359,27
1766015835.9433641,25
1766015835.9433699,24
1766015835.943375,27
1766015835.943381,27
1766015835.943386,26
1766015835.943396,23
1766015835.9434009,26
1766015835.9434052,23
1766015835.94341,27
1766015835.943415,26
1766015835.94342,25
1766015835.943425,25
1766015835.94343,25
1766015835.943435,28
1766015835.943439,26
1766015835.943444,25
1766015835.943449,27
1766015835.943454,27
1766015835.943459,27
1766015835.9434628,26
1766015835.943468,25
1766015835.9434729,25
1766015835.943478,25
1766015835.9434829,27
1766015835.943488,27
1766015835.9434922,27
1766015835.943497,27
1766015835.9435022,25
1766015835.943507,28
1766015835.943512,26
1766015835.943517,28
1766015835.943521,28
1766015835.9435258,25
1766015835.943531,24
1766015835.943536,27
1766015835.943542,29
1766015835.943548,26
1766015835.943553,27
1766015835.943558,25
1766015835.943563,26
1766015835.9435678,27
1766015835.943572,28
1766015835.943577,27
1766015835.943582,27
1766015835.943587,25
1766015835.9435909,26
1766015835.9435961,27
1766015835.943601,27
1766015835.943606,27
1766015835.943611,24
1766015835.943616,30
1766015835.9436212,29
1766015835.943625,30
1766015835.94363,29
1766015835.943635,30
1766015835.94364,30
1766015835.943645,28
1766015835.94365,30
1766015835.943655,27
1766015835.94366,27
1766015835.94375,28
1766015835.943764,26
1766015835.943775,32
1766015835.943785,30
1766015835.943817,27
1766015835.943836,30
1766015835.943847,29
1766015835.943857,28
1766015835.943872,28
1766015835.943887,28
1766015835.943897,29
1766015835.9439082,29
1766015835.943934,31
1766015835.9439418,30
1766015835.943947,29
1766015835.943984,33
1766015835.9439979,27
1766015835.9440398,27
1766015835.944052,31
1766015835.944062,30
1766015835.944073,33
1766015835.9441128,34
1766015835.944126,31
1766015835.9441369,35
1766015835.9441469,31
1766015835.9441578,29
1766015835.9441679,31
1766015835.9441779,30
1766015835.9441879,31
1766015835.9441988,31
1766015835.9442089,34
1766015835.9442189,31
1766015835.9442291,34
1766015835.9442391,32
1766015835.94425,32
1766015835.9442601,33
1766015835.9442701,31
1766015835.9442801,31
1766015835.9442902,33
1766015835.9443011,33
1766015835.9443111,33
1766015835.944326,31
1766015835.9443562,33
1766015835.9443672,32
1766015835.9443772,32
1766015835.944387,32
1766015835.9443982,29
1766015835.9444082,28
1766015835.944418,32
1766015835.944428,30
1766015835.944438,32
1766015835.944448,32
1766015835.944458,32
1766015835.944468,36
1766015835.944478,34
1766015835.944488,35
1766015835.9444978,33
1766015835.9445078,33
1766015835.9445188,35
1766015835.9445288,32
1766015835.9445388,33
1766015835.944549,33
1766015835.944559,34
1766015835.944569,36
1766015835.9445791,33
1766015835.94459,36
1766015835.9446,34
1766015835.94461,32
1766015835.9446201,36
1766015835.94463,32
1766015835.94464,34
1766015835.9446511,32
1766015835.944661,35
1766015835.944671,38
1766015835.944684,36
1766015835.944695,34
1766015835.944705,35
1766015835.944715,34
1766015835.944725,34
1766015835.944761,35
1766015835.944774,32
1766015835.9447849,37
1766015835.944795,36
1766015835.9448051,32
1766015835.944816,34
1766015835.944839,37
1766015835.944863,32
1766015835.944874,35
1766015835.944884,37
1766015835.944895,36
1766015835.944905,36
1766015835.944915,34
1766015835.9449248,35
1766015835.9449348,33
1766015835.9449458,35
1766015835.9449558,35
1766015835.9449668,31
1766015835.944978,34
1766015835.944988,33
1766015835.944999,33
1766015835.945056,35
1766015835.945067,34
1766015835.9450781,36
1766015835.945088,32
1766015835.945098,35
1766015835.945109,32
1766015835.945121,33
1766015835.9451342,33
1766015835.9451451,34
1766015835.9451551,35
1766015835.9451652,33
1766015835.945175,32
1766015835.9451861,34
1766015835.945197,30
1766015835.945208,31
1766015835.945219,34
1766015835.94523,30
1766015835.9452648,31
1766015835.945276,30
1766015835.9452858,33
1766015835.9452958,35
1766015835.945308,37
1766015835.94532,31
1766015835.945332,32
1766015835.945343,34
1766015835.945353,34
1766015835.945363,34
1766015835.9453728,32
1766015835.9453828,30
1766015835.9453928,33
1766015835.9454029,33
1766015835.945413,33
1766015835.9454231,32
1766015835.9454331,33
1766015835.9454432,33
1766015835.945452,36
1766015835.945462,33
1766015835.945472,35
1766015835.945481,36
1766015835.945494,34
1766015835.945506,38
1766015835.9455202,36
1766015835.9455302,34
1766015835.9455402,36
1766015835.945549,34
1766015835.945559,35
1766015835.945569,35
1766015835.945581,36
1766015835.945591,36
1766015835.945601,34
1766015835.945611,36
1766015835.945622,34
1766015835.945633,36
1766015835.945646,32
1766015835.945657,36
1766015835.945667,34
1766015835.945677,33
1766015835.945686,32
1766015835.945696,35
1766015835.945706,32
1766015835.945715,35
1766015835.945725,33
1766015835.945735,37
1766015835.9457438,38
1766015835.945754,34
1766015835.945764,36
1766015835.9457731,36
1766015835.9457831,34
1766015835.945793,35
1766015835.945802,36
1766015835.945812,34
1766015835.945821,39
1766015835.945834,35
1766015835.945846,36
1766015835.945857,36
1766015835.9458659,33
1766015835.945876,31
1766015835.945886,34
1766015835.945895,34
1766015835.945905,34
1766015835.945915,35
1766015835.945924,34
1766015835.945934,37
1766015835.945944,35
1766015835.9459531,33
1766015835.945963,35
1766015835.945973,36
1766015835.945982,35
1766015835.945992,34
1766015835.946002,31
1766015835.9460108,34
1766015835.946021,33
1766015835.9460301,36
1766015835.9460402,32
1766015835.9460502,32
1766015835.946059,33
1766015835.946069,33
1766015835.946079,33
1766015835.9460878,32
1766015835.9460979,34
1766015835.9461079,36
1766015835.9461179,36
1766015835.9461272,33
1766015835.9461372,34
1766015835.9461482,34
1766015835.9461608,38
1766015835.946172,39
1766015835.9461818,38
1766015835.946191,38
1766015835.946201,40
1766015835.946211,38
1766015835.946221,42
1766015835.94623,41
1766015835.94624,40
1766015835.94625,42
1766015835.946259,39
1766015835.946269,39
1766015835.9462788,40
1766015835.9462888,43
1766015835.9462981,39
1766015835.9463081,40
1766015835.9463198,43
1766015835.946332,46
1766015835.946344,48
1766015835.946364,54
1766015835.9463758,53
1766015835.946388,50
1766015835.946398,52
1766015835.946408,51
1766015835.9464178,54
1766015835.9464269,53
1766015835.9464371,53
1766015835.9464471,53
1766015835.946456,54
1766015835.946466,54
1766015835.946476,50
1766015835.946486,53
1766015835.946499,49
1766015835.946511,52
1766015835.946522,51
1766015835.946531,53
1766015835.946541,52
1766015835.946551,57
1766015835.946561,54
1766015835.94657,56
1766015835.94658,54
1766015835.94659,54
1766015835.9466,53
1766015835.9466088,54
1766015835.9466188,53
1766015835.946629,55
1766015835.946639,51
1766015835.9466481,55
1766015835.9466581,55
1766015835.9466681,55
1766015835.946678,54
1766015835.946688,55
1766015835.946697,57
1766015835.946707,56
1766015835.946717,57
1766015835.9467268,57
1766015835.946736,56
1766015835.946746,55
1766015835.9467561,55
1766015835.9467661,55
1766015835.946775,52
1766015835.946785,57
1766015835.9467971,54
1766015835.9468071,55
1766015835.946819,53
1766015835.946832,55
1766015835.9468439,55
1766015835.9468539,53
1766015835.9468641,53
1766015835.9468732,56
1766015835.946883,53
1766015835.946893,57
1766015835.946902,54
1766015835.946912,55
1766015835.946922,60
1766015835.946931,59
1766015835.946941,61
1766015835.946951,57
1766015835.94696,59
1766015835.9469702,59
1766015835.946986,57
1766015835.946997,56
1766015835.947009,59
1766015835.94705,56
1766015835.9470642,56
1766015835.947077,55
1766015835.947087,59
1766015835.947098,56
1766015835.947108,57
1766015835.947131,59
1766015835.947142,59
1766015835.947152,59
1766015835.9471622,58
1766015835.9471722,59
1766015835.9471822,56
1766015835.947192,57
1766015835.947202,58
1766015835.9472158,58
1766015835.947229,55
1766015835.947239,56
1766015835.947249,55
1766015835.947259,59
1766015835.9472692,57
1766015835.947278,62
1766015835.947288,60
1766015835.947298,62
1766015835.947308,65
1766015835.947318,66
1766015835.947328,67
1766015835.94734,71
1766015835.9473531,71
1766015835.947365,74
1766015835.947376,72
1766015835.947386,71
1766015835.947396,70
1766015835.947406,66
1766015835.947415,67
1766015835.9474251,70
1766015835.947435,68
1766015835.947445,66
1766015835.947455,66
1766015835.947465,66
1766015835.947475,63
1766015835.947484,67
1766015835.9474938,65
1766015835.947504,65
1766015835.947514,67
1766015835.947524,63
1766015835.947534,61
1766015835.947546,66
1766015835.9475572,65
1766015835.9475682,65
1766015835.9475782,67
1766015835.9475882,64
1766015835.9475992,65
1766015835.9476109,63
1766015835.9476218,66
1766015835.947632,62
1766015835.947642,64
1766015835.947652,66
1766015835.947662,67
1766015835.9476721,64
1766015835.9476821,65
1766015835.947692,65
1766015835.947701,64
1766015835.947711,63
1766015835.947721,62
1766015835.947731,64
1766015835.947741,62
1766015835.9477508,62
1766015835.94776,57
1766015835.94777,59
1766015835.9477801,59
1766015835.9477901,62
1766015835.9478002,65
1766015835.94781,64
1766015835.94782,62
1766015835.947829,62
1766015835.947839,64
1766015835.947849,61
1766015835.947859,61
1766015835.9478688,60
1766015835.947882,61
1766015835.947894,61
1766015835.947904,60
1766015835.947914,58
1766015835.947924,59
1766015835.947934,56
1766015835.947944,61
1766015835.947954,57
1766015835.947964,55
1766015835.947973,58
1766015835.947983,59
1766015835.947993,61
1766015835.948003,57
1766015835.948013,56
1766015835.948023,57
1766015835.948033,57
1766015835.948043,56
1766015835.948053,57
1766015835.948063,53
1766015835.948072,53
1766015835.948082,57
1766015835.948092,58
1766015835.948102,57
1766015835.9481118,55
1766015835.948122,52
1766015835.948131,54
1766015835.948141,54
1766015835.948151,55
1766015835.9481611,54
1766015835.94817,55
1766015835.94818,54
1766015835.94819,53
1766015835.948202,53
1766015835.948215,54
1766015835.948226,50
1766015835.9482381,54
1766015835.9482508,53
1766015835.948282,51
1766015835.9482932,52
1766015835.948304,53
1766015835.9483142,54
1766015835.948323,53
1766015835.9483352,52
1766015835.9483469,52
1766015835.948359,51
1766015835.948371,50
1766015835.948382,50
1766015835.948391,54
1766015835.948401,53
1766015835.948411,54
1766015835.948421,50
1766015835.94843,51
1766015835.94844,50
1766015835.94845,52
1766015835.948459,51
1766015835.948469,50
1766015835.948479,51
1766015835.948489,52
1766015835.948498,53
1766015835.9485078,50
1766015835.9485178,51
1766015835.948528,50
1766015835.948537,51
1766015835.9485471,49
1766015835.9485571,51
1766015835.948571,49
1766015835.948583,50
1766015835.948593,51
1766015835.948603,51
1766015835.9486132,51
1766015835.948622,52
1766015835.948632,52
1766015835.948642,50
1766015835.948652,52
1766015835.948662,51
1766015835.9486709,50
1766015835.9486809,48
1766015835.948691,53
1766015835.9487,50
1766015835.94871,51
1766015835.9487202,49
1766015835.9487302,48
1766015835.948739,51
1766015835.948749,53
1766015835.948759,50
1766015835.948769,48
1766015835.948778,53
1766015835.948788,50
1766015835.948798,50
1766015835.948808,48
1766015835.948818,51
1766015835.9488268,49
1766015835.948837,51
1766015835.948847,49
1766015835.948856,50
1766015835.9488661,47
1766015835.9488761,50
1766015835.948887,50
1766015835.9489,50
1766015835.9489112,48
1766015835.9489212,48
1766015835.948931,49
1766015835.94894,49
1766015835.94895,50
1766015835.94896,48
1766015835.948969,49
1766015835.948979,49
1766015835.948989,45
1766015835.948998,47
1766015835.949008,48
1766015835.949018,49
1766015835.949028,48
1766015835.949037,48
1766015835.949047,47
1766015835.949057,48
1766015835.949066,47
1766015835.949076,46
1766015835.949086,48
1766015835.949095,48
1766015835.9491048,46
1766015835.9491148,48
1766015835.949125,46
1766015835.949134,49
1766015835.9491441,45
1766015835.9491541,47
1766015835.949169,49
1766015835.949183,46
1766015835.949207,46
1766015835.949235,47
1766015835.949248,46
1766015835.949273,48
1766015835.9493089,46
1766015835.949315,47
1766015835.9493198,45
1766015835.949325,44
1766015835.9493299,46
1766015835.949335,48
1766015835.9493399,45
1766015835.949347,44
1766015835.949352,46
1766015835.949357,48
1766015835.9493618,48
1766015835.949367,48
1766015835.9493718,45
1766015835.949377,46
1766015835.9493818,48
1766015835.949387,43
1766015835.9493918,47
1766015835.949396,46
1766015835.9494011,45
1766015835.949406,44
1766015835.9494112,46
1766015835.949416,45
1766015835.9494212,42
1766015835.949425,45
1766015835.94943,42
1766015835.949435,44
1766015835.94944,47
1766015835.949445,46
1766015835.94945,46
1766015835.949455,43
1766015835.9494588,44
1766015835.9494662,41
1766015835.949472,44
1766015835.9494772,43
1766015835.949482,43
1766015835.9494872,44
1766015835.949492,45
1766015835.949497,41
1766015835.949501,44
1766015835.949506,43
1766015835.9495108,42
1766015835.949516,42
1766015835.9495208,42
1766015835.949526,45
1766015835.9495308,41
1766015835.949536,43
1766015835.949541,42
1766015835.949546,42
1766015835.949551,41
1766015835.949555,41
1766015835.9495602,42
1766015835.949565,39
1766015835.94957,44
1766015835.949575,42
1766015835.94958,40
1766015835.949585,44
1766015835.94959,41
1766015835.949595,44
1766015835.949599,39
1766015835.949634,43
1766015835.949645,42
1766015835.94969,42
1766015835.949704,43
1766015835.949714,42
1766015835.949725,42
1766015835.949738,40
1766015835.949748,40
1766015835.949759,41
1766015835.949769,40
1766015835.949792,42
1766015835.949804,39
1766015835.94981,41
1766015835.949815,42
1766015835.9498198,37
1766015835.949824,41
1766015835.949829,41
1766015835.9498339,39
1766015835.949881,37
1766015835.949895,41
1766015835.9499059,40
1766015835.949916,40
1766015835.949926,41
1766015835.9499369,37
1766015835.949971,39
1766015835.949984,39
1766015835.949989,40
1766015835.949994,37
1766015835.949999,38
1766015835.950034,39
1766015835.950046,40
1766015835.9500558,39
1766015835.950067,38
1766015835.9500911,38
1766015835.950102,38
1766015835.950112,38
1766015835.9501219,38
1766015835.950133,36
1766015835.9501472,37
1766015835.950158,39
1766015835.950185,36
1766015835.950196,37
1766015835.950206,36
1766015835.950217,40
1766015835.950229,36
1766015835.950252,37
1766015835.950264,38
1766015835.950277,38
1766015835.950289,38
1766015835.950301,38
1766015835.950321,36
1766015835.950326,37
1766015835.950332,39
1766015835.950337,35
1766015835.950342,35
1766015835.950347,34
1766015835.950352,34
1766015835.950357,34
1766015835.950361,36
1766015835.950366,36
1766015835.950371,36
1766015835.950376,35
1766015835.950381,39
1766015835.9503858,36
1766015835.950391,35
1766015835.9503958,36
1766015835.950401,34
1766015835.9504058,34
1766015835.950411,34
1766015835.9504151,36
1766015835.95042,33
1766015835.9504268,34
1766015835.950433,35
1766015835.9504378,33
1766015835.950443,32
1766015835.950448,33
1766015835.950453,34
1766015835.950458,37
1766015835.950463,32
1766015835.950468,32
1766015835.950473,33
1766015835.9504771,31
1766015835.950482,32
1766015835.9504871,33
1766015835.950492,37
1766015835.950497,33
1766015835.950502,31
1766015835.950507,31
1766015835.9505122,32
1766015835.950516,30
1766015835.950521,31
1766015835.950526,32
1766015835.950531,34
1766015835.950536,35
1766015835.950541,35
1766015835.950546,31
1766015835.95055,33
1766015835.9505548,33
1766015835.95056,32
1766015835.950565,34
1766015835.9505699,34
1766015835.950575,31
1766015835.95058,27
1766015835.9505851,32
1766015835.950591,31
1766015835.950597,28
1766015835.950602,31
1766015835.950607,30
1766015835.950612,29
1766015835.950617,29
1766015835.950621,29
1766015835.9506261,31
1766015835.950631,29
1766015835.9506361,30
1766015835.950641,31
1766015835.950646,29
1766015835.950651,31
1766015835.950655,29
1766015835.95066,31
1766015835.950665,31
1766015835.95067,32
1766015835.950675,29
1766015835.95068,25
1766015835.950685,27
1766015835.95069,29
1766015835.9506948,27
1766015835.950699,31
1766015835.950704,27
1766015835.950709,27
1766015835.950714,29
1766015835.9507189,28
1766015835.9507241,29
1766015835.950729,29
1766015835.9507341,30
1766015835.950738,30
1766015835.950743,28
1766015835.950748,27
1766015835.950753,28
1766015835.950759,28
1766015835.9507651,26
1766015835.95077,28
1766015835.9507751,29
1766015835.95078,27
1766015835.950784,29
1766015835.9507892,27
1766015835.950794,28
1766015835.950799,28
1766015835.950804,29
1766015835.950809,31
1766015835.950814,28
1766015835.950819,25
1766015835.950824,29
1766015835.950828,27
1766015835.9508328,29
1766015835.950838,28
1766015835.9508429,27
1766015835.950848,27
1766015835.950853,26
1766015835.950857,27
1766015835.9508622,28
1766015835.950867,28
1766015835.9508722,29
1766015835.950877,27
1766015835.950882,27
1766015835.950887,27
1766015835.950892,27
1766015835.950896,28
1766015835.950901,27
1766015835.950906,23
1766015835.950911,25
1766015835.950916,26
1766015835.950922,28
1766015835.950928,27
1766015835.950933,25
1766015835.9509382,28
1766015835.950943,25
1766015835.950948,25
1766015835.950953,27
1766015835.950958,30
1766015835.9509618,26
1766015835.950967,26
1766015835.9509718,26
1766015835.950977,25
1766015835.9509819,30
1766015835.950986,25
1766015835.9509912,27
1766015835.950996,28
1766015835.9510012,28
1766015835.951006,26
1766015835.9510112,23
1766015835.951015,24
1766015835.95102,25
1766015835.951027,25
1766015835.9510322,29
1766015835.951037,28
1766015835.951042,28
1766015835.951047,27
1766015835.951052,27
1766015835.951057,26
1766015835.951062,27
1766015835.951067,28
1766015835.951072,25
1766015835.951076,24
1766015835.951081,27
1766015835.951086,28
1766015835.951093,26
1766015835.951099,26
1766015835.951105,25
1766015835.95111,27
1766015835.951116,27
1766015835.9511209,25
1766015835.951126,26
1766015835.9511309,28
1766015835.951136,28
1766015835.9511402,27
1766015835.951145,28
1766015835.9511502,27
1766015835.951155,27
1766015835.95116,24
1766015835.951165,26
1766015835.951169,25
1766015835.9511738,25
1766015835.951179,26
1766015835.9511838,24
1766015835.951189,29
1766015835.951194,27
1766015835.9511979,28
1766015835.951203,24
1766015835.9512079,24
1766015835.9512131,29
1766015835.951218,24
1766015835.9512231,26
1766015835.951228,23
1766015835.951232,26
1766015835.9512372,25
1766015835.951242,26
1766015835.9512472,28
1766015835.951252,25
1766015835.9512582,26
1766015835.951263,29
1766015835.9512691,26
1766015835.951273,25
1766015835.951278,25
1766015835.951283,25
1766015835.951288,24
1766015835.9512918,25
1766015835.951297,24
1766015835.9513018,24
1766015835.951307,24
1766015835.9513118,23
1766015835.951317,26
1766015835.951322,25
1766015835.951326,24
1766015835.9513311,21
1766015835.951336,26
1766015835.9513412,24
1766015835.951346,27
1766015835.951351,23
1766015835.951356,23
1766015835.95136,23
1766015835.9513652,23
1766015835.95137,25
1766015835.951375,24
1766015835.95138,23
1766015835.951385,27
1766015835.9513888,25
1766015835.951394,20
1766015835.9513988,25
1766015835.951404,23
1766015835.9514089,26
1766015835.951414,22
1766015835.9514182,25
1766015835.951425,21
1766015835.9514308,27
1766015835.951435,20
1766015835.9514399,23
1766015835.951445,23
1766015835.95145,23
1766015835.9514549,19
1766015835.9514601,22
1766015835.951464,23
1766015835.951469,23
1766015835.951474,24
1766015835.951479,21
1766015835.951484,25
1766015835.951489,24
1766015835.951494,23
1766015835.951498,21
1766015835.951503,25
1766015835.951508,23
1766015835.951513,23
1766015835.951518,24
1766015835.951523,23
1766015835.9515278,24
1766015835.951533,24
1766015835.951537,23
1766015835.951542,23
1766015835.951547,22
1766015835.951552,22
1766015835.9515572,25
1766015835.951562,25
1766015835.9515672,23
1766015835.951572,25
1766015835.9515772,25
1766015835.951581,21
1766015835.9515882,25
1766015835.951593,20
1766015835.9515982,22
1766015835.951603,21
1766015835.9516082,21
1766015835.951613,21
1766015835.951618,21
1766015835.951623,22
1766015835.951627,22
1766015835.9516318,20
1766015835.951637,22
1766015835.951642,21
1766015835.951647,20
1766015835.951652,20
1766015835.9516559,24
1766015835.951661,20
1766015835.9516659,21
1766015835.9516711,23
1766015835.951676,22
1766015835.9516811,23
1766015835.9516852,22
1766015835.95169,20
1766015835.9516952,23
1766015835.9517,22
1766015835.951705,22
1766015835.95171,23
1766015835.951715,21
1766015835.95172,23
1766015835.951725,20
1766015835.9517288,19
1766015835.951734,21
1766015835.9517388,22
1766015835.951744,21
1766015835.951749,22
1766015835.951755,20
1766015835.951761,23
1766015835.951766,23
1766015835.9517708,22
1766015835.951776,24
1766015835.95178,24
1766015835.9517848,22
1766015835.95179,21
1766015835.9517949,22
1766015835.9518,21
1766015835.9518049,20
1766015835.951809,22
1766015835.951814,21
1766015835.951819,21
1766015835.951824,19
1766015835.951829,18
1766015835.9518342,21
1766015835.951839,22
1766015835.951844,20
1766015835.951848,22
1766015835.951853,24
1766015835.9518661,21
1766015835.951871,23
1766015835.9518762,20
1766015835.951881,21
1766015835.9518862,19
1766015835.95189,23
1766015835.951895,20
1766015835.9519,23
1766015835.951905,22
1766015835.9519098,24
1766015835.951915,21
1766015835.95192,20
1766015835.951926,20
1766015835.951932,23
1766015835.951937,21
1766015835.951942,23
1766015835.951947,20
1766015835.951951,23
1766015835.951956,23
1766015835.951961,21
1766015835.951966,24
1766015835.951971,21
1766015835.9519749,24
1766015835.95198,21
1766015835.951985,20
1766015835.9519901,22
1766015835.951995,23
1766015835.952,20
1766015835.9520042,23
1766015835.952009,22
1766015835.952014,21
1766015835.952019,21
1766015835.952024,21
1766015835.9520278,18
1766015835.952033,21
1766015835.9520378,23
1766015835.952043,20
1766015835.952048,21
1766015835.9520519,23
1766015835.9520571,21
1766015835.952062,20
1766015835.9520671,22
1766015835.952072,21
1766015835.952076,23
1766015835.952081,26
1766015835.952086,21
1766015835.952092,24
1766015835.9520981,19
1766015835.952102,20
1766015835.952107,23
1766015835.9521122,21
1766015835.952117,21
1766015835.9521222,20
1766015835.952127,19
1766015835.952132,21
1766015835.952136,22
1766015835.952141,23
1766015835.9521458,23
1766015835.952151,23
1766015835.9521549,23
1766015835.95216,20
1766015835.9521651,22
1766015835.95217,22
1766015835.9521751,21
1766015835.95218,21
1766015835.952184,22
1766015835.952189,22
1766015835.952194,22
1766015835.952199,24
1766015835.952204,21
1766015835.952209,22
1766015835.952213,20
1766015835.952218,21
1766015835.952223,20
1766015835.952228,21
1766015835.952232,21
1766015835.9522371,22
1766015835.952242,23
1766015835.9522471,23
1766015835.9522529,21
1766015835.952259,22
1766015835.9522638,22
1766015835.952269,23
1766015835.9522738,22
1766015835.952278,21
1766015835.952283,21
1766015835.952288,19
1766015835.9522932,20
1766015835.952298,22
1766015835.9523032,23
1766015835.952308,24
1766015835.952312,23
1766015835.952317,22
1766015835.952322,18
1766015835.952327,24
1766015835.952332,22
1766015835.9523368,20
1766015835.952342,24
1766015835.9523468,20
1766015835.952351,23
1766015835.952356,22
1766015835.9523609,20
1766015835.952366,24
1766015835.952371,22
1766015835.9523761,20
1766015835.95238,20
1766015835.952385,21
1766015835.95239,21
1766015835.952395,23
1766015835.9524,24
1766015835.952405,23
1766015835.9524102,24
1766015835.952415,18
1766015835.9524212,23
1766015835.952427,23
1766015835.9524322,22
1766015835.952436,22
1766015835.952441,25
1766015835.952446,21
1766015835.952451,23
1766015835.952456,26
1766015835.952461,20
1766015835.9524648,20
1766015835.95247,23
1766015835.9524748,21
1766015835.95248,21
1766015835.952485,21
1766015835.952489,23
1766015835.9524941,22
1766015835.952499,22
1766015835.9525042,23
1766015835.952509,23
1766015835.952513,23
1766015835.952518,25
1766015835.952523,21
1766015835.9525278,22
1766015835.952566,23
1766015835.9525802,23
1766015835.952617,23
1766015835.952628,23
1766015835.952638,24
1766015835.952648,23
1766015835.952658,22
1766015835.952668,21
1766015835.952677,24
1766015835.952687,23
1766015835.9527,20
1766015835.9527118,22
1766015835.952723,25
1766015835.952733,23
1766015835.9527419,23
1766015835.952752,25
1766015835.9527612,23
1766015835.9527712,22
1766015835.95278,23
1766015835.95279,23
1766015835.9528,24
1766015835.9528089,19
1766015835.9528189,24
1766015835.952828,23
1766015835.952838,26
1766015835.952848,25
1766015835.952857,24
1766015835.952867,22
1766015835.952876,20
1766015835.952886,21
1766015835.952896,23
1766015835.952908,24
1766015835.952918,20
1766015835.9529269,20
1766015835.952937,23
1766015835.952947,19
1766015835.952957,22
1766015835.952967,22
1766015835.952977,24
1766015835.952986,23
1766015835.952996,24
1766015835.953006,20
1766015835.953016,24
1766015835.9530299,20
1766015835.953042,23
1766015835.9530518,20
1766015835.953061,19
1766015835.953071,24
1766015835.9530811,25
1766015835.9530911,24
1766015835.9531012,23
1766015835.953111,20
1766015835.953121,24
1766015835.953131,22
1766015835.953141,22
1766015835.953151,23
1766015835.95316,19
1766015835.9531698,20
1766015835.9531798,20
1766015835.9531898,21
1766015835.9532,21
1766015835.95321,22
1766015835.9532201,23
1766015835.953229,23
1766015835.953239,20
1766015835.953249,21
1766015835.953259,21
1766015835.953269,22
1766015835.953279,22
1766015835.9532878,22
1766015835.9532979,24
1766015835.9533079,22
1766015835.9533179,22
1766015835.953345,24
1766015835.953357,25
1766015835.95337,22
1766015835.953383,22
1766015835.953395,24
1766015835.9534059,20
1766015835.9534159,24
1766015835.953426,22
1766015835.9534369,22
1766015835.9534469,21
1766015835.9534569,20
1766015835.9534678,21
1766015835.9534779,22
1766015835.9534879,23
1766015835.953501,23
1766015835.953511,21
1766015835.953521,22
1766015835.9535308,24
1766015835.953542,21
1766015835.9535518,22
1766015835.953562,21
1766015835.9535732,19
1766015835.953583,22
1766015835.953593,23
1766015835.953604,24
1766015835.953614,22
1766015835.953624,20
1766015835.953634,22
1766015835.953645,22
1766015835.9536572,20
1766015835.953669,19
1766015835.953681,21
1766015835.953693,22
1766015835.953705,21
1766015835.953717,20
1766015835.953732,24
1766015835.953742,18
1766015835.953752,24
1766015835.953763,23
1766015835.953773,20
1766015835.953783,23
1766015835.953794,20
1766015835.953804,19
1766015835.953814,22
1766015835.953824,23
1766015835.953834,20
1766015835.953845,24
1766015835.953855,18
1766015835.953865,25
1766015835.9538748,23
1766015835.953886,20
1766015835.953896,20
1766015835.9539058,23
1766015835.9539158,21
1766015835.9539258,20
1766015835.9539359,22
1766015835.9539468,21
1766015835.953957,22
1766015835.953967,22
1766015835.953977,23
1766015835.953988,23
1766015835.953998,21
1766015835.954008,22
1766015835.954018,24
1766015835.954029,24
1766015835.954039,23
1766015835.954049,22
1766015835.954061,24
1766015835.9540741,20
1766015835.954085,21
1766015835.9540951,23
1766015835.954106,22
1766015835.954116,21
1766015835.9541261,24
1766015835.9541361,26
1766015835.9541461,23
1766015835.954159,22
1766015835.9541702,21
1766015835.9541981,20
1766015835.954216,21
1766015835.954226,23
1766015835.954237,22
1766015835.954249,21
1766015835.954259,21
1766015835.9542809,22
1766015835.954311,24
1766015835.954317,23
1766015835.954323,23
1766015835.954328,20
1766015835.9543328,19
1766015835.9543371,23
1766015835.954342,24
1766015835.954347,24
1766015835.9543521,23
1766015835.954357,21
1766015835.9543622,22
1766015835.954366,24
1766015835.9543931,23
1766015835.954404,20
1766015835.954415,22
1766015835.954429,19
1766015835.954442,23
1766015835.954452,21
1766015835.954463,20
1766015835.954473,21
1766015835.954484,22
1766015835.954496,20
1766015835.954507,18
1766015835.954533,24
1766015835.954544,21
1766015835.9545689,21
1766015835.954575,22
1766015835.9545789,21
1766015835.9545841,20
1766015835.954589,21
1766015835.9545941,21
1766015835.954599,21
1766015835.9546041,22
1766015835.954609,20
1766015835.954613,23
1766015835.9546182,23
1766015835.954623,25
1766015835.954628,20
1766015835.954633,23
1766015835.954637,22
1766015835.9546418,21
1766015835.954647,21
1766015835.9546518,19
1766015835.954656,20
1766015835.9546611,19
1766015835.954666,20
1766015835.9546711,20
1766015835.954678,20
1766015835.9546828,21
1766015835.954689,21
1766015835.954693,24
1766015835.954698,19
1766015835.954703,23
1766015835.9547079,22
1766015835.9547122,20
1766015835.954717,22
1766015835.9547222,24
1766015835.954727,21
1766015835.954732,22
1766015835.954737,22
1766015835.954741,21
1766015835.954746,20
1766015835.954751,21
1766015835.954756,21
1766015835.954761,23
1766015835.954766,20
1766015835.9547698,21
1766015835.954775,24
1766015835.9547799,21
1766015835.954785,25
1766015835.9547899,21
1766015835.954794,21
1766015835.9547992,19
1766015835.954804,22
1766015835.9548092,21
1766015835.954814,22
1766015835.954819,24
1766015835.954825,22
1766015835.9548302,23
1766015835.954834,20
1766015835.954839,20
1766015835.954846,22
1766015835.9548512,19
1766015835.954856,22
1766015835.9548612,21
1766015835.954866,20
1766015835.95487,21
1766015835.954875,22
1766015835.95488,23
1766015835.954884,22
1766015835.954889,20
1766015835.954894,23
1766015835.9548988,22
1766015835.9549031,21
1766015835.954908,20
1766015835.9549131,20
1766015835.954918,22
1766015835.954922,22
1766015835.9549272,22
1766015835.954932,23
1766015835.954936,21
1766015835.954941,20
1766015835.954946,23
1766015835.9549508,20
1766015835.954955,22
1766015835.9549599,20
1766015835.9549649,19
1766015835.9549701,20
1766015835.954975,20
1766015835.9549792,21
1766015835.954984,20
1766015835.954989,20
1766015835.954993,19
1766015835.954998,21
1766015835.955004,21
1766015835.955009,19
1766015835.955105,22
1766015835.9551098,21
1766015835.955114,22
1766015835.9551191,23
1766015835.955124,19
1766015835.9551291,22
1766015835.955134,20
1766015835.9551392,20
1766015835.955143,20
1766015835.955148,21
1766015835.955153,23
1766015835.955158,21
1766015835.9551628,22
1766015835.955167,23
1766015835.955172,21
1766015835.955177,20
1766015835.955182,19
1766015835.9551868,24
1766015835.9551911,23
1766015835.955196,23
1766015835.955201,20
1766015835.955206,23
1766015835.95521,21
1766015835.9552152,20
1766015835.95522,25
1766015835.955225,20
1766015835.955232,18
1766015835.9552362,18
1766015835.955241,21
1766015835.955246,21
1766015835.955251,22
1766015835.955256,19
1766015835.955262,21
1766015835.9552681,19
1766015835.955272,22
1766015835.955277,20
1766015835.955282,22
1766015835.955287,20
1766015835.955292,20
1766015835.955296,22
1766015835.955301,22
1766015835.955306,24
1766015835.955311,23
1766015835.9553149,20
1766015835.9553201,23
1766015835.955325,21
1766015835.9553301,20
1766015835.955334,22
1766015835.955339,22
1766015835.955344,23
1766015835.955349,21
1766015835.9553542,21
1766015835.955358,20
1766015835.955363,19
1766015835.955369,23
1766015835.955374,22
1766015835.955379,22
1766015835.955384,22
1766015835.9553878,21
1766015835.955393,20
1766015835.9553978,21
1766015835.955403,21
1766015835.9554079,21
1766015835.955412,23
1766015835.9554172,21
1766015835.9554229,22
1766015835.955429,20
1766015835.955434,21
1766015835.955439,17
1766015835.955443,24
1766015835.9554482,22
1766015835.955453,21
1766015835.9554582,24
1766015835.955463,19
1766015835.955468,20
1766015835.955473,22
1766015835.955477,22
1766015835.955482,23
1766015835.955487,20
1766015835.955492,21
1766015835.955497,22
1766015835.955501,20
1766015835.9555058,24
1766015835.955511,20
1766015835.9555159,20
1766015835.95552,21
1766015835.9555252,21
1766015835.95553,21
1766015835.9555352,24
1766015835.95554,23
1766015835.9555452,22
1766015835.95555,19
1766015835.955554,23
1766015835.955559,24
1766015835.955564,23
1766015835.9555688,22
1766015835.955573,22
1766015835.955578,23
1766015835.9555829,21
1766015835.955589,22
1766015835.955595,20
1766015835.955599,21
1766015835.955604,19
1766015835.955609,23
1766015835.9556139,24
1766015835.9556181,21
1766015835.955623,22
1766015835.955628,24
1766015835.955633,22
1766015835.955637,22
1766015835.9556422,22
1766015835.955647,21
1766015835.955652,20
1766015835.955657,23
1766015835.955661,23
1766015835.9556658,20
1766015835.955671,20
1766015835.9556758,19
1766015835.95568,23
1766015835.9556851,21
1766015835.95569,19
1766015835.9556952,19
1766015835.9557,22
1766015835.955704,21
1766015835.955709,20
1766015835.955714,21
1766015835.955719,23
1766015835.955723,21
1766015835.9557278,22
1766015835.955733,21
1766015835.955738,20
1766015835.955742,23
1766015835.955749,24
1766015835.955754,22
1766015835.955759,22
1766015835.955764,23
1766015835.955769,21
1766015835.955774,23
1766015835.955779,20
1766015835.9557838,22
1766015835.9557881,20
1766015835.955793,21
1766015835.955798,23
1766015835.955803,24
1766015835.955808,20
1766015835.955812,23
1766015835.955817,21
1766015835.955822,23
1766015835.955827,24
1766015835.955832,23
1766015835.9558358,21
1766015835.955841,22
1766015835.9558458,20
1766015835.955851,19
1766015835.9558558,23
1766015835.955861,25
1766015835.955866,21
1766015835.95587,19
1766015835.9558752,24
1766015835.95588,20
1766015835.9558852,20
1766015835.955889,21
1766015835.955894,23
1766015835.9558988,24
1766015835.955904,21
1766015835.955909,25
1766015835.955915,26
1766015835.95592,22
1766015835.955925,23
1766015835.95593,22
1766015835.955935,22
1766015835.95594,24
1766015835.9559438,24
1766015835.955949,21
1766015835.9559538,24
1766015835.955959,25
1766015835.955963,25
1766015835.955968,21
1766015835.9559731,24
1766015835.955978,22
1766015835.955982,24
1766015835.955987,21
1766015835.955992,22
1766015835.955997,23
1766015835.956002,23
1766015835.9560058,24
1766015835.956011,25
1766015835.956016,21
1766015835.956021,22
1766015835.9560251,22
1766015835.95603,24
1766015835.9560351,24
1766015835.95604,21
1766015835.956044,23
1766015835.956049,20
1766015835.956054,23
1766015835.956059,23
1766015835.956063,25
1766015835.956068,25
1766015835.956074,23
1766015835.9560802,22
1766015835.956085,23
1766015835.9560902,22
1766015835.956094,21
1766015835.956099,23
1766015835.956104,21
1766015835.956109,21
1766015835.9561129,21
1766015835.956118,26
1766015835.9561229,22
1766015835.956128,23
1766015835.9561331,24
1766015835.956137,24
1766015835.9561422,24
1766015835.956147,24
1766015835.956152,25
1766015835.956156,24
1766015835.956161,22
1766015835.9561658,22
1766015835.956171,25
1766015835.9561758,23
1766015835.956181,25
1766015835.956186,22
1766015835.9561899,22
1766015835.956195,22
1766015835.9562,23
1766015835.9562051,22
1766015835.95621,22
1766015835.9562151,26
1766015835.956219,20
1766015835.956224,22
1766015835.9562292,22
1766015835.956234,23
1766015835.95624,24
1766015835.956245,22
1766015835.9562502,23
1766015835.956255,22
1766015835.9562602,25
1766015835.956265,21
1766015835.956269,23
1766015835.956274,22
1766015835.956279,24
1766015835.9562838,23
1766015835.956289,22
1766015835.956293,23
1766015835.9562979,24
1766015835.9563031,20
1766015835.956308,23
1766015835.9563122,22
1766015835.956358,24
1766015835.956364,23
1766015835.956369,21
1766015835.956373,19
1766015835.9563782,19
1766015835.956384,22
1766015835.956388,23
1766015835.956393,22
1766015835.956398,25
1766015835.956403,22
1766015835.956408,24
1766015835.956413,24
1766015835.956418,26
1766015835.9564219,20
1766015835.956427,26
1766015835.9564319,22
1766015835.956437,23
1766015835.9564428,25
1766015835.956449,22
1766015835.9564538,23
1766015835.956459,19
1766015835.956464,24
1766015835.956469,21
1766015835.956474,21
1766015835.956479,20
1766015835.9564831,22
1766015835.956488,22
1766015835.9564931,19
1766015835.956498,25
1766015835.9565032,24
1766015835.956508,24
1766015835.956513,23
1766015835.9565172,19
1766015835.956522,24
1766015835.956527,20
1766015835.956532,21
1766015835.956537,21
1766015835.956542,22
1766015835.956546,20
1766015835.9565508,25
1766015835.956556,21
1766015835.9565609,18
1766015835.956566,23
1766015835.9565709,22
1766015835.956576,23
1766015835.9565802,22
1766015835.956585,20
1766015835.9565902,20
1766015835.956595,23
1766015835.9566,21
1766015835.956605,22
1766015835.9566112,22
1766015835.9566169,24
1766015835.9566221,22
1766015835.956627,22
1766015835.956631,22
1766015835.956636,23
1766015835.956641,21
1766015835.956646,20
1766015835.956651,24
1766015835.956655,22
1766015835.95666,22
1766015835.956665,22
1766015835.95667,21
1766015835.956675,22
1766015835.9566798,21
1766015835.956684,22
1766015835.956689,22
1766015835.9566941,19
1766015835.956699,24
1766015835.956704,24
1766015835.9567082,24
1766015835.956713,23
1766015835.956718,21
1766015835.956723,23
1766015835.956728,21
1766015835.956733,25
1766015835.956737,23
1766015835.9567418,20
1766015835.956747,21
1766015835.9567518,23
1766015835.956757,22
1766015835.956762,20
1766015835.956766,22
1766015835.956773,20
1766015835.956778,24
1766015835.956783,23
1766015835.956788,23
1766015835.956793,23
1766015835.9567978,21
1766015835.9568021,19
1766015835.956807,21
1766015835.9568121,20
1766015835.956817,21
1766015835.956822,21
1766015835.9568262,22
1766015835.956831,18
1766015835.956836,19
1766015835.956841,19
1766015835.956846,19
1766015835.956851,22
1766015835.956855,21
1766015835.9568598,24
1766015835.956865,22
1766015835.9568698,23
1766015835.956875,24
1766015835.9568799,23
1766015835.956885,23
1766015835.9568892,23
1766015835.956894,23
1766015835.9568992,21
1766015835.956904,22
1766015835.956909,23
1766015835.956913,21
1766015835.956918,22
1766015835.9569228,21
1766015835.956928,20
1766015835.956933,23
1766015835.956939,22
1766015835.956945,22
1766015835.956949,20
1766015835.956954,22
1766015835.956959,22
1766015835.956964,22
1766015835.956969,22
1766015835.956974,21
1766015835.956979,20
1766015835.956984,22
1766015835.9569879,21
1766015835.956993,22
1766015835.9569979,20
1766015835.957003,23
1766015835.957008,21
1766015835.957012,23
1766015835.9570172,22
1766015835.957022,23
1766015835.957027,21
1766015835.957032,20
1766015835.957036,21
1766015835.9570408,23
1766015835.957046,20
1766015835.9570508,20
1766015835.957056,22
1766015835.957061,23
1766015835.957066,21
1766015835.957071,19
1766015835.9570749,24
1766015835.9570801,20
1766015835.957085,21
1766015835.9570901,23
1766015835.957095,22
1766015835.957101,22
1766015835.9571068,22
1766015835.957112,22
1766015835.957116,19
1766015835.9571211,24
1766015835.957126,25
1766015835.957131,25
1766015835.957136,21
1766015835.95714,20
1766015835.957145,24
1766015835.95715,23
1766015835.957155,18
1766015835.95716,19
1766015835.957165,24
1766015835.9571688,17
1766015835.957174,20
1766015835.9571788,21
1766015835.957184,23
1766015835.957189,21
1766015835.957194,22
1766015835.9571981,22
1766015835.957203,23
1766015835.9572082,22
1766015835.957213,21
1766015835.957218,22
1766015835.957223,21
1766015835.957228,22
1766015835.957233,19
1766015835.957237,23
1766015835.957242,24
1766015835.957247,20
1766015835.957252,21
1766015835.957257,22
1766015835.957262,21
1766015835.957268,21
1766015835.957275,22
1766015835.957279,18
1766015835.9572842,18
1766015835.957289,20
1766015835.957294,23
1766015835.957299,20
1766015835.957304,25
1766015835.957309,25
1766015835.957313,21
1766015835.9573178,18
1766015835.957323,22
1766015835.9573278,23
1766015835.957333,21
1766015835.957338,22
1766015835.9573429,23
1766015835.9573472,23
1766015835.957352,19
1766015835.9573572,22
1766015835.957362,19
1766015835.957367,20
1766015835.957372,22
1766015835.957377,19
1766015835.957381,22
1766015835.957386,20
1766015835.957391,19
1766015835.957396,19
1766015835.957401,23
1766015835.957406,22
1766015835.957411,22
1766015835.9574158,23
1766015835.957421,22
1766015835.9574258,21
1766015835.957432,20
1766015835.957438,24
1766015835.957443,19
1766015835.957448,22
1766015835.957453,23
1766015835.957458,21
1766015835.957462,22
1766015835.9574668,23
1766015835.957472,21
1766015835.957477,21
1766015835.957481,21
1766015835.9574862,22
1766015835.957491,20
1766015835.9574962,24
1766015835.957501,19
1766015835.957549,18
1766015835.957563,19
1766015835.9575748,20
1766015835.957587,20
1766015835.957599,21
1766015835.957622,23
1766015835.957634,24
1766015835.957645,23
1766015835.9576561,19
1766015835.9576662,21
1766015835.9576771,22
1766015835.9576871,21
1766015835.957698,20
1766015835.95771,21
1766015835.957737,20
1766015835.957748,19
1766015835.957758,20
1766015835.957769,18
1766015835.957779,20
1766015835.95779,24
1766015835.9578109,23
1766015835.957833,23
1766015835.957846,21
1766015835.957856,22
1766015835.957866,21
1766015835.957877,20
1766015835.957887,22
1766015835.957897,21
1766015835.957909,22
1766015835.95792,21
1766015835.957954,22
1766015835.957959,18
1766015835.957964,21
1766015835.957969,21
1766015835.957974,19
1766015835.957979,20
1766015835.957984,20
1766015835.9579892,22
1766015835.957993,22
1766015835.957998,24
1766015835.958003,23
1766015835.958008,23
1766015835.9580128,19
1766015835.958018,21
1766015835.9580228,21
1766015835.9580271,22
1766015835.958032,22
1766015835.958037,20
1766015835.9580421,23
1766015835.958047,21
1766015835.9580522,22
1766015835.958057,23
1766015835.9580622,21
1766015835.958066,22
1766015835.958071,22
1766015835.958076,22
1766015835.958081,23
1766015835.9580858,21
1766015835.958091,21
1766015835.9580958,21
1766015835.9581,23
1766015835.958105,24
1766015835.9581099,22
1766015835.958115,22
1766015835.9581199,21
1766015835.958125,20
1766015835.95813,24
1766015835.9581351,23
1766015835.958139,20
1766015835.958144,23
1766015835.9581492,20
1766015835.958154,24
1766015835.9581592,25
1766015835.958164,23
1766015835.958168,22
1766015835.958173,23
1766015835.958178,22
1766015835.9581828,23
1766015835.958188,21
1766015835.9581928,22
1766015835.9581969,22
1766015835.9582021,22
1766015835.958207,20
1766015835.9582121,20
1766015835.958217,22
1766015835.9582222,23
1766015835.958227,21
1766015835.958231,23
1766015835.958236,23
1766015835.958241,22
1766015835.958246,23
1766015835.958251,21
1766015835.958257,22
1766015835.958261,24
1766015835.958266,22
1766015835.958271,21
1766015835.958276,20
1766015835.958281,23
1766015835.958286,22
1766015835.958291,22
1766015835.958296,23
1766015835.9583008,23
1766015835.958306,20
1766015835.9583108,21
1766015835.958315,21
1766015835.9583201,20
1766015835.958325,22
1766015835.9583302,22
1766015835.958335,24
1766015835.9583402,23
1766015835.958344,23
1766015835.958349,23
1766015835.958354,23
1766015835.958359,23
1766015835.958364,23
1766015835.958369,19
1766015835.9583738,22
1766015835.958379,23
1766015835.958384,19
1766015835.958389,19
1766015835.958393,22
1766015835.9583979,28
1766015835.958403,23
1766015835.9584079,25
1766015835.9584131,21
1766015835.958418,24
1766015835.958422,27
1766015835.958427,23
1766015835.958432,24
1766015835.9584372,23
1766015835.958442,21
1766015835.9584472,24
1766015835.958452,21
1766015835.958456,24
1766015835.958461,24
1766015835.958466,21
1766015835.9584708,23
1766015835.958476,24
1766015835.9584808,26
1766015835.958485,23
1766015835.9584901,22
1766015835.958495,26
1766015835.9585001,24
1766015835.958505,26
1766015835.9585102,23
1766015835.958515,24
1766015835.9585202,23
1766015835.958524,23
1766015835.958529,25
1766015835.958534,25
1766015835.958539,24
1766015835.9585438,26
1766015835.958549,23
1766015835.958554,26
1766015835.958559,24
1766015835.958563,25
1766015835.9585679,26
1766015835.958573,25
1766015835.9585779,25
1766015835.958583,26
1766015835.958588,22
1766015835.958592,27
1766015835.9585972,26
1766015835.958602,23
1766015835.9586072,23
1766015835.958612,22
1766015835.958617,23
1766015835.958621,24
1766015835.958626,21
1766015835.9586308,24
1766015835.958636,23
1766015835.9586408,23
1766015835.958646,25
1766015835.9586508,25
1766015835.9586549,28
1766015835.9586601,24
1766015835.958665,25
1766015835.9586701,24
1766015835.958675,22
1766015835.9586802,24
1766015835.958685,24
1766015835.958689,25
1766015835.958694,27
1766015835.958699,26
1766015835.9587042,20
1766015835.958709,26
1766015835.958714,24
1766015835.958719,25
1766015835.958723,23
1766015835.9587278,27
1766015835.958733,26
1766015835.9587379,26
1766015835.958743,26
1766015835.9587479,25
1766015835.958753,25
1766015835.9587572,26
1766015835.958762,24
1766015835.9587672,25
1766015835.958772,23
1766015835.9587772,26
1766015835.958782,25
1766015835.958786,25
1766015835.958791,24
1766015835.958796,25
1766015835.9588008,24
1766015835.958806,26
1766015835.9588108,27
1766015835.958818,28
1766015835.958823,26
1766015835.958827,26
1766015835.958832,25
1766015835.958837,27
1766015835.958842,27
1766015835.958847,29
1766015835.958852,29
1766015835.9588559,28
1766015835.958861,25
1766015835.959408,26
1766015835.9604108,29
1766015835.9614148,26
1766015835.962411,25
1766015835.963418,26
1766015835.964421,27
1766015835.965421,28
1766015835.966423,25
1766015835.9674618,29
1766015835.9684522,29
1766015835.969407,26
1766015835.970436,30
1766015835.971442,26
1766015835.9724329,26
1766015835.9734452,31
1766015835.974447,25
1766015835.975439,28
1766015835.976427,27
1766015835.9774358,26
1766015835.978445,27
1766015835.979451,27
1766015835.9804428,29
1766015835.981497,28
1766015835.982528,29
1766015835.983478,27
1766015835.984489,29
1766015835.985504,29
1766015835.986492,28
1766015835.987514,31
1766015835.9885151,29
1766015835.989496,27
1766015835.990479,29
1766015835.9915001,28
1766015835.992526,26
1766015835.993504,27
1766015835.994515,28
1766015835.995521,31
1766015835.996585,29
1766015835.9975538,30
1766015835.998533,29
1766015835.999559,31
1766015836.0005708,28
1766015836.001579,32
1766015836.0025861,29
1766015836.0035882,30
1766015836.0046332,29
1766015836.0055969,27
1766015836.00661,29
1766015836.007604,31
1766015836.008615,28
1766015836.009611,28
1766015836.0106518,25
1766015836.0116448,29
1766015836.012651,30
1766015836.013654,31
1766015836.014657,28
1766015836.015637,28
1766015836.01665,29
1766015836.017654,27
1766015836.018656,30
1766015836.019658,29
1766015836.0206661,29
1766015836.021666,29
1766015836.022675,29
1766015836.023596,30
1766015836.0245981,27
1766015836.025683,28
1766015836.026635,29
1766015836.027628,29
1766015836.0286121,29
1766015836.0297012,28
1766015836.030636,32
1766015836.031657,26
1766015836.0326242,30
1766015836.033702,32
1766015836.034654,26
1766015836.035715,31
1766015836.0367281,28
1766015836.037719,30
1766015836.0387368,29
1766015836.0397282,31
1766015836.04066,27
1766015836.041675,26
1766015836.042708,26
1766015836.043726,31
1766015836.044682,25
1766015836.045729,28
1766015836.0467079,25
1766015836.047745,28
1766015836.048675,29
1766015836.049694,25
1766015836.050734,30
1766015836.051759,28
1766015836.052704,26
1766015836.053754,28
1766015836.0547369,29
1766015836.0557618,28
1766015836.056751,25
1766015836.057695,26
1766015836.058752,25
1766015836.0597692,30
1766015836.060742,29
1766015836.0617669,26
1766015836.0627682,27
1766015836.06378,26
1766015836.0647628,26
1766015836.06579,28
1766015836.06675,27
1766015836.067793,24
1766015836.068762,26
1766015836.069813,27
1766015836.0707781,28
1766015836.0718,26
1766015836.072783,26
1766015836.073775,29
1766015836.074817,25
1766015836.075819,27
1766015836.076777,26
1766015836.077835,28
1766015836.078804,28
1766015836.0798311,27
1766015836.0808058,27
1766015836.081835,27
1766015836.082783,27
1766015836.083829,25
1766015836.084803,27
1766015836.085849,26
1766015836.086832,26
1766015836.0878458,26
1766015836.08879,27
1766015836.089826,29
1766015836.090879,24
1766015836.0918589,29
1766015836.0928562,26
1766015836.093861,27
1766015836.0948539,30
1766015836.095864,29
1766015836.096875,29
1766015836.0978749,29
1766015836.09886,27
1766015836.0998678,30
1766015836.100825,28
1766015836.1018372,30
1766015836.102885,28
1766015836.10385,27
1766015836.104885,32
1766015836.1058428,27
1766015836.1068952,27
1766015836.107847,29
1766015836.108903,29
1766015836.1098702,27
1766015836.1108868,31
1766015836.111865,28
1766015836.112898,28
1766015836.113913,26
1766015836.114913,29
1766015836.115886,31
1766015836.116916,26
1766015836.117881,28
1766015836.118925,27
1766015836.119903,28
1766015836.120924,30
1766015836.121907,31
1766015836.1229298,28
1766015836.123908,29
1766015836.124949,29
1766015836.1259232,27
1766015836.126925,25
1766015836.127928,30
1766015836.128939,27
1766015836.1299279,27
1766015836.130948,28
1766015836.1319418,28
1766015836.132916,30
1766015836.133944,26
1766015836.134958,30
1766015836.1359339,27
1766015836.1369731,27
1766015836.1379561,27
1766015836.1389701,31
1766015836.139943,25
1766015836.140938,26
1766015836.141963,27
1766015836.142966,29
1766015836.143966,30
1766015836.144976,26
1766015836.1459699,27
1766015836.146987,29
1766015836.14797,28
1766015836.149,25
1766015836.149976,28
1766015836.15098,27
1766015836.1519969,25
1766015836.152989,27
1766015836.1539881,29
1766015836.154995,29
1766015836.156,28
1766015836.1570098,29
1766015836.1579862,27
1766015836.159014,27
1766015836.160011,25
1766015836.161003,27
1766015836.162024,27
1766015836.163001,27
1766015836.16402,27
1766015836.165004,28
1766015836.1660101,28
1766015836.16701,27
1766015836.167994,27
1766015836.169014,29
1766015836.170035,30
1766015836.171005,27
1766015836.172035,27
1766015836.172981,29
1766015836.174019,27
1766015836.175095,27
1766015836.176053,27
1766015836.177043,26
1766015836.1780522,27
1766015836.1790452,28
1766015836.180052,27
1766015836.18105,28
1766015836.182065,29
1766015836.183072,28
1766015836.184077,30
1766015836.18508,31
1766015836.186173,27
1766015836.1871738,30
1766015836.1881752,32
1766015836.189089,29
1766015836.190149,29
1766015836.191169,29
1766015836.1921742,27
1766015836.193177,26
1766015836.194177,27
1766015836.195178,28
1766015836.196172,28
1766015836.1971688,27
1766015836.1981719,27
1766015836.199178,28
1766015836.200171,28
1766015836.201173,25
1766015836.202162,27
1766015836.2031791,26
1766015836.204167,27
1766015836.205175,27
1766015836.206172,27
1766015836.207167,27
1766015836.208168,27
1766015836.2092102,27
1766015836.2101839,28
1766015836.2111628,27
1766015836.212117,25
1766015836.213119,26
1766015836.2141562,27
1766015836.215157,24
1766015836.21616,25
1766015836.21712,25
1766015836.218116,26
1766015836.219119,27
1766015836.2201622,26
1766015836.221168,26
1766015836.222165,26
1766015836.223139,27
1766015836.224184,26
1766015836.22516,27
1766015836.2261708,28
1766015836.2271411,26
1766015836.2281952,32
1766015836.229195,29
1766015836.230198,31
1766015836.2311628,31
1766015836.232169,31
1766015836.23316,34
1766015836.2341812,31
1766015836.235181,30
1766015836.2361789,33
1766015836.237212,30
1766015836.238177,31
1766015836.239212,29
1766015836.240175,31
1766015836.241206,32
1766015836.242215,32
1766015836.243235,32
1766015836.2441978,30
1766015836.245225,35
1766015836.24624,33
1766015836.247206,31
1766015836.248234,32
1766015836.2492402,30
1766015836.2502558,30
1766015836.2512481,32
1766015836.2522528,31
1766015836.253249,36
1766015836.254252,36
1766015836.255255,34
1766015836.256264,35
1766015836.2572649,37
1766015836.258254,36
1766015836.25926,35
1766015836.2602649,37
1766015836.261269,35
1766015836.2622788,37
1766015836.263286,37
1766015836.264267,36
1766015836.265287,36
1766015836.266284,38
1766015836.267296,39
1766015836.2682922,38
1766015836.269313,37
1766015836.2703109,35
1766015836.271297,37
1766015836.2723,38
1766015836.273325,35
1766015836.274343,37
1766015836.275326,35
1766015836.276316,35
1766015836.2773151,35
1766015836.2783139,36
1766015836.2793422,36
1766015836.280332,34
1766015836.281334,38
1766015836.282335,36
1766015836.2833412,38
1766015836.284346,37
1766015836.285346,41
1766015836.286347,40
1766015836.287346,40
1766015836.288356,38
1766015836.289356,40
1766015836.2903528,39
1766015836.29137,40
1766015836.292366,40
1766015836.293369,39
1766015836.294365,39
1766015836.295365,42
1766015836.296374,39
1766015836.2973802,41
1766015836.2983758,40
1766015836.299381,38
1766015836.3003871,39
1766015836.301395,39
1766015836.302378,38
1766015836.303392,40
1766015836.304396,40
1766015836.305401,40
1766015836.3063989,40
1766015836.3074088,39
1766015836.308404,40
1766015836.30941,42
1766015836.310409,51
1766015836.311399,55
1766015836.312438,58
1766015836.313416,68
1766015836.3144221,73
1766015836.315423,78
1766015836.316443,84
1766015836.317424,85
1766015836.3184361,82
1766015836.319453,86
1766015836.3204439,82
1766015836.321454,85
1766015836.322443,84
1766015836.32346,88
1766015836.324449,88
1766015836.3254652,86
1766015836.32646,86
1766015836.327455,84
1766015836.328471,84
1766015836.329473,84
1766015836.330473,81
1766015836.33147,81
1766015836.332472,83
1766015836.333472,84
1766015836.3344698,81
1766015836.3354628,84
1766015836.3364859,83
1766015836.3374841,83
1766015836.338482,81
1766015836.339482,81
1766015836.3404858,84
1766015836.34149,80
1766015836.342489,81
1766015836.343487,83
1766015836.344504,81
1766015836.345505,80
1766015836.346517,80
1766015836.34752,81
1766015836.3485382,76
1766015836.349508,80
1766015836.350511,80
1766015836.3515189,80
1766015836.352538,80
1766015836.353538,79
1766015836.3545291,80
1766015836.355535,80
1766015836.356533,83
1766015836.357541,82
1766015836.3585331,79
1766015836.3595688,85
1766015836.360558,82
1766015836.361564,85
1766015836.3625758,89
1766015836.363574,94
1766015836.364575,93
1766015836.365558,96
1766015836.3665779,97
1766015836.367579,99
1766015836.368665,102
1766015836.369649,109
1766015836.370677,121
1766015836.371681,128
1766015836.3726568,135
1766015836.3736699,134
1766015836.3746712,133
1766015836.375678,130
1766015836.376678,130
1766015836.3776798,130
1766015836.378693,128
1766015836.3796961,129
1766015836.380695,127
1766015836.381693,127
1766015836.382705,128
1766015836.383692,123
1766015836.3847082,129
1766015836.385694,127
1766015836.386718,127
1766015836.3877141,126
1766015836.388719,130
1766015836.38972,130
1766015836.3907259,129
1766015836.391731,134
1766015836.392718,134
1766015836.393718,139
1766015836.3947442,143
1766015836.3957481,141
1766015836.3967319,138
1766015836.397739,140
1766015836.39874,140
1766015836.399744,142
1766015836.400754,146
1766015836.401748,152
1766015836.402762,155
1766015836.403763,167
1766015836.404763,169
1766015836.405767,169
1766015836.4067562,170
1766015836.407766,172
1766015836.4087749,178
1766015836.409764,181
1766015836.410795,192
1766015836.411788,191
1766015836.412781,194
1766015836.413776,191
1766015836.4147918,188
1766015836.415788,191
1766015836.4168,187
1766015836.417801,186
1766015836.4188101,187
1766015836.419797,190
1766015836.420799,198
1766015836.4218051,201
1766015836.422806,200
1766015836.4238029,199
1766015836.4248052,196
1766015836.4258041,194
1766015836.426833,193
1766015836.427818,193
1766015836.428833,195
1766015836.429821,202
1766015836.430824,206
1766015836.431836,206
1766015836.432847,210
1766015836.4338298,212
1766015836.434853,210
1766015836.435864,214
1766015836.4368489,211
1766015836.437857,207
1766015836.438852,206
1766015836.4398642,206
1766015836.440872,215
1766015836.4418628,220
1766015836.4428642,222
1766015836.443887,234
1766015836.4448771,240
1766015836.445882,241
1766015836.446892,238
1766015836.447895,237
1766015836.4488928,238
1766015836.449899,231
1766015836.450919,231
1766015836.451888,227
1766015836.4528909,228
1766015836.453894,223
1766015836.454901,223
1766015836.4559119,222
1766015836.456906,221
1766015836.45791,220
1766015836.4589062,215
1766015836.459905,211
1766015836.460914,212
1766015836.461906,214
1766015836.462923,212
1766015836.463938,208
1766015836.464927,208
1766015836.46594,203
1766015836.466934,204
1766015836.467932,199
1766015836.468939,198
1766015836.469941,195
1766015836.470952,193
1766015836.4719539,191
1766015836.4729679,187
1766015836.473968,188
1766015836.474951,189
1766015836.47598,190
1766015836.476973,188
1766015836.477988,187
1766015836.478979,184
1766015836.479986,185
1766015836.480993,181
1766015836.481987,183
1766015836.482988,179
1766015836.483989,176
1766015836.48499,174
1766015836.4859881,178
1766015836.48701,183
1766015836.4880042,188
1766015836.489017,191
1766015836.490017,188
1766015836.491013,187
1766015836.492026,185
1766015836.493025,187
1766015836.4940128,185
1766015836.495028,184
1766015836.496023,183
1766015836.497026,181
1766015836.498026,180
1766015836.4990358,174
1766015836.500043,178
1766015836.501033,175
1766015836.502053,171
1766015836.503047,177
1766015836.504055,190
1766015836.505044,203
1766015836.506044,215
1766015836.5070589,220
1766015836.50807,218
1766015836.509055,222
1766015836.510159,223
1766015836.511057,225
1766015836.5120692,224
1766015836.513083,223
1766015836.514077,218
1766015836.515167,217
1766015836.5161622,215
1766015836.5171762,212
1766015836.5181792,210
1766015836.519167,208
1766015836.520172,207
1766015836.521174,208
1766015836.522174,208
1766015836.523166,208
1766015836.524174,207
1766015836.525169,203
1766015836.52617,204
1766015836.527172,205
1766015836.528173,206
1766015836.529175,204
1766015836.530167,208
1766015836.531169,208
1766015836.5321689,205
1766015836.5331688,206
1766015836.534164,205
1766015836.5351639,204
1766015836.536173,202
1766015836.53717,201
1766015836.5381591,200
1766015836.53917,194
1766015836.5401611,195
1766015836.541166,192
1766015836.542167,190
1766015836.543169,190
1766015836.54416,190
1766015836.545173,190
1766015836.546161,194
1766015836.547169,194
1766015836.548179,194
1766015836.549183,196
1766015836.550185,195
1766015836.551187,191
1766015836.552175,191
1766015836.553174,191
1766015836.5541859,191
1766015836.555186,190
1766015836.556182,188
1766015836.557201,187
1766015836.558196,188
1766015836.559216,183
1766015836.560218,181
1766015836.561208,179
1766015836.5622048,177
1766015836.563201,176
1766015836.564237,171
1766015836.565221,172
1766015836.5662239,169
1766015836.567221,167
1766015836.568213,167
1766015836.5692039,167
1766015836.570215,167
1766015836.5712059,169
1766015836.572213,170
1766015836.573219,170
1766015836.574233,167
1766015836.575211,168
1766015836.576214,164
1766015836.577211,163
1766015836.578232,162
1766015836.57923,162
1766015836.580234,159
1766015836.581234,157
1766015836.582258,157
1766015836.583252,154
1766015836.584228,155
1766015836.585236,152
1766015836.5862532,149
1766015836.587252,147
1766015836.5882812,146
1766015836.5893,145
1766015836.5902889,147
1766015836.591295,146
1766015836.5923042,146
1766015836.593314,142
1766015836.5942998,146
1766015836.595307,147
1766015836.596311,149
1766015836.5973241,158
1766015836.598328,168
1766015836.599327,168
1766015836.60031,169
1766015836.6013272,166
1766015836.602334,168
1766015836.603335,165
1766015836.604347,166
1766015836.6053429,163
1766015836.6063418,163
1766015836.6073449,163
1766015836.608337,163
1766015836.609357,164
1766015836.610364,165
1766015836.611354,165
1766015836.612351,163
1766015836.613355,161
1766015836.6143591,164
1766015836.6153731,161
1766015836.616369,158
1766015836.6173692,157
1766015836.6183722,155
1766015836.619367,153
1766015836.62037,152
1766015836.621384,152
1766015836.622386,150
1766015836.6233878,148
1766015836.624392,145
1766015836.625399,145
1766015836.626391,142
1766015836.627404,140
1766015836.628413,140
1766015836.629411,137
1766015836.6304152,138
1766015836.6314082,133
1766015836.632413,133
1766015836.633427,130
1766015836.634433,128
1766015836.635448,128
1766015836.6364129,122
1766015836.637413,123
1766015836.638436,123
1766015836.639414,119
1766015836.64043,120
1766015836.6414459,118
1766015836.642448,120
1766015836.64345,119
1766015836.6444411,122
1766015836.645448,134
1766015836.646434,137
1766015836.647451,139
1766015836.648461,136
1766015836.64946,140
1766015836.650469,139
1766015836.651458,137
1766015836.652482,136
1766015836.653482,133
1766015836.654464,133
1766015836.655464,132
1766015836.6564748,132
1766015836.657473,135
1766015836.6584692,135
1766015836.6594849,134
1766015836.6604888,130
1766015836.661488,134
1766015836.662484,138
1766015836.663507,137
1766015836.6645088,139
1766015836.665493,137
1766015836.666511,133
1766015836.667517,132
1766015836.668501,133
1766015836.6695051,133
1766015836.670532,129
1766015836.671517,129
1766015836.6725152,127
1766015836.6735308,125
1766015836.674544,126
1766015836.67552,124
1766015836.676515,122
1766015836.6775491,121
1766015836.678569,119
1766015836.679592,119
1766015836.680587,119
1766015836.6815512,116
1766015836.682554,115
1766015836.683552,114
1766015836.684563,114
1766015836.6855638,110
1766015836.6865668,109
1766015836.687563,110
1766015836.6885738,106
1766015836.6895769,108
1766015836.690586,104
1766015836.691565,104
1766015836.692605,105
1766015836.6935759,102
1766015836.694483,99
1766015836.695491,99
1766015836.6965828,100
1766015836.6974971,98
1766015836.698484,99
1766015836.699491,94
1766015836.700489,92
1766015836.701514,93
1766015836.7025962,100
1766015836.7036102,102
1766015836.704614,109
1766015836.705614,114
1766015836.70662,120
1766015836.707602,125
1766015836.708629,126
1766015836.709615,129
1766015836.710634,127
1766015836.711633,128
1766015836.712631,130
1766015836.713635,131
1766015836.714656,130
1766015836.7156281,129
1766015836.71666,131
1766015836.7176409,129
1766015836.7186391,129
1766015836.7196429,128
1766015836.720649,126
1766015836.7216582,125
1766015836.722657,125
1766015836.7236469,125
1766015836.72468,121
1766015836.7256598,121
1766015836.7266712,122
1766015836.7276852,118
1766015836.728676,116
1766015836.729674,117
1766015836.73067,115
1766015836.73167,115
1766015836.732695,113
1766015836.7336729,110
1766015836.734686,111
1766015836.735693,109
1766015836.7366772,109
1766015836.7376761,109
1766015836.738679,108
1766015836.7396648,105
1766015836.740714,106
1766015836.7417111,105
1766015836.742696,103
1766015836.743707,100
1766015836.744705,101
1766015836.7457159,100
1766015836.7467241,101
1766015836.747631,96
1766015836.7487302,100
1766015836.749718,101
1766015836.7507389,101
1766015836.751728,103
1766015836.752751,102
1766015836.7537432,103
1766015836.754751,102
1766015836.7557518,103
1766015836.756743,105
1766015836.7577431,103
1766015836.758751,101
1766015836.759716,104
1766015836.760726,105
1766015836.76173,104
1766015836.762743,105
1766015836.763753,103
1766015836.7647512,103
1766015836.765801,103
1766015836.7667809,103
1766015836.767777,102
1766015836.768776,100
1766015836.7698061,101
1766015836.7707882,101
1766015836.771797,101
1766015836.772799,100
1766015836.773767,99
1766015836.77484,100
1766015836.775717,97
1766015836.776714,97
1766015836.7777338,98
1766015836.778718,97
1766015836.779725,95
1766015836.780726,96
1766015836.7817369,94
1766015836.782735,94
1766015836.783736,93
1766015836.784748,91
1766015836.785758,90
1766015836.786763,92
1766015836.7877572,87
1766015836.788733,90
1766015836.789748,87
1766015836.790731,88
1766015836.791732,86
1766015836.792777,86
1766015836.7937942,89
1766015836.794809,90
1766015836.795798,85
1766015836.7967942,87
1766015836.797805,88
1766015836.798794,81
1766015836.799814,84
1766015836.800812,81
1766015836.8018079,85
1766015836.8028102,85
1766015836.803817,83
1766015836.804827,81
1766015836.805818,78
1766015836.8068218,81
1766015836.807849,81
1766015836.808856,80
1766015836.809847,79
1766015836.810841,83
1766015836.811834,81
1766015836.812843,81
1766015836.8138628,81
1766015836.814791,83
1766015836.8158422,82
1766015836.816842,78
1766015836.817821,81
1766015836.818848,81
1766015836.819842,83
1766015836.820856,86
1766015836.821878,81
1766015836.822863,80
1766015836.8238451,81
1766015836.824866,82
1766015836.8258939,81
1766015836.826884,79
1766015836.827907,80
1766015836.8288882,81
