timestamp,emg_value
1766015791.9623291,87
1766015791.962345,89
1766015791.962357,88
1766015791.962367,85
1766015791.962378,87
1766015791.962389,84
1766015791.9624,84
1766015791.96241,85
1766015791.96242,87
1766015791.96243,83
1766015791.96244,88
1766015791.96245,87
1766015791.9624598,85
1766015791.9624698,86
1766015791.96248,88
1766015791.9624908,90
1766015791.962503,92
1766015791.9625149,95
1766015791.962527,93
1766015791.962537,95
1766015791.962548,93
1766015791.962558,93
1766015791.962568,94
1766015791.9625778,96
1766015791.9625878,93
1766015791.9625988,92
1766015791.96261,92
1766015791.9626188,90
1766015791.962629,89
1766015791.962639,90
1766015791.962649,89
1766015791.9626591,90
1766015791.96268,88
1766015791.962691,88
1766015791.962702,92
1766015791.962712,89
1766015791.962723,89
1766015791.962732,86
1766015791.962743,87
1766015791.962753,85
1766015791.962763,85
1766015791.962775,84
1766015791.962786,82
1766015791.962795,84
1766015791.962806,82
1766015791.962816,81
1766015791.962828,81
1766015791.962838,78
1766015791.962848,79
1766015791.962858,78
1766015791.962868,81
1766015791.962878,75
1766015791.962889,74
1766015791.9629009,80
1766015791.962911,82
1766015791.962921,85
1766015791.962931,88
1766015791.962941,95
1766015791.962951,93
1766015791.962961,98
1766015791.962972,97
1766015791.962982,97
1766015791.9629922,94
1766015791.9630022,95
1766015791.963014,94
1766015791.963031,94
1766015791.963042,95
1766015791.963052,94
1766015791.963062,93
1766015791.963072,98
1766015791.963082,94
1766015791.9630919,92
1766015791.9631019,93
1766015791.9631171,93
1766015791.963128,95
1766015791.963138,91
1766015791.963148,90
1766015791.9631639,91
1766015791.9631739,93
1766015791.963189,86
1766015791.963202,87
1766015791.963212,86
1766015791.963223,86
1766015791.963233,86
1766015791.963243,83
1766015791.963253,83
1766015791.963264,82
1766015791.963275,83
1766015791.963285,83
1766015791.963295,82
1766015791.963306,80
1766015791.963316,82
1766015791.963329,77
1766015791.963341,80
1766015791.963351,82
1766015791.963362,78
1766015791.963372,79
1766015791.963386,76
1766015791.963398,78
1766015791.9634078,77
1766015791.963418,76
1766015791.9634292,76
1766015791.963439,72
1766015791.9634502,77
1766015791.9634602,72
1766015791.96347,73
1766015791.96348,71
1766015791.963491,75
1766015791.963501,71
1766015791.963514,67
1766015791.963525,71
1766015791.963535,69
1766015791.963545,71
1766015791.963555,69
1766015791.963565,73
1766015791.9635751,69
1766015791.9635851,72
1766015791.963595,75
1766015791.963605,83
1766015791.963615,84
1766015791.963625,91
1766015791.963635,89
1766015791.963645,95
1766015791.963655,98
1766015791.963667,101
1766015791.963677,98
1766015791.96369,103
1766015791.9637,99
1766015791.96371,98
1766015791.963728,102
1766015791.9637408,100
1766015791.9637508,99
1766015791.9637609,99
1766015791.9637709,98
1766015791.963783,98
1766015791.9637928,98
1766015791.963804,97
1766015791.9638138,96
1766015791.963824,94
1766015791.963834,95
1766015791.963846,93
1766015791.963856,92
1766015791.963866,91
1766015791.963876,91
1766015791.9638882,93
1766015791.9638982,91
1766015791.9639091,91
1766015791.9639192,88
1766015791.9639292,86
1766015791.9639392,89
1766015791.963951,87
1766015791.963962,89
1766015791.9639711,86
1766015791.963982,87
1766015791.963992,82
1766015791.9640021,86
1766015791.9640121,89
1766015791.964022,83
1766015791.964032,81
1766015791.964042,81
1766015791.964052,83
1766015791.964064,82
1766015791.964077,82
1766015791.964087,81
1766015791.964098,79
1766015791.964108,78
1766015791.964119,80
1766015791.964129,77
1766015791.964139,78
1766015791.964149,78
1766015791.96416,76
1766015791.96417,77
1766015791.964181,79
1766015791.964194,80
1766015791.964206,78
1766015791.9642172,78
1766015791.964227,83
1766015791.964237,83
1766015791.964247,84
1766015791.964257,80
1766015791.964267,81
1766015791.964277,80
1766015791.964288,79
1766015791.964298,79
1766015791.964308,74
1766015791.964318,77
1766015791.964328,77
1766015791.9643378,79
1766015791.9643478,77
1766015791.9643579,78
1766015791.9643679,78
1766015791.964378,81
1766015791.9643881,82
1766015791.9643981,80
1766015791.964412,81
1766015791.964424,79
1766015791.964434,81
1766015791.964444,80
1766015791.964454,81
1766015791.9644642,79
1766015791.9644742,80
1766015791.9644842,79
1766015791.964496,79
1766015791.9645069,78
1766015791.964517,79
1766015791.9645271,78
1766015791.9645371,78
1766015791.9645472,75
1766015791.9645572,75
1766015791.9645681,75
1766015791.9645782,78
1766015791.964588,80
1766015791.9646,77
1766015791.96461,77
1766015791.964622,78
1766015791.9646342,76
1766015791.9646442,75
1766015791.964654,75
1766015791.9646652,73
1766015791.9646752,77
1766015791.964685,76
1766015791.964695,75
1766015791.964705,75
1766015791.964715,76
1766015791.964725,78
1766015791.964735,75
1766015791.964746,73
1766015791.964759,74
1766015791.964771,74
1766015791.964781,75
1766015791.964791,77
1766015791.964801,76
1766015791.964811,79
1766015791.964823,75
1766015791.964833,76
1766015791.964843,78
1766015791.964853,76
1766015791.964863,79
1766015791.964873,85
1766015791.9648829,88
1766015791.9648929,88
1766015791.9649038,86
1766015791.9649138,88
1766015791.9649239,85
1766015791.9649339,86
1766015791.964946,93
1766015791.9649558,90
1766015791.9649658,95
1766015791.964976,93
1766015791.964986,91
1766015791.964996,92
1766015791.965006,92
1766015791.9650161,90
1766015791.9650261,92
1766015791.965036,94
1766015791.965048,89
1766015791.965059,91
1766015791.96507,89
1766015791.96508,89
1766015791.9650922,89
1766015791.9651022,90
1766015791.965112,87
1766015791.965122,86
1766015791.965132,85
1766015791.9651442,89
1766015791.965156,85
1766015791.965167,84
1766015791.965177,85
1766015791.965187,86
1766015791.965198,84
1766015791.965208,84
1766015791.965218,83
1766015791.965228,85
1766015791.965239,83
1766015791.965249,83
1766015791.965259,82
1766015791.965269,83
1766015791.9652789,80
1766015791.9652889,80
1766015791.965299,77
1766015791.965309,75
1766015791.9653199,73
1766015791.96533,72
1766015791.96534,74
1766015791.96535,73
1766015791.9653602,71
1766015791.9653702,75
1766015791.9653802,75
1766015791.96539,74
1766015791.9654,74
1766015791.9654121,74
1766015791.965425,77
1766015791.965436,76
1766015791.965446,75
1766015791.9654558,73
1766015791.965466,71
1766015791.965476,73
1766015791.965486,71
1766015791.965497,71
1766015791.965507,71
1766015791.965517,69
1766015791.965526,73
1766015791.965537,69
1766015791.965547,70
1766015791.965559,68
1766015791.965569,68
1766015791.96558,67
1766015791.96559,67
1766015791.9656,69
1766015791.965612,72
1766015791.965624,72
1766015791.965634,74
1766015791.9656441,77
1766015791.965655,74
1766015791.965665,75
1766015791.965675,80
1766015791.965685,78
1766015791.965695,77
1766015791.965705,78
1766015791.965716,80
1766015791.965727,81
1766015791.9657369,80
1766015791.9657521,82
1766015791.9657621,82
1766015791.965775,80
1766015791.965788,78
1766015791.965798,77
1766015791.9658082,81
1766015791.9658182,79
1766015791.9658291,77
1766015791.9658391,77
1766015791.9658492,79
1766015791.9658592,79
1766015791.965869,82
1766015791.965879,82
1766015791.965888,84
1766015791.965899,82
1766015791.96591,82
1766015791.96592,84
1766015791.96593,83
1766015791.965941,83
1766015791.96595,82
1766015791.96596,81
1766015791.9659698,82
1766015791.965981,77
1766015791.965991,79
1766015791.9660008,77
1766015791.9660108,78
1766015791.966021,80
1766015791.966031,79
1766015791.966042,78
1766015791.966052,75
1766015791.966062,75
1766015791.9660769,77
1766015791.9660869,75
1766015791.9660969,74
1766015791.9661078,74
1766015791.966121,76
1766015791.9661329,75
1766015791.966144,72
1766015791.966156,70
1766015791.9661682,75
1766015791.96618,73
1766015791.966191,74
1766015791.966204,75
1766015791.9662158,81
1766015791.966227,81
1766015791.966239,78
1766015791.966252,76
1766015791.966263,78
1766015791.966275,75
1766015791.9662862,78
1766015791.9662971,78
1766015791.966309,78
1766015791.96632,79
1766015791.9663308,77
1766015791.966343,82
1766015791.966354,80
1766015791.9663649,81
1766015791.9663758,81
1766015791.966388,81
1766015791.966399,77
1766015791.96641,80
1766015791.966422,80
1766015791.966433,79
1766015791.966445,78
1766015791.9664562,73
1766015791.9664671,74
1766015791.9664798,70
1766015791.966492,75
1766015791.966507,75
1766015791.966519,74
1766015791.966531,72
1766015791.9665432,74
1766015791.9665542,74
1766015791.9665651,76
1766015791.9665768,74
1766015791.966588,74
1766015791.966599,72
1766015791.96661,74
1766015791.9666219,72
1766015791.966635,70
1766015791.9666471,72
1766015791.966658,72
1766015791.966669,69
1766015791.9666822,70
1766015791.9666939,70
1766015791.9667048,71
1766015791.966717,71
1766015791.966729,69
1766015791.96674,70
1766015791.9667509,72
1766015791.966764,72
1766015791.9667761,69
1766015791.966787,68
1766015791.966798,68
1766015791.9668102,69
1766015791.9668212,69
1766015791.9668329,66
1766015791.9668438,66
1766015791.966856,69
1766015791.966868,69
1766015791.966882,74
1766015791.966893,76
1766015791.966905,76
1766015791.966916,76
1766015791.9669278,78
1766015791.966939,81
1766015791.966951,79
1766015791.9669619,84
1766015791.9669728,82
1766015791.966985,81
1766015791.966996,81
1766015791.967007,79
1766015791.967019,79
1766015791.96703,78
1766015791.967041,78
1766015791.9670532,78
1766015791.9670641,77
1766015791.967076,75
1766015791.967087,78
1766015791.967099,74
1766015791.9671109,80
1766015791.9671218,77
1766015791.967134,74
1766015791.967145,74
1766015791.967156,78
1766015791.967168,74
1766015791.967179,74
1766015791.96719,72
1766015791.967202,70
1766015791.9672132,75
1766015791.9672241,76
1766015791.967236,77
1766015791.967247,74
1766015791.96726,72
1766015791.967272,76
1766015791.967284,71
1766015791.967295,72
1766015791.967307,73
1766015791.967318,75
1766015791.96733,75
1766015791.967341,75
1766015791.9673522,72
1766015791.967364,73
1766015791.967375,74
1766015791.967387,73
1766015791.967399,72
1766015791.967411,72
1766015791.967423,70
1766015791.967434,71
1766015791.967446,71
1766015791.967458,70
1766015791.9674702,73
1766015791.9674811,73
1766015791.967493,68
1766015791.9675038,67
1766015791.967515,69
1766015791.967526,72
1766015791.9675379,71
1766015791.9675488,68
1766015791.967561,68
1766015791.967572,70
1766015791.967583,67
1766015791.967596,67
1766015791.967608,66
1766015791.9676201,66
1766015791.967633,68
1766015791.967644,72
1766015791.967656,67
1766015791.967668,66
1766015791.967679,69
1766015791.967691,67
1766015791.967702,67
1766015791.967713,68
1766015791.967724,64
1766015791.967736,65
1766015791.9677482,63
1766015791.9677591,67
1766015791.96777,65
1766015791.967781,67
1766015791.967793,65
1766015791.967804,66
1766015791.967815,65
1766015791.9678268,64
1766015791.967839,62
1766015791.96785,65
1766015791.967861,65
1766015791.967873,67
1766015791.967884,64
1766015791.967895,64
1766015791.9679072,61
1766015791.9679182,65
1766015791.96793,64
1766015791.967941,61
1766015791.9679518,62
1766015791.967963,59
1766015791.967975,63
1766015791.9679859,59
1766015791.967999,59
1766015791.968013,58
1766015791.9680269,59
1766015791.9680378,57
1766015791.96805,56
1766015791.968061,58
1766015791.968073,60
1766015791.968085,58
1766015791.968096,58
1766015791.968108,56
1766015791.9681191,59
1766015791.96813,60
1766015791.968142,56
1766015791.968153,59
1766015791.9681652,58
1766015791.9681761,54
1766015791.9681878,57
1766015791.968199,60
1766015791.968211,60
1766015791.968222,57
1766015791.968234,59
1766015791.968245,58
1766015791.968257,60
1766015791.968268,57
1766015791.9682791,59
1766015791.968291,57
1766015791.968302,59
1766015791.9683142,59
1766015791.9683251,62
1766015791.9683368,60
1766015791.9683478,63
1766015791.96836,67
1766015791.968371,62
1766015791.968384,62
1766015791.9683971,64
1766015791.968408,65
1766015791.968419,63
1766015791.96843,67
1766015791.9684422,65
1766015791.9684532,66
1766015791.968464,66
1766015791.9684758,64
1766015791.968487,68
1766015791.968498,65
1766015791.96851,66
1766015791.9685209,62
1766015791.968532,64
1766015791.968544,66
1766015791.968555,65
1766015791.9685671,64
1766015791.968578,63
1766015791.96859,67
1766015791.968601,67
1766015791.9686122,63
1766015791.968624,66
1766015791.9686348,68
1766015791.9686458,76
1766015791.968658,79
1766015791.968669,78
1766015791.9686809,77
1766015791.968692,76
1766015791.968704,79
1766015791.968715,79
1766015791.968726,77
1766015791.9687371,80
1766015791.968749,79
1766015791.968765,78
1766015791.968776,82
1766015791.968788,78
1766015791.9687989,79
1766015791.96881,76
1766015791.968822,77
1766015791.968833,79
1766015791.9688451,81
1766015791.968857,75
1766015791.968868,78
1766015791.9688792,76
1766015791.968891,77
1766015791.9689019,78
1766015791.9689128,76
1766015791.968925,73
1766015791.968936,77
1766015791.968947,78
1766015791.968959,75
1766015791.96897,72
1766015791.968981,71
1766015791.968992,74
1766015791.969004,70
1766015791.9690151,72
1766015791.969026,71
1766015791.969038,72
1766015791.969049,70
1766015791.9690611,69
1766015791.969072,66
1766015791.9690838,68
1766015791.969095,64
1766015791.969106,65
1766015791.9691179,69
1766015791.969147,65
1766015791.969165,68
1766015791.969176,64
1766015791.9691882,65
1766015791.9691992,65
1766015791.9692101,65
1766015791.9692218,63
1766015791.9692328,63
1766015791.969245,63
1766015791.969256,60
1766015791.969268,59
1766015791.96928,61
1766015791.969292,56
1766015791.9693031,60
1766015791.969315,59
1766015791.9693272,58
1766015791.969339,57
1766015791.9693499,55
1766015791.969362,56
1766015791.969373,58
1766015791.969385,59
1766015791.9693959,56
1766015791.969408,58
1766015791.96942,55
1766015791.969432,55
1766015791.969443,58
1766015791.969455,53
1766015791.9694662,55
1766015791.969478,57
1766015791.9694889,56
1766015791.9694998,57
1766015791.969512,55
1766015791.969524,54
1766015791.9695392,52
1766015791.969551,54
1766015791.969562,49
1766015791.969575,54
1766015791.969586,52
1766015791.9695969,50
1766015791.969609,56
1766015791.969621,52
1766015791.969633,55
1766015791.969644,54
1766015791.969656,52
1766015791.969667,53
1766015791.969679,52
1766015791.96969,51
1766015791.969701,49
1766015791.969713,51
1766015791.969725,51
1766015791.9697359,49
1766015791.969748,50
1766015791.969759,49
1766015791.969771,48
1766015791.969782,48
1766015791.969793,51
1766015791.9698071,48
1766015791.969818,49
1766015791.9698298,51
1766015791.969841,47
1766015791.969853,47
1766015791.969864,48
1766015791.9698749,46
1766015791.969887,48
1766015791.969899,48
1766015791.969912,49
1766015791.9699242,49
1766015791.9699352,50
1766015791.9699469,49
1766015791.9699578,47
1766015791.96997,49
1766015791.969981,50
1766015791.9699929,49
1766015791.970004,49
1766015791.970015,48
1766015791.970027,48
1766015791.970038,45
1766015791.97005,45
1766015791.970061,47
1766015791.970072,47
1766015791.9700842,43
1766015791.970096,44
1766015791.9701068,45
1766015791.9701178,46
1766015791.97013,46
1766015791.970141,48
1766015791.970152,47
1766015791.970164,49
1766015791.970176,51
1766015791.970187,54
1766015791.970199,56
1766015791.97021,57
1766015791.970222,55
1766015791.9702332,56
1766015791.9702442,56
1766015791.9702559,52
1766015791.9702668,52
1766015791.970279,55
1766015791.970293,55
1766015791.970304,53
1766015791.970316,51
1766015791.9703271,56
1766015791.970339,51
1766015791.97035,53
1766015791.9703622,55
1766015791.9703739,53
1766015791.9703848,54
1766015791.970397,52
1766015791.970408,56
1766015791.97042,54
1766015791.970431,52
1766015791.970443,54
1766015791.970455,54
1766015791.9704661,52
1766015791.970478,54
1766015791.970489,52
1766015791.9705012,53
1766015791.970512,53
1766015791.9705229,50
1766015791.9705348,50
1766015791.970547,51
1766015791.970558,51
1766015791.97057,53
1766015791.970581,51
1766015791.970593,52
1766015791.970604,54
1766015791.9706151,54
1766015791.970627,49
1766015791.970638,53
1766015791.9706502,49
1766015791.9706628,49
1766015791.970675,52
1766015791.970686,52
1766015791.9706979,53
1766015791.97071,50
1766015791.970721,55
1766015791.9707332,52
1766015791.9707441,55
1766015791.970756,54
1766015791.970767,50
1766015791.970779,56
1766015791.97079,48
1766015791.9708018,52
1766015791.970813,54
1766015791.970828,55
1766015791.97084,53
1766015791.9708512,56
1766015791.9708622,53
1766015791.970874,55
1766015791.970885,54
1766015791.970897,54
1766015791.970908,53
1766015791.9709198,53
1766015791.970932,52
1766015791.970943,53
1766015791.970955,56
1766015791.970966,54
1766015791.970978,57
1766015791.970989,55
1766015791.9710011,58
1766015791.971013,57
1766015791.9710238,58
1766015791.9710348,57
1766015791.971049,56
1766015791.971061,56
1766015791.971072,60
1766015791.971084,59
1766015791.971096,54
1766015791.9711082,57
1766015791.9711192,59
1766015791.9711301,56
1766015791.9711418,58
1766015791.9711528,57
1766015791.971165,57
1766015791.971176,58
1766015791.9711869,60
1766015791.971199,58
1766015791.97121,56
1766015791.971222,58
1766015791.9712331,58
1766015791.971245,57
1766015791.971256,57
1766015791.971267,57
1766015791.9712791,58
1766015791.9712908,59
1766015791.9713018,57
1766015791.971314,60
1766015791.971325,59
1766015791.9713368,60
1766015791.971349,63
1766015791.97136,63
1766015791.9713721,59
1766015791.971384,58
1766015791.971395,62
1766015791.971406,59
1766015791.9714189,63
1766015791.971431,62
1766015791.971442,64
1766015791.971454,59
1766015791.9714649,63
1766015791.971477,62
1766015791.971488,64
1766015791.971499,62
1766015791.9715111,60
1766015791.971522,60
1766015791.971534,60
1766015791.971545,64
1766015791.9715562,61
1766015791.971568,60
1766015791.9715788,60
1766015791.971591,62
1766015791.971602,64
1766015791.971614,59
1766015791.9716249,61
1766015791.971636,61
1766015791.971648,63
1766015791.9716601,63
1766015791.971671,60
1766015791.971682,65
1766015791.971694,62
1766015791.9717052,67
1766015791.9717162,66
1766015791.9717278,67
1766015791.9717388,64
1766015791.971751,66
1766015791.971763,63
1766015791.9717739,64
1766015791.971785,65
1766015791.9717991,63
1766015791.97181,64
1766015791.9718232,62
1766015791.9718359,62
1766015791.971849,62
1766015791.971862,60
1766015791.9718752,65
1766015791.971888,66
1766015791.971901,64
1766015791.971914,63
1766015791.971927,63
1766015791.97194,64
1766015791.9719539,62
1766015791.971967,61
1766015791.97198,66
1766015791.971993,62
1766015791.972009,63
1766015791.972022,63
1766015791.972034,61
1766015791.9720478,64
1766015791.9720619,63
1766015791.972075,58
1766015791.972088,60
1766015791.9721012,64
1766015791.9721138,61
1766015791.9721332,61
1766015791.972147,61
1766015791.97216,59
1766015791.972173,63
1766015791.972186,61
1766015791.972199,61
1766015791.972213,62
1766015791.9722261,64
1766015791.9722419,63
1766015791.972255,64
1766015791.972268,65
1766015791.9722822,61
1766015791.9722948,66
1766015791.972308,67
1766015791.972321,67
1766015791.9723341,67
1766015791.9723468,70
1766015791.97236,67
1766015791.972373,67
1766015791.972387,68
1766015791.9724002,69
1766015791.9724128,69
1766015791.972426,69
1766015791.972439,68
1766015791.9724522,68
1766015791.972466,68
1766015791.9724789,70
1766015791.972492,69
1766015791.972505,69
1766015791.972518,67
1766015791.9725308,67
1766015791.972545,65
1766015791.972558,69
1766015791.972571,71
1766015791.972584,66
1766015791.972597,66
1766015791.97261,65
1766015791.972623,68
1766015791.972636,68
1766015791.97265,66
1766015791.972664,66
1766015791.972678,67
1766015791.972692,67
1766015791.9727051,68
1766015791.972718,68
1766015791.9727309,65
1766015791.972744,66
1766015791.972757,66
1766015791.97277,67
1766015791.972784,67
1766015791.972797,67
1766015791.97281,65
1766015791.9728231,68
1766015791.972836,70
1766015791.972849,65
1766015791.972863,67
1766015791.972876,67
1766015791.9728892,65
1766015791.9729018,69
1766015791.972916,64
1766015791.972929,66
1766015791.972942,64
1766015791.972954,65
1766015791.9729679,65
1766015791.972981,67
1766015791.972994,65
1766015791.9730072,65
1766015791.9730198,68
1766015791.973033,65
1766015791.9730508,65
1766015791.973064,61
1766015791.973077,61
1766015791.9730911,65
1766015791.973106,59
1766015791.973119,63
1766015791.973133,64
1766015791.973144,64
1766015791.973155,67
1766015791.973166,65
1766015791.9731781,64
1766015791.973189,66
1766015791.9732008,65
1766015791.973212,60
1766015791.973224,61
1766015791.973236,66
1766015791.973247,65
1766015791.973258,62
1766015791.97327,63
1766015791.973281,62
1766015791.973292,61
1766015791.973304,65
1766015791.973315,65
1766015791.9733272,64
1766015791.9733381,65
1766015791.973349,63
1766015791.9733608,62
1766015791.973372,64
1766015791.973383,63
1766015791.9733949,65
1766015791.973407,65
1766015791.973425,63
1766015791.9734368,64
1766015791.973449,68
1766015791.973462,66
1766015791.973474,65
1766015791.9734862,67
1766015791.9734988,68
1766015791.9735098,67
1766015791.973521,67
1766015791.973533,62
1766015791.973545,65
1766015791.973557,63
1766015791.973568,62
1766015791.973579,61
1766015791.973591,61
1766015791.973602,63
1766015791.973613,61
1766015791.9736252,63
1766015791.9736362,61
1766015791.9736478,61
1766015791.9736588,63
1766015791.97367,62
1766015791.973682,64
1766015791.973693,61
1766015791.973705,65
1766015791.973716,61
1766015791.973728,65
1766015791.973739,64
1766015791.97375,65
1766015791.973762,65
1766015791.973773,64
1766015791.9737852,65
1766015791.9737961,65
1766015791.973808,64
1766015791.9738188,67
1766015791.973831,66
1766015791.973842,64
1766015791.9738529,65
1766015791.973867,65
1766015791.973879,65
1766015791.97389,66
1766015791.973901,66
1766015791.9739132,63
1766015791.9739242,66
1766015791.9739351,64
1766015791.9739468,64
1766015791.9739578,65
1766015791.973969,61
1766015791.973981,62
1766015791.9739919,62
1766015791.974004,65
1766015791.974015,63
1766015791.974026,62
1766015791.9740381,61
1766015791.974049,61
1766015791.974061,61
1766015791.974072,63
1766015791.9740841,65
1766015791.974095,63
1766015791.974106,62
1766015791.974118,65
1766015791.974129,60
1766015791.974141,64
1766015791.9741518,60
1766015791.974164,61
1766015791.974175,64
1766015791.974186,61
1766015791.974198,59
1766015791.974209,60
1766015791.974221,59
1766015791.9742348,61
1766015791.974253,59
1766015791.974265,59
1766015791.974276,58
1766015791.974287,63
1766015791.974299,57
1766015791.97431,61
1766015791.9743218,62
1766015791.9743328,61
1766015791.974344,59
1766015791.974356,60
1766015791.974367,60
1766015791.9743779,60
1766015791.97439,58
1766015791.974401,64
1766015791.974412,57
1766015791.9744241,59
1766015791.974435,59
1766015791.974447,61
1766015791.9744582,59
1766015791.97447,59
1766015791.9744809,57
1766015791.9744918,61
1766015791.9745028,60
1766015791.974515,60
1766015791.974527,58
1766015791.974538,58
1766015791.974549,59
1766015791.974561,60
1766015791.974572,58
1766015791.9745831,58
1766015791.974594,58
1766015791.974606,56
1766015791.974619,57
1766015791.9746308,58
1766015791.974643,59
1766015791.974654,61
1766015791.9746659,57
1766015791.974677,58
1766015791.974689,59
1766015791.9747,60
1766015791.974711,56
1766015791.974723,57
1766015791.974734,56
1766015791.9747462,55
1766015791.974758,59
1766015791.9747689,57
1766015791.9747798,58
1766015791.974792,57
1766015791.974803,58
1766015791.974814,55
1766015791.974825,58
1766015791.974837,54
1766015791.974848,55
1766015791.974859,57
1766015791.9748712,56
1766015791.9748821,54
1766015791.974894,54
1766015791.974905,57
1766015791.974916,56
1766015791.974928,56
1766015791.974941,54
1766015791.974952,55
1766015791.974963,51
1766015791.9749749,53
1766015791.974987,53
1766015791.9750001,51
1766015791.975012,51
1766015791.975023,54
1766015791.975035,52
1766015791.975046,55
1766015791.975057,51
1766015791.975069,51
1766015791.97508,51
1766015791.975091,48
1766015791.975103,51
1766015791.9751139,53
1766015791.975126,51
1766015791.975137,51
1766015791.9751492,51
1766015791.9751601,52
1766015791.975172,53
1766015791.975183,50
1766015791.975195,51
1766015791.975206,49
1766015791.9752169,52
1766015791.975229,50
1766015791.97524,49
1766015791.975252,48
1766015791.9752629,47
1766015791.975275,47
1766015791.975286,48
1766015791.975297,47
1766015791.975308,45
1766015791.97532,46
1766015791.975331,49
1766015791.975343,49
1766015791.975355,46
1766015791.975368,41
1766015791.97538,44
1766015791.975391,43
1766015791.975403,46
1766015791.975415,46
1766015791.975426,41
1766015791.9754372,44
1766015791.975449,41
1766015791.97546,40
1766015791.9754722,42
1766015791.975483,44
1766015791.9754949,44
1766015791.9755058,43
1766015791.975517,44
1766015791.975529,43
1766015791.97554,44
1766015791.975552,44
1766015791.975564,44
1766015791.975575,41
1766015791.975586,43
1766015791.975598,39
1766015791.97561,42
1766015791.9756212,42
1766015791.975633,44
1766015791.9756439,42
1766015791.9756548,43
1766015791.9756658,43
1766015791.975678,42
1766015791.97569,41
1766015791.975701,42
1766015791.975712,41
1766015791.975724,38
1766015791.975735,42
1766015791.975749,40
1766015791.97576,38
1766015791.975772,40
1766015791.9757838,38
1766015791.975795,39
1766015791.975806,39
1766015791.975818,35
1766015791.975829,38
1766015791.975841,35
1766015791.975852,36
1766015791.9758642,32
1766015791.9758751,38
1766015791.975887,36
1766015791.975898,36
1766015791.97591,37
1766015791.975921,36
1766015791.975932,33
1766015791.975944,36
1766015791.975955,34
1766015791.975966,35
1766015791.975978,35
1766015791.975989,34
1766015791.976001,33
1766015791.976012,35
1766015791.976023,35
1766015791.976035,36
1766015791.976046,33
1766015791.976057,37
1766015791.9760692,33
1766015791.97608,34
1766015791.9760919,32
1766015791.9761028,36
1766015791.976116,33
1766015791.976128,34
1766015791.97614,28
1766015791.976151,32
1766015791.9761631,35
1766015791.976174,34
1766015791.976185,33
1766015791.976197,34
1766015791.976208,29
1766015791.97622,32
1766015791.9762309,33
1766015791.976243,29
1766015791.976254,32
1766015791.976266,30
1766015791.976278,34
1766015791.976289,29
1766015791.976301,32
1766015791.9763122,28
1766015791.976324,31
1766015791.976335,29
1766015791.976347,29
1766015791.976358,30
1766015791.9763699,27
1766015791.9763808,31
1766015791.976392,31
1766015791.976404,30
1766015791.976416,28
1766015791.976427,30
1766015791.976438,28
1766015791.97645,31
1766015791.9764612,28
1766015791.976473,31
1766015791.976485,26
1766015791.9764988,32
1766015791.976511,28
1766015791.976523,30
1766015791.9765341,26
1766015791.976545,31
1766015791.976557,30
1766015791.976568,26
1766015791.9765801,28
1766015791.976591,27
1766015791.976605,23
1766015791.976616,28
1766015791.976628,25
1766015791.976639,27
1766015791.97665,24
1766015791.976661,25
1766015791.9766731,25
1766015791.976684,26
1766015791.976696,24
1766015791.9767091,26
1766015791.9767208,28
1766015791.976732,27
1766015791.976744,28
1766015791.9767559,26
1766015791.976767,28
1766015791.976779,26
1766015791.97679,26
1766015791.976802,27
1766015791.976813,27
1766015791.976824,27
1766015791.9768362,28
1766015791.976848,26
1766015791.9768589,28
1766015791.976872,25
1766015791.976886,28
1766015791.9768991,29
1766015791.9769118,26
1766015791.976924,26
1766015791.976935,26
1766015791.9769459,27
1766015791.976958,29
1766015791.97697,29
1766015791.976982,29
1766015791.976993,30
1766015791.977005,28
1766015791.977016,26
1766015791.9770281,28
1766015791.977039,27
1766015791.9770508,29
1766015791.977062,29
1766015791.977076,27
1766015791.977088,28
1766015791.977099,26
1766015791.977109,30
1766015791.977119,29
1766015791.977129,29
1766015791.97714,30
1766015791.97715,28
1766015791.97716,31
1766015791.97717,29
1766015791.977181,32
1766015791.977191,31
1766015791.977201,28
1766015791.977211,27
1766015791.977223,30
1766015791.977233,31
1766015791.977247,30
1766015791.977257,28
1766015791.977267,30
1766015791.977278,31
1766015791.977288,30
1766015791.977298,30
1766015791.9773078,31
1766015791.9773178,29
1766015791.9773288,28
1766015791.9773388,33
1766015791.977349,32
1766015791.977359,32
1766015791.97737,32
1766015791.97738,31
1766015791.97739,30
1766015791.977401,35
1766015791.977412,31
1766015791.977422,36
1766015791.977432,36
1766015791.977442,32
1766015791.977453,34
1766015791.977463,34
1766015791.977473,31
1766015791.977483,33
1766015791.977493,32
1766015791.977503,33
1766015791.977514,33
1766015791.977524,33
1766015791.977535,32
1766015791.977545,35
1766015791.977555,34
1766015791.9775648,35
1766015791.977576,30
1766015791.977588,34
1766015791.977598,30
1766015791.977608,32
1766015791.977618,30
1766015791.977628,32
1766015791.977639,34
1766015791.977649,34
1766015791.977659,31
1766015791.9776692,34
1766015791.977679,35
1766015791.977689,33
1766015791.9777,32
1766015791.97771,33
1766015791.97772,34
1766015791.97773,34
1766015791.97774,33
1766015791.97775,32
1766015791.977761,34
1766015791.977771,34
1766015791.977781,36
1766015791.977791,34
1766015791.9778008,34
1766015791.9778109,34
1766015791.977822,32
1766015791.9778318,35
1766015791.9778419,34
1766015791.9778519,35
1766015791.977864,35
1766015791.9778738,35
1766015791.9778838,38
1766015791.9778938,35
1766015791.9779048,34
1766015791.9779148,36
1766015791.977927,32
1766015791.977937,36
1766015791.977947,32
1766015791.977957,35
1766015791.9779682,34
1766015791.9779782,38
1766015791.977988,34
1766015791.977998,34
1766015791.978009,38
1766015791.978019,39
1766015791.978029,33
1766015791.978039,35
1766015791.978049,39
1766015791.978059,41
1766015791.978069,38
1766015791.978079,37
1766015791.9780889,39
1766015791.9781,37
1766015791.9781098,36
1766015791.9781199,35
1766015791.9781299,37
1766015791.9781399,39
1766015791.9781508,35
1766015791.9781609,35
1766015791.978173,38
1766015791.978183,39
1766015791.9781928,39
1766015791.9782028,38
1766015791.9782138,39
1766015791.978224,37
1766015791.9782348,38
1766015791.978245,38
1766015791.978264,40
1766015791.978274,37
1766015791.9782841,39
1766015791.9782941,39
1766015791.978305,38
1766015791.978315,37
1766015791.978327,39
1766015791.978337,42
1766015791.978347,42
1766015791.978357,40
1766015791.978368,40
1766015791.978378,40
1766015791.978388,38
1766015791.9783978,37
1766015791.978409,41
1766015791.9784188,44
1766015791.97843,41
1766015791.97844,38
1766015791.9784498,41
1766015791.978461,41
1766015791.9784708,41
1766015791.9784808,39
1766015791.9784908,38
1766015791.978501,39
1766015791.978511,41
1766015791.978521,40
1766015791.9785311,37
1766015791.978542,38
1766015791.978552,42
1766015791.978562,40
1766015791.9785721,43
1766015791.978582,42
1766015791.978593,41
1766015791.978606,41
1766015791.978616,40
1766015791.978626,41
1766015791.978636,42
1766015791.978646,42
1766015791.978657,42
1766015791.978667,40
1766015791.978677,41
1766015791.978687,44
1766015791.978697,43
1766015791.978708,40
1766015791.978718,46
1766015791.9787278,42
1766015791.9787378,43
1766015791.9787478,44
1766015791.9787579,44
1766015791.9787679,41
1766015791.9787788,44
1766015791.978789,42
1766015791.978799,45
1766015791.978809,42
1766015791.9788191,42
1766015791.9788291,42
1766015791.97884,42
1766015791.9788501,43
1766015791.9788601,41
1766015791.97887,48
1766015791.9788811,45
1766015791.978891,43
1766015791.978901,42
1766015791.978911,43
1766015791.978921,42
1766015791.978933,44
1766015791.9789429,44
1766015791.978953,44
1766015791.9789639,42
1766015791.9789739,42
1766015791.9789839,44
1766015791.978994,46
1766015791.979094,43
1766015791.979116,45
1766015791.97913,44
1766015791.979143,45
1766015791.979156,43
1766015791.97917,43
1766015791.9791832,45
1766015791.979197,41
1766015791.97921,45
1766015791.979223,44
1766015791.9792361,44
1766015791.979249,47
1766015791.979261,45
1766015791.979274,45
1766015791.9792871,45
1766015791.9793,43
1766015791.979313,43
1766015791.979326,44
1766015791.979338,42
1766015791.979351,45
1766015791.9793642,46
1766015791.9793768,44
1766015791.979389,45
1766015791.979402,46
1766015791.979415,47
1766015791.979428,46
1766015791.9794471,43
1766015791.97946,44
1766015791.9794729,44
1766015791.979557,45
1766015791.979615,44
1766015791.9796329,48
1766015791.979647,48
1766015791.979661,45
1766015791.979674,45
1766015791.979687,47
1766015791.9797518,46
1766015791.979769,44
1766015791.9797919,44
1766015791.9798028,46
1766015791.979855,42
1766015791.9798741,46
1766015791.9799318,45
1766015791.979945,45
1766015791.979986,46
1766015791.980001,46
1766015791.9800498,43
1766015791.980064,42
1766015791.980077,43
1766015791.9800901,46
1766015791.980103,44
1766015791.980194,47
1766015791.980205,46
1766015791.9802518,47
1766015791.9802969,44
1766015791.980308,42
1766015791.980319,47
1766015791.980329,43
1766015791.9803462,49
1766015791.9803572,44
1766015791.980368,44
1766015791.9803782,47
1766015791.980389,45
1766015791.9803991,41
1766015791.98041,45
1766015791.98042,40
1766015791.9804559,47
1766015791.980492,46
1766015791.9805062,43
1766015791.980542,45
1766015791.980553,46
1766015791.980566,41
1766015791.980576,43
1766015791.9805892,46
1766015791.9806,43
1766015791.9806132,44
1766015791.980623,44
1766015791.9806342,45
1766015791.980644,45
1766015791.980654,42
1766015791.980712,43
1766015791.9807382,43
1766015791.9807491,46
1766015791.9807591,41
1766015791.980769,42
1766015791.980788,43
1766015791.980799,40
1766015791.980809,43
1766015791.9808278,41
1766015791.9808378,42
1766015791.980875,41
1766015791.9808981,44
1766015791.980913,44
1766015791.980926,41
1766015791.980939,42
1766015791.980951,43
1766015791.9809651,43
1766015791.980978,43
1766015791.98099,42
1766015791.981003,41
1766015791.981017,44
1766015791.98103,44
1766015791.981062,44
1766015791.981098,42
1766015791.9811132,42
1766015791.9811258,45
1766015791.981139,44
1766015791.981152,42
1766015791.9811652,43
1766015791.981178,41
1766015791.98119,46
1766015791.9812028,44
1766015791.981216,43
1766015791.981229,44
1766015791.98126,44
1766015791.9812732,40
1766015791.9812858,43
1766015791.981299,43
1766015791.981312,40
1766015791.981324,43
1766015791.981337,43
1766015791.98135,41
1766015791.981364,42
1766015791.9813771,42
1766015791.981395,45
1766015791.981408,44
1766015791.981421,43
1766015791.981434,40
1766015791.9814458,39
1766015791.981459,42
1766015791.981472,42
1766015791.981484,40
1766015791.981497,41
1766015791.98151,41
1766015791.9815218,42
1766015791.981535,41
1766015791.981548,41
1766015791.9815612,40
1766015791.981573,41
1766015791.981586,41
1766015791.981598,42
1766015791.981611,43
1766015791.981623,41
1766015791.981636,40
1766015791.981648,39
1766015791.9816608,37
1766015791.981673,41
1766015791.981686,44
1766015791.981698,39
1766015791.9817111,40
1766015791.9817238,41
1766015791.981736,40
1766015791.981749,42
1766015791.981761,37
1766015791.981774,42
1766015791.981786,42
1766015791.981801,41
1766015791.981815,42
1766015791.9818282,43
1766015791.98184,42
1766015791.981853,37
1766015791.981866,40
1766015791.981878,37
1766015791.9818912,37
1766015791.981951,37
1766015791.981964,38
1766015791.981977,38
1766015791.9819899,37
1766015791.982003,37
1766015791.982016,37
1766015791.982028,34
1766015791.9820411,36
1766015791.982054,40
1766015791.9820669,38
1766015791.98208,40
1766015791.9820921,39
1766015791.982105,38
1766015791.982118,37
1766015791.9821298,35
1766015791.982143,37
1766015791.982155,34
1766015791.982168,37
1766015791.98218,36
1766015791.982193,37
1766015791.9822059,35
1766015791.982218,37
1766015791.9822311,40
1766015791.982243,37
1766015791.9822562,39
1766015791.98228,37
1766015791.982293,37
1766015791.982306,36
1766015791.9823182,37
1766015791.9823308,34
1766015791.982344,36
1766015791.982356,35
1766015791.982369,32
1766015791.982381,35
1766015791.9823942,37
1766015791.9824069,34
1766015791.982419,35
1766015791.982432,35
1766015791.982444,38
1766015791.9824572,32
1766015791.982469,37
1766015791.982482,35
1766015791.982495,35
1766015791.982507,36
1766015791.98252,37
1766015791.9825332,34
1766015791.982545,35
1766015791.9825568,33
1766015791.98257,36
1766015791.982583,35
1766015791.9825962,34
1766015791.9826088,38
1766015791.982621,36
1766015791.982634,35
1766015791.982646,36
1766015791.982659,34
1766015791.982671,35
1766015791.982684,33
1766015791.9827,36
1766015791.982713,35
1766015791.9827259,36
1766015791.982738,36
1766015791.982751,35
1766015791.982764,36
1766015791.9827762,35
1766015791.982789,36
1766015791.982801,32
1766015791.9828138,33
1766015791.982826,36
1766015791.982839,31
1766015791.982851,36
1766015791.9828632,34
1766015791.982878,33
1766015791.98289,34
1766015791.982903,34
1766015791.9829152,32
1766015791.9829278,33
1766015791.98294,29
1766015791.982953,35
1766015791.982966,35
1766015791.982976,31
1766015791.982987,33
1766015791.982997,31
1766015791.983008,34
1766015791.983019,29
1766015791.983029,33
1766015791.98304,35
1766015791.983051,30
1766015791.983061,30
1766015791.983072,32
1766015791.983082,29
1766015791.983097,28
1766015791.983108,30
1766015791.983119,33
1766015791.983129,34
1766015791.98314,32
1766015791.98315,31
1766015791.983161,32
1766015791.983171,30
1766015791.9831822,31
1766015791.983192,32
1766015791.983202,32
1766015791.983213,31
1766015791.983223,32
1766015791.9832351,29
1766015791.983246,27
1766015791.983256,29
1766015791.983267,31
1766015791.983277,29
1766015791.983288,31
1766015791.983298,33
1766015791.983308,29
1766015791.983319,33
1766015791.983329,33
1766015791.98334,32
1766015791.983351,29
1766015791.983361,32
1766015791.983372,30
1766015791.983383,33
1766015791.9833941,26
1766015791.983405,27
1766015791.9834151,30
1766015791.9834251,27
1766015791.9834392,31
1766015791.983451,29
1766015791.9834611,32
1766015791.983472,30
1766015791.9834828,31
1766015791.983493,31
1766015791.9835038,27
1766015791.983514,29
1766015791.983525,31
1766015791.983535,29
1766015791.983546,28
1766015791.9835572,30
1766015791.983567,30
1766015791.9835782,30
1766015791.9835892,32
1766015791.9835992,26
1766015791.9836102,31
1766015791.9836202,27
1766015791.9836311,28
1766015791.9836411,27
1766015791.983652,29
1766015791.9836621,31
1766015791.983673,27
1766015791.983684,28
1766015791.983695,29
1766015791.983705,29
1766015791.983716,28
1766015791.983726,28
1766015791.983737,32
1766015791.983747,31
1766015791.983758,26
1766015791.9837692,24
1766015791.983779,28
1766015791.9837928,27
1766015791.983805,28
1766015791.983816,27
1766015791.983826,30
1766015791.983837,27
1766015791.983847,28
1766015791.9838579,30
1766015791.9838688,26
1766015791.9838789,28
1766015791.9838898,27
1766015791.9838998,27
1766015791.9839108,28
1766015791.9839208,29
1766015791.983932,27
1766015791.9839418,27
1766015791.983953,27
1766015791.9839628,27
1766015791.983974,27
1766015791.9839842,25
1766015791.983995,25
1766015791.984006,26
1766015791.984016,28
1766015791.984027,28
1766015791.9840372,25
1766015791.9840481,26
1766015791.9840589,28
1766015791.984069,28
1766015791.9840791,29
1766015791.98409,29
1766015791.984101,25
1766015791.984111,27
1766015791.984122,28
1766015791.984133,27
1766015791.9841459,27
1766015791.984158,25
1766015791.984168,23
1766015791.984179,24
1766015791.984189,26
1766015791.9842,24
1766015791.984211,26
1766015791.984221,24
1766015791.984232,27
1766015791.984242,23
1766015791.984253,24
1766015791.984264,21
1766015791.984274,27
1766015791.9842849,24
1766015791.984295,23
1766015791.9843059,25
1766015791.9843168,26
1766015791.9843268,23
1766015791.9843378,25
1766015791.9843478,23
1766015791.984359,23
1766015791.9843688,25
1766015791.98438,22
1766015791.9843898,22
1766015791.984401,22
1766015791.9844108,26
1766015791.984422,22
1766015791.9844322,28
1766015791.984443,22
1766015791.9844532,27
1766015791.984464,23
1766015791.9844742,21
1766015791.9844851,24
1766015791.984499,22
1766015791.98451,26
1766015791.984521,23
1766015791.984531,26
1766015791.984542,22
1766015791.984552,21
1766015791.9845629,22
1766015791.984573,24
1766015791.9845839,21
1766015791.9845939,23
1766015791.9846048,20
1766015791.9846148,27
1766015791.9846258,23
1766015791.9846358,23
1766015791.9846468,24
1766015791.9846568,23
1766015791.984668,25
1766015791.9846778,23
1766015791.984689,24
1766015791.9846988,21
1766015791.98471,20
1766015791.9847198,23
1766015791.984731,25
1766015791.9847412,23
1766015791.9847522,23
1766015791.9847622,23
1766015791.9847732,24
1766015791.984784,23
1766015791.9847941,23
1766015791.984805,24
1766015791.984816,24
1766015791.984826,22
1766015791.984837,22
1766015791.984851,22
1766015791.9848619,22
1766015791.984873,25
1766015791.9848828,23
1766015791.9848928,19
1766015791.984904,26
1766015791.984915,22
1766015791.984926,22
1766015791.984936,21
1766015791.984947,21
1766015791.984957,23
1766015791.984968,22
1766015791.984979,21
1766015791.984989,19
1766015791.985,24
1766015791.98501,22
1766015791.985022,23
1766015791.9850318,22
1766015791.985043,21
1766015791.9850528,22
1766015791.985064,20
1766015791.985075,20
1766015791.985085,20
1766015791.985096,23
1766015791.985107,22
1766015791.985117,21
1766015791.985128,25
1766015791.985138,21
1766015791.985149,20
1766015791.985159,18
1766015791.98517,18
1766015791.98518,21
1766015791.985196,18
1766015791.985208,19
1766015791.985219,20
1766015791.985229,22
1766015791.98524,22
1766015791.98525,20
1766015791.985261,21
1766015791.985271,22
1766015791.985282,23
1766015791.9852931,20
1766015791.985303,23
1766015791.9853141,21
1766015791.985325,24
1766015791.985335,21
1766015791.985346,22
1766015791.985356,22
1766015791.985367,23
1766015791.985377,20
1766015791.985388,22
1766015791.985399,17
1766015791.985409,23
1766015791.98542,22
1766015791.98543,23
1766015791.985441,18
1766015791.985452,22
1766015791.985462,22
1766015791.985473,18
1766015791.985483,19
1766015791.985493,26
1766015791.985504,23
1766015791.985515,23
1766015791.985525,22
1766015791.985536,22
1766015791.985549,21
1766015791.9855611,23
1766015791.9855711,21
1766015791.985582,20
1766015791.9855921,23
1766015791.985603,23
1766015791.985613,20
1766015791.985624,19
1766015791.985636,20
1766015791.9856472,20
1766015791.985657,21
1766015791.9856682,25
1766015791.9856782,21
1766015791.9856892,22
1766015791.9857001,24
1766015791.9857101,23
1766015791.985721,20
1766015791.9857311,23
1766015791.985742,21
1766015791.985753,21
1766015791.985763,20
1766015791.985774,26
1766015791.985784,22
1766015791.985795,25
1766015791.985806,20
1766015791.985816,20
1766015791.985827,25
1766015791.9858382,23
1766015791.9858491,21
1766015791.9858592,26
1766015791.9858701,24
1766015791.9858801,22
1766015791.985891,23
1766015791.985905,22
1766015791.985916,19
1766015791.9859269,23
1766015791.9859378,21
1766015791.985949,22
1766015791.98596,23
1766015791.98597,21
1766015791.985981,23
1766015791.985992,20
1766015791.986002,21
1766015791.986013,24
1766015791.986023,22
1766015791.986034,23
1766015791.986045,20
1766015791.9860559,22
1766015791.9860659,27
1766015791.9860768,23
1766015791.9860868,24
1766015791.9860978,23
1766015791.9861078,21
1766015791.9861188,24
1766015791.98613,24
1766015791.98614,23
1766015791.986151,22
1766015791.986162,26
1766015791.986172,24
1766015791.986183,24
1766015791.986193,21
1766015791.986204,22
1766015791.9862149,25
1766015791.9862258,25
1766015791.9862368,22
1766015791.98625,21
1766015791.986261,25
1766015791.986272,23
1766015791.9862819,24
1766015791.986293,22
1766015791.986303,25
1766015791.986314,26
1766015791.986325,22
1766015791.986336,22
1766015791.986346,22
1766015791.986357,26
1766015791.986367,24
1766015791.986378,24
1766015791.986389,26
1766015791.9864,21
1766015791.98641,25
1766015791.986421,23
1766015791.986432,23
1766015791.986442,24
1766015791.986453,24
1766015791.986464,22
1766015791.986474,22
1766015791.986485,24
1766015791.986496,24
1766015791.986507,23
1766015791.986517,24
1766015791.986528,23
1766015791.9865391,24
1766015791.986549,23
1766015791.98656,25
1766015791.98657,22
1766015791.986581,25
1766015791.986592,23
1766015791.986604,22
1766015791.986617,25
1766015791.986627,24
1766015791.986638,24
1766015791.986648,22
1766015791.986659,21
1766015791.986669,26
1766015791.98668,25
1766015791.98669,23
1766015791.986701,23
1766015791.986711,23
1766015791.986722,23
1766015791.986733,21
1766015791.986743,24
1766015791.986754,24
1766015791.986764,22
1766015791.986775,23
1766015791.9867861,23
1766015791.986797,21
1766015791.9870012,21
1766015791.9870121,25
1766015791.987023,21
1766015791.987034,23
1766015791.987045,22
1766015791.987056,26
1766015791.987066,23
1766015791.9870772,22
1766015791.987088,25
1766015791.987099,26
1766015791.98711,21
1766015791.9871202,21
1766015791.9871309,21
1766015791.9871418,22
1766015791.987156,25
1766015791.987168,24
1766015791.98718,22
1766015791.987191,23
1766015791.987202,22
1766015791.987214,28
1766015791.987225,23
1766015791.9872372,24
1766015791.9872482,22
1766015791.987259,24
1766015791.9872699,25
1766015791.987282,20
1766015791.987293,23
1766015791.987304,22
1766015791.987315,21
1766015791.9873269,25
1766015791.987338,24
1766015791.9873521,25
1766015791.987363,24
1766015791.987375,21
1766015791.9873862,19
1766015791.987398,25
1766015791.9874089,24
1766015791.987421,24
1766015791.987432,26
1766015791.987443,27
1766015791.987453,23
1766015791.987464,19
1766015791.987475,24
1766015791.987486,22
1766015791.9874969,26
1766015791.987508,26
1766015791.987519,24
1766015791.987533,27
1766015791.987544,27
1766015791.987555,23
1766015791.987566,24
1766015791.9875772,26
1766015791.987587,22
1766015791.9875982,23
1766015791.9876091,21
1766015791.98762,21
1766015791.987631,24
1766015791.987642,21
1766015791.987652,24
1766015791.987663,23
1766015791.987674,22
1766015791.9876852,23
1766015791.9876952,24
1766015791.9877062,23
1766015791.9877172,23
1766015791.9877272,25
1766015791.9877381,22
1766015791.9877481,26
1766015791.987759,21
1766015791.98777,24
1766015791.987781,23
1766015791.9877918,20
1766015791.987803,20
1766015791.9878132,21
1766015791.9878242,23
1766015791.987835,27
1766015791.987846,25
1766015791.9878569,22
1766015791.9878669,24
1766015791.987881,22
1766015791.987893,23
1766015791.987904,20
1766015791.987915,21
1766015791.987926,21
1766015791.987937,23
1766015791.987947,24
1766015791.987958,21
1766015791.987969,21
1766015791.987979,24
1766015791.98799,24
1766015791.988001,25
1766015791.988012,20
1766015791.988023,24
1766015791.988033,20
1766015791.988044,21
1766015791.988055,21
1766015791.988066,20
1766015791.988076,21
1766015791.988087,23
1766015791.988097,23
1766015791.988108,26
1766015791.9881191,26
1766015791.9881291,22
1766015791.98814,20
1766015791.988151,25
1766015791.988161,21
1766015791.988172,21
1766015791.988183,22
1766015791.988193,21
1766015791.988204,24
1766015791.988215,20
1766015791.988225,24
1766015791.988239,22
1766015791.988251,23
1766015791.9882638,23
1766015791.9882739,21
1766015791.9882848,21
1766015791.988296,21
1766015791.9883058,21
1766015791.988317,22
1766015791.988328,24
1766015791.988339,23
1766015791.98835,24
1766015791.98836,21
1766015791.988371,20
1766015791.9883819,24
1766015791.9883919,22
1766015791.9884028,20
1766015791.988414,20
1766015791.988425,21
1766015791.988436,22
1766015791.988446,22
1766015791.988457,19
1766015791.988468,23
1766015791.988479,20
1766015791.9884899,22
1766015791.9884999,21
1766015791.988511,18
1766015791.988522,22
1766015791.988532,18
1766015791.988543,21
1766015791.988554,22
1766015791.988565,21
1766015791.988576,22
1766015791.988587,22
1766015791.9886,22
1766015791.9886122,22
1766015791.9886231,19
1766015791.988634,25
1766015791.9886441,17
1766015791.988655,21
1766015791.988666,22
1766015791.988677,23
1766015791.9886878,22
1766015791.988698,20
1766015791.9887092,20
1766015791.9887202,23
1766015791.988731,20
1766015791.9887412,21
1766015791.988752,19
1766015791.9887629,22
1766015791.988773,21
1766015791.988784,21
1766015791.9887948,23
1766015791.9888058,22
1766015791.988817,18
1766015791.988827,22
1766015791.988838,23
1766015791.988849,17
1766015791.988859,20
1766015791.98887,21
1766015791.9888809,22
1766015791.9888918,22
1766015791.9889019,21
1766015791.9889128,22
1766015791.988922,20
1766015791.9889321,22
1766015791.988941,21
1766015791.988954,23
1766015791.9889631,19
1766015791.9889731,21
1766015791.988982,20
1766015791.988991,21
1766015791.9889998,20
1766015791.9890099,20
1766015791.989019,20
1766015791.989028,22
1766015791.989037,20
1766015791.989047,21
1766015791.989056,23
1766015791.989065,19
1766015791.989074,23
1766015791.9890828,23
1766015791.989093,19
1766015791.9891021,19
1766015791.989111,23
1766015791.989121,24
1766015791.98913,22
1766015791.9891388,22
1766015791.9891489,19
1766015791.989158,22
1766015791.9891672,21
1766015791.989177,20
1766015791.989186,16
1766015791.989195,21
1766015791.989205,21
1766015791.989214,23
1766015791.989223,22
1766015791.989232,22
1766015791.989242,22
1766015791.989253,22
1766015791.989263,21
1766015791.989272,19
1766015791.989281,18
1766015791.989291,22
1766015791.9893,17
1766015791.9893131,19
1766015791.989322,19
1766015791.989331,26
1766015791.989341,20
1766015791.9893498,19
1766015791.9893591,21
1766015791.9893692,21
1766015791.989378,22
1766015791.989387,21
1766015791.9893959,19
1766015791.989405,17
1766015791.989414,20
1766015791.9894242,20
1766015791.989433,21
1766015791.989443,21
1766015791.9894521,22
1766015791.989461,22
1766015791.989471,19
1766015791.98948,21
1766015791.9894888,17
1766015791.9894981,18
1766015791.989507,22
1766015791.989517,19
1766015791.989526,21
1766015791.989535,22
1766015791.989544,22
1766015791.989554,20
1766015791.989565,18
1766015791.989575,19
1766015791.989585,19
1766015791.9895942,20
1766015791.989603,19
1766015791.989612,20
1766015791.989622,24
1766015791.989631,22
1766015791.98964,19
1766015791.9896488,21
1766015791.9896588,21
1766015791.9896681,18
1766015791.9896781,22
1766015791.989687,17
1766015791.989696,21
1766015791.9897048,22
1766015791.9897149,20
1766015791.989724,21
1766015791.989734,20
1766015791.989743,19
1766015791.989753,20
1766015791.989762,22
1766015791.989771,21
1766015791.989781,23
1766015791.98979,24
1766015791.989799,20
1766015791.989808,22
1766015791.989818,21
1766015791.989828,23
1766015791.9898372,23
1766015791.989846,19
1766015791.989856,20
1766015791.989866,21
1766015791.989878,21
1766015791.989889,24
1766015791.989898,21
1766015791.989907,21
1766015791.989917,22
1766015791.9899259,22
1766015791.9899352,21
1766015791.989944,19
1766015791.989954,22
1766015791.989963,23
1766015791.9899719,21
1766015791.989982,21
1766015791.989991,24
1766015791.990001,21
1766015791.99001,21
1766015791.990019,23
1766015791.990029,18
1766015791.990038,20
1766015791.990047,22
1766015791.990057,22
1766015791.9900658,23
1766015791.9900749,21
1766015791.9900842,21
1766015791.990093,21
1766015791.990103,23
1766015791.990112,20
1766015791.990121,18
1766015791.99013,22
1766015791.99014,19
1766015791.990149,24
1766015791.990158,18
1766015791.990168,19
1766015791.990177,20
1766015791.9901881,21
1766015791.990199,22
1766015791.990208,20
1766015791.990218,20
1766015791.990227,20
1766015791.9902358,23
1766015791.990245,21
1766015791.9902542,22
1766015791.9902642,20
1766015791.990273,23
1766015791.990282,18
1766015791.990292,20
1766015791.990301,24
1766015791.99031,22
1766015791.990319,21
1766015791.990329,22
1766015791.990338,19
1766015791.990347,21
1766015791.990356,20
1766015791.990366,19
1766015791.9903748,21
1766015791.990384,21
1766015791.9903932,20
1766015791.9904032,24
1766015791.990412,21
1766015791.990421,18
1766015791.9904299,23
1766015791.990439,19
1766015791.9904482,23
1766015791.990458,20
1766015791.990467,23
1766015791.9904761,20
1766015791.990486,23
1766015791.990497,22
1766015791.9905071,19
1766015791.990517,20
1766015791.990527,22
1766015791.990536,24
1766015791.9905448,21
1766015791.990554,21
1766015791.990564,24
1766015791.9905732,21
1766015791.990582,21
1766015791.990592,21
1766015791.990601,20
1766015791.99061,20
1766015791.990619,25
1766015791.990628,22
1766015791.990638,24
1766015791.990647,24
1766015791.990656,22
1766015791.990666,23
1766015791.990675,22
1766015791.9906838,21
1766015791.990693,20
1766015791.990703,22
1766015791.9907122,19
1766015791.990722,21
1766015791.990731,20
1766015791.990741,22
1766015791.990752,23
1766015791.990762,23
1766015791.990771,19
1766015791.9907799,24
1766015791.99079,21
1766015791.9907992,22
1766015791.9908109,21
1766015791.9908211,20
1766015791.9908311,21
1766015791.99084,21
1766015791.990849,23
1766015791.990859,24
1766015791.990869,19
1766015791.990879,24
1766015791.9908879,21
1766015791.990897,23
1766015791.990907,21
1766015791.990916,24
1766015791.990925,21
1766015791.9909341,21
1766015791.990944,22
1766015791.990953,22
1766015791.990962,19
1766015791.9909718,20
1766015791.990981,21
1766015791.9909902,21
1766015791.9910002,22
1766015791.991009,22
1766015791.991018,23
1766015791.9910269,21
1766015791.991037,21
1766015791.991046,23
1766015791.991056,22
1766015791.991065,19
1766015791.991074,22
1766015791.991083,21
1766015791.991093,24
1766015791.991102,22
1766015791.9911108,23
1766015791.991124,20
1766015791.991134,22
1766015791.991143,20
1766015791.991153,24
1766015791.991162,24
1766015791.9911711,27
1766015791.99118,22
1766015791.99119,23
1766015791.991199,22
1766015791.9912078,21
1766015791.991217,22
1766015791.9912262,22
1766015791.9912362,19
1766015791.991245,22
1766015791.991254,22
1766015791.991263,25
1766015791.991273,22
1766015791.991282,24
1766015791.9912908,22
1766015791.991301,24
1766015791.9913101,22
1766015791.991319,24
1766015791.991329,22
1766015791.991338,21
1766015791.9913468,23
1766015791.9913568,22
1766015791.991366,23
1766015791.9913752,22
1766015791.991385,25
1766015791.991394,23
1766015791.991403,20
1766015791.991412,22
1766015791.991422,21
1766015791.991435,25
1766015791.9914439,24
1766015791.991454,22
1766015791.991463,26
1766015791.991473,24
1766015791.991482,23
1766015791.991491,22
1766015791.9915001,24
1766015791.99151,25
1766015791.991519,23
1766015791.991528,23
1766015791.9915378,21
1766015791.9915469,21
1766015791.9915562,23
1766015791.991565,25
1766015791.991575,19
1766015791.991584,23
1766015791.991593,24
1766015791.991602,24
1766015791.991612,24
1766015791.991621,26
1766015791.99163,23
1766015791.9916391,25
1766015791.991649,25
1766015791.991658,26
1766015791.991667,27
1766015791.9916759,27
1766015791.9916859,23
1766015791.9916952,23
1766015791.991704,26
1766015791.991713,23
1766015791.991723,24
1766015791.991735,24
1766015791.991745,25
1766015791.991755,22
1766015791.991764,24
1766015791.9917738,24
1766015791.991783,28
1766015791.9917922,24
1766015791.9918022,25
1766015791.991811,25
1766015791.99182,22
1766015791.99183,22
1766015791.991839,24
1766015791.991848,23
1766015791.991858,25
1766015791.9918668,26
1766015791.9918761,27
1766015791.9918861,24
1766015791.9918962,24
1766015791.991905,22
1766015791.991914,26
1766015791.9919229,23
1766015791.9919329,25
1766015791.991942,23
1766015791.991951,24
1766015791.991961,25
1766015791.99197,25
1766015791.9919791,24
1766015791.991989,22
1766015791.991998,23
1766015791.992007,23
1766015791.9920168,25
1766015791.992026,27
1766015791.9920352,24
1766015791.9920452,24
1766015791.992057,27
1766015791.992068,27
1766015791.992077,23
1766015791.992086,23
1766015791.992095,23
1766015791.992105,25
1766015791.9921138,22
1766015791.9921238,25
1766015791.9921331,25
1766015791.992142,22
1766015791.992151,23
1766015791.992161,23
1766015791.99217,25
1766015791.992179,27
1766015791.992189,27
1766015791.992198,26
1766015791.992207,24
1766015791.992217,26
1766015791.9922261,26
1766015791.9922361,27
1766015791.992245,23
1766015791.992254,27
1766015791.992264,27
1766015791.9922729,24
1766015791.9922829,25
1766015791.9922922,26
1766015791.9923022,24
1766015791.992311,26
1766015791.99232,25
1766015791.99233,25
1766015791.992339,27
1766015791.992348,23
1766015791.992358,25
1766015791.99237,25
1766015791.992382,23
1766015791.9923918,23
1766015791.9924018,27
1766015791.992411,28
1766015791.9924212,28
1766015791.99243,24
1766015791.99244,27
1766015791.992449,23
1766015791.9924579,27
1766015791.992467,28
1766015791.992477,25
1766015791.992487,23
1766015791.992496,23
1766015791.992506,24
1766015791.992515,26
1766015791.992525,29
1766015791.992535,25
1766015791.992544,27
1766015791.992553,27
1766015791.9925618,27
1766015791.9925718,29
1766015791.9925811,29
1766015791.9925902,30
1766015791.9926,27
1766015791.992609,25
1766015791.992618,24
1766015791.992627,25
1766015791.992636,25
1766015791.992645,25
1766015791.992655,24
1766015791.992664,23
1766015791.992673,24
1766015791.992685,26
1766015791.992696,26
1766015791.992706,26
1766015791.9927151,25
1766015791.992724,24
1766015791.992733,25
1766015791.9927418,27
1766015791.992752,26
1766015791.992762,25
1766015791.992772,26
1766015791.9927812,25
1766015791.992791,24
1766015791.992801,27
1766015791.99281,24
1766015791.9928188,23
1766015791.992828,29
1766015791.992838,27
1766015791.992848,24
1766015791.992857,26
1766015791.992866,27
1766015791.992876,24
1766015791.9928849,27
1766015791.992895,28
1766015791.992904,28
1766015791.992914,27
1766015791.9929228,28
1766015791.992932,29
1766015791.992942,26
1766015791.9929512,28
1766015791.992961,26
1766015791.99297,29
1766015791.99298,24
1766015791.9929888,24
1766015791.993003,27
1766015791.993012,27
1766015791.993022,24
1766015791.993031,28
1766015791.9930408,28
1766015791.99305,27
1766015791.9930592,29
1766015791.993068,26
1766015791.993078,26
1766015791.993087,26
1766015791.9930959,24
1766015791.993106,27
1766015791.993115,24
1766015791.993124,25
1766015791.993133,23
1766015791.993143,25
1766015791.993152,24
1766015791.993161,25
1766015791.993173,24
1766015791.993182,25
1766015791.993191,29
1766015791.9932008,25
1766015791.99321,26
1766015791.99322,29
1766015791.9932292,22
1766015791.993238,25
1766015791.993247,26
1766015791.993257,24
1766015791.9932659,23
1766015791.993275,25
1766015791.993284,27
1766015791.993294,24
1766015791.993303,27
1766015791.993321,27
1766015791.993331,26
1766015791.99334,23
1766015791.993349,27
1766015791.9933581,28
1766015791.993367,26
1766015791.993376,27
1766015791.993385,27
1766015791.993394,26
1766015791.993403,28
1766015791.9934132,25
1766015791.993422,26
1766015791.993431,26
1766015791.99344,30
1766015791.993449,24
1766015791.993459,23
1766015791.9934678,23
1766015791.993477,23
1766015791.9934862,25
1766015791.9934962,26
1766015791.993505,27
1766015791.993514,26
1766015791.993524,28
1766015791.993533,27
1766015791.993542,28
1766015791.993551,27
1766015791.99356,24
1766015791.99357,27
1766015791.993579,26
1766015791.993588,28
1766015791.993598,26
1766015791.9936068,26
1766015791.993618,27
1766015791.99363,24
1766015791.993639,28
1766015791.993648,28
1766015791.993657,26
1766015791.9936671,26
1766015791.993676,28
1766015791.993685,27
1766015791.993694,29
1766015791.9937038,28
1766015791.993713,28
1766015791.9937222,26
1766015791.9937322,24
1766015791.993741,25
1766015791.99375,25
1766015791.993759,24
1766015791.993769,24
1766015791.993778,28
1766015791.9937868,26
1766015791.993796,28
1766015791.9938061,26
1766015791.993815,25
1766015791.993824,27
1766015791.993833,23
1766015791.9938428,25
1766015791.993852,23
1766015791.9938612,25
1766015791.9938712,27
1766015791.99388,26
1766015791.99389,25
1766015791.9939,27
1766015791.993909,24
1766015791.993918,27
1766015791.99393,23
1766015791.9939399,26
1766015791.99395,27
1766015791.993959,28
1766015791.993968,25
1766015791.993977,28
1766015791.9939861,28
1766015791.993995,26
1766015791.994005,23
1766015791.994014,25
1766015791.9940228,27
1766015791.9940321,27
1766015791.9940422,25
1766015791.994051,26
1766015791.99406,26
1766015791.994069,24
1766015791.994078,24
1766015791.994088,26
1766015791.994097,28
1766015791.994106,28
1766015791.994115,25
1766015791.994124,25
1766015791.994134,27
1766015791.994143,23
1766015791.9941518,25
1766015791.9941618,26
1766015791.994171,26
1766015791.9941802,28
1766015791.994189,28
1766015791.994198,26
1766015791.994208,25
1766015791.994217,27
1766015791.994227,23
1766015791.994239,26
1766015791.99425,25
1766015791.9942589,24
1766015791.994268,26
1766015791.994278,28
1766015791.994287,26
1766015791.994297,28
1766015791.994306,30
1766015791.994316,27
1766015791.994326,27
1766015791.994335,27
1766015791.994345,27
1766015791.994354,29
1766015791.994364,26
1766015791.994373,24
1766015791.994383,27
1766015791.9943922,25
1766015791.994401,25
1766015791.994411,29
1766015791.99442,26
1766015791.99443,26
1766015791.994439,25
1766015791.994448,29
1766015791.994457,27
1766015791.994467,26
1766015791.994476,29
1766015791.994486,30
1766015791.994495,29
1766015791.994504,30
1766015791.994514,30
1766015791.9945228,27
1766015791.994533,30
1766015791.9945421,29
1766015791.994554,27
1766015791.994565,27
1766015791.994574,30
1766015791.994584,25
1766015791.994593,24
1766015791.994602,25
1766015791.994612,27
1766015791.994621,28
1766015791.9946299,29
1766015791.9946399,27
1766015791.9946492,25
1766015791.994658,26
1766015791.994668,28
1766015791.994677,29
1766015791.994686,28
1766015791.994696,26
1766015791.994705,28
1766015791.994714,28
1766015791.994723,28
1766015791.994733,29
1766015791.994742,28
1766015791.994751,26
1766015791.994761,30
1766015791.9947698,29
1766015791.9947798,29
1766015791.9947891,28
1766015791.9947982,28
1766015791.994808,30
1766015791.994817,28
1766015791.994827,29
1766015791.9948359,28
1766015791.9948459,26
1766015791.994854,31
1766015791.994865,28
1766015791.994874,26
1766015791.994882,29
1766015791.994891,24
1766015791.994899,28
1766015791.994907,28
1766015791.9949172,30
1766015791.994925,26
1766015791.994934,29
1766015791.994942,29
1766015791.994951,27
1766015791.994959,29
1766015791.994967,27
1766015791.994976,30
1766015791.994984,29
1766015791.994992,27
1766015791.9950001,29
1766015791.995008,29
1766015791.995017,27
1766015791.995025,29
1766015791.995033,26
1766015791.9950411,26
1766015791.99505,24
1766015791.9950578,28
1766015791.9950662,26
1766015791.995074,28
1766015791.995083,25
1766015791.995091,26
1766015791.9950988,24
1766015791.9951072,31
1766015791.995115,27
1766015791.995123,30
1766015791.995132,26
1766015791.995143,28
1766015791.995154,28
1766015791.995162,25
1766015791.995171,29
1766015791.995179,29
1766015791.995187,27
1766015791.995195,30
1766015791.9952042,29
1766015791.995212,28
1766015791.99522,27
1766015791.995229,25
1766015791.995237,28
1766015791.995245,27
1766015791.995254,29
1766015791.995262,24
1766015791.9952698,28
1766015791.9952781,26
1766015791.995287,26
1766015791.995295,25
1766015791.995303,24
1766015791.9953122,27
1766015791.99532,27
1766015791.995328,25
1766015791.9953358,27
1766015791.995344,27
1766015791.995353,29
1766015791.995362,27
1766015791.99537,30
1766015791.995378,26
1766015791.9953868,25
1766015791.9953952,27
1766015791.995403,30
1766015791.995411,27
1766015791.995424,28
1766015791.995434,26
1766015791.995442,24
1766015791.99545,27
1766015791.9954581,27
1766015791.995467,26
1766015791.995475,26
1766015791.995483,26
1766015791.995491,26
1766015791.995499,28
1766015791.995509,28
1766015791.995518,27
1766015791.9955258,27
1766015791.9955342,23
1766015791.995542,28
1766015791.99555,24
1766015791.995559,26
1766015791.995567,28
1766015791.995575,24
1766015791.995584,23
1766015791.9955919,23
1766015791.9956,25
1766015791.995609,25
1766015791.995617,27
1766015791.995626,22
1766015791.9956338,27
1766015791.9956422,25
1766015791.99565,24
1766015791.995658,23
1766015791.995667,26
1766015791.9956748,23
1766015791.995683,25
1766015791.995691,27
1766015791.995703,27
1766015791.995711,27
1766015791.99572,26
1766015791.9957278,25
1766015791.9957361,27
1766015791.995744,24
1766015791.995753,27
1766015791.995761,27
1766015791.995769,24
1766015791.9957771,23
1766015791.995785,25
1766015791.9957938,23
1766015791.9958022,28
1766015791.995811,30
1766015791.995819,26
1766015791.995827,26
1766015791.995836,26
1766015791.9958441,26
1766015791.995852,25
1766015791.9958599,29
1766015791.995869,30
1766015791.995877,28
1766015791.9958851,27
1766015791.995894,27
1766015791.995902,27
1766015791.99591,27
1766015791.995918,24
1766015791.995927,30
1766015791.995935,28
1766015791.9959428,25
1766015791.9959521,26
1766015791.99596,27
1766015791.995968,24
1766015791.995981,26
1766015791.995989,26
1766015791.995997,30
1766015791.9960058,27
1766015791.996015,27
1766015791.996023,27
1766015791.996032,26
1766015791.9960399,30
1766015791.996048,28
1766015791.996056,28
1766015791.996064,26
1766015791.996072,27
1766015791.9960802,26
1766015791.996089,27
1766015791.996097,27
1766015791.996105,25
1766015791.9961128,28
1766015791.9961212,30
1766015791.996129,23
1766015791.996138,29
1766015791.996146,25
1766015791.996154,26
1766015791.996162,29
1766015791.99617,26
1766015791.9961789,26
1766015791.996187,28
1766015791.996195,28
1766015791.996203,28
1766015791.996212,26
1766015791.9962208,27
1766015791.9962292,28
1766015791.996237,27
1766015791.996247,27
1766015791.996258,26
1766015791.996266,28
1766015791.996274,28
1766015791.996282,27
1766015791.99629,30
1766015791.996298,28
1766015791.996306,27
1766015791.996314,28
1766015791.996323,27
1766015791.996331,28
1766015791.9963388,27
1766015791.996347,27
1766015791.996356,29
1766015791.996364,26
1766015791.996372,27
1766015791.9963799,26
1766015791.9963882,28
1766015791.996396,30
1766015791.996405,29
1766015791.996413,24
1766015791.996421,27
1766015791.996429,30
1766015791.996437,28
1766015791.996445,29
1766015791.996453,27
1766015791.996462,27
1766015791.99647,30
1766015791.9964778,29
1766015791.996486,28
1766015791.996494,25
1766015791.996502,31
1766015791.99651,26
1766015791.996521,30
1766015791.996531,28
1766015791.9965389,30
1766015791.996547,27
1766015791.996555,29
1766015791.996563,28
1766015791.996572,27
1766015791.9965801,28
1766015791.996588,28
1766015791.996597,28
1766015791.996605,29
1766015791.996613,25
1766015791.9966211,29
1766015791.996629,30
1766015791.996638,29
1766015791.996646,31
1766015791.996655,31
1766015791.996663,30
1766015791.996671,26
1766015791.9966788,27
1766015791.996688,28
1766015791.996696,25
1766015791.996704,27
1766015791.996712,27
1766015791.99672,27
1766015791.9967291,27
1766015791.996737,29
1766015791.9967449,30
1766015791.996753,27
1766015791.996762,32
1766015791.9967701,29
1766015791.996779,28
1766015791.9967868,29
1766015791.996798,30
1766015791.9968069,28
1766015791.9968152,29
1766015791.996824,31
1766015791.996832,30
1766015791.99684,27
1766015791.996848,27
1766015791.9968572,31
1766015791.996865,30
1766015791.996873,32
1766015791.996882,31
1766015791.99689,31
1766015791.996898,30
1766015791.996907,29
1766015791.9969149,28
1766015791.996923,26
1766015791.996931,32
1766015791.9969401,32
1766015791.996949,33
1766015791.996958,30
1766015791.996966,30
1766015791.9969752,31
1766015791.996983,27
1766015791.996991,31
1766015791.997,31
1766015791.9970078,28
1766015791.997016,30
1766015791.997024,29
1766015791.9970329,29
1766015791.997041,31
1766015791.997049,32
1766015791.9970582,30
1766015791.997066,30
1766015791.997077,33
1766015791.997086,29
1766015791.997094,30
1766015791.997102,27
1766015791.9971101,34
1766015791.997119,33
1766015791.9971268,31
1766015791.9971352,31
1766015791.997144,30
1766015791.997152,33
1766015791.99716,32
1766015791.997168,32
1766015791.9971771,29
1766015791.997185,31
1766015791.9971929,29
1766015791.997202,30
1766015791.99721,31
1766015791.997219,30
1766015791.997227,31
1766015791.997235,28
1766015791.997244,31
1766015791.997252,30
1766015791.99726,32
1766015791.997269,28
1766015791.997277,33
1766015791.9972858,32
1766015791.9972951,33
1766015791.997303,29
1766015791.997312,29
1766015791.99732,32
1766015791.9973278,31
1766015791.997337,31
1766015791.997345,29
1766015791.997356,28
1766015791.997365,29
1766015791.9973729,30
1766015791.997382,31
1766015791.99739,29
1766015791.997398,27
1766015791.997407,28
1766015791.9974148,32
1766015791.9974241,32
1766015791.997432,31
1766015791.99744,32
1766015791.997448,30
1766015791.9974568,29
1766015791.9974651,30
1766015791.997473,32
1766015791.9974809,31
1766015791.99749,30
1766015791.997498,31
1766015791.9975061,28
1766015791.997515,31
1766015791.9975228,25
1766015791.997531,30
1766015791.99754,31
1766015791.997548,27
1766015791.997557,30
1766015791.997565,28
1766015791.9975731,28
1766015791.997581,30
1766015791.99759,31
1766015791.997598,30
1766015791.9976058,31
1766015791.997615,28
1766015791.997623,28
1766015791.997634,26
1766015791.997642,27
1766015791.997652,32
1766015791.99766,28
1766015791.997668,27
1766015791.9976761,28
1766015791.997685,30
1766015791.9976928,30
1766015791.9977012,32
1766015791.997709,29
1766015791.997718,31
1766015791.997726,30
1766015791.997735,30
1766015791.9977431,31
1766015791.997751,30
1766015791.99776,29
1766015791.997768,27
1766015791.9977758,25
1766015791.9977841,29
1766015791.997793,26
1766015791.997801,28
1766015791.997809,28
1766015791.997818,30
1766015791.997826,27
1766015791.997834,30
1766015791.997843,30
1766015791.997851,29
1766015791.997859,29
1766015791.997868,31
1766015791.997876,28
1766015791.997885,28
1766015791.997893,28
1766015791.997901,29
1766015791.9979122,28
1766015791.99792,30
1766015791.9979289,32
1766015791.997937,28
1766015791.997945,27
1766015791.9979541,28
1766015791.997962,32
1766015791.997971,29
1766015791.997979,28
1766015791.997987,27
1766015791.997996,28
1766015791.998004,33
1766015791.998013,29
1766015791.9980211,33
1766015791.9980302,31
1766015791.998038,31
1766015791.998046,30
1766015791.9980538,29
1766015791.998063,32
1766015791.998071,28
1766015791.998079,28
1766015791.998088,27
1766015791.998096,29
1766015791.998104,27
1766015791.998113,26
1766015791.998122,28
1766015791.9981298,27
1766015791.9981382,29
1766015791.998147,26
1766015791.998155,27
1766015791.998163,29
1766015791.9981709,28
1766015791.9981802,26
1766015791.998191,27
1766015791.998199,28
1766015791.998208,26
1766015791.998216,28
1766015791.9982238,27
1766015791.9982321,29
1766015791.998241,25
1766015791.998249,29
1766015791.998257,29
1766015791.9982662,29
1766015791.998274,28
1766015791.998282,30
1766015791.998291,26
1766015791.998299,28
1766015791.998307,26
1766015791.998316,27
1766015791.998324,30
1766015791.9983318,27
1766015791.998341,24
1766015791.998349,28
1766015791.998357,26
1766015791.9983659,29
1766015791.998374,27
1766015791.998383,29
1766015791.9983912,27
1766015791.9984,30
1766015791.9984078,30
1766015791.998416,29
1766015791.998424,27
1766015791.998433,29
1766015791.998441,26
1766015791.9984488,29
1766015791.9984581,28
1766015791.998469,24
1766015791.998477,26
1766015791.998486,31
1766015791.998494,26
1766015791.9985018,25
1766015791.998511,28
1766015791.998519,26
1766015791.998527,29
1766015791.998535,28
1766015791.998544,31
1766015791.998552,29
1766015791.99856,28
1766015791.998569,28
1766015791.9985769,28
1766015791.998585,31
1766015791.998593,30
1766015791.998602,30
1766015791.99861,31
1766015791.9986181,30
1766015791.9986272,26
1766015791.998635,24
1766015791.998643,30
1766015791.998652,29
1766015791.99866,27
1766015791.9986691,29
1766015791.998677,29
1766015791.998685,30
1766015791.998694,30
1766015791.998702,27
1766015791.998711,30
1766015791.99872,28
1766015791.998728,27
1766015791.998736,31
1766015791.9987478,27
1766015791.9987571,29
1766015791.998765,28
1766015791.998774,30
1766015791.998782,28
1766015791.9987898,27
1766015791.998799,30
1766015791.998807,29
1766015791.998815,27
1766015791.998824,25
1766015791.9988322,24
1766015791.998841,29
1766015791.998849,27
1766015791.998857,28
1766015791.998865,27
1766015791.9988742,30
1766015791.998882,26
1766015791.998891,26
1766015791.998899,26
1766015791.9989069,27
1766015791.9989161,26
1766015791.998924,24
1766015791.998932,26
1766015791.99894,27
1766015791.998949,28
1766015791.9989572,26
1766015791.998966,26
1766015791.9989738,30
1766015791.998983,26
1766015791.998991,27
1766015791.998999,28
1766015791.999008,24
1766015791.999016,28
1766015791.999028,25
1766015791.9990358,21
1766015791.9990451,28
1766015791.999053,26
1766015791.999061,23
1766015791.99907,25
1766015791.9990778,25
1766015791.999087,25
1766015791.999095,30
1766015791.999103,31
1766015791.999111,27
1766015791.9991198,29
1766015791.999128,27
1766015791.999136,28
1766015791.9991438,29
1766015791.9991522,28
1766015791.99916,30
1766015791.999168,30
1766015791.999177,28
1766015791.9991848,28
1766015791.9991932,26
1766015791.999201,27
1766015791.99921,27
1766015791.999219,29
1766015791.9992268,30
1766015791.999236,31
1766015791.999244,29
1766015791.999252,30
1766015791.99926,31
1766015791.999269,32
1766015791.999277,27
1766015791.999285,27
1766015791.9992971,34
1766015791.999309,29
1766015791.999317,30
1766015791.999326,31
1766015791.9993339,30
1766015791.999342,28
1766015791.99935,32
1766015791.999358,29
1766015791.999367,29
1766015791.999375,29
1766015791.999383,34
1766015791.999391,28
1766015791.999399,34
1766015791.999407,31
1766015791.999416,30
1766015791.999424,30
1766015791.9994318,30
1766015791.99944,31
1766015791.999448,33
1766015791.999456,31
1766015791.999465,29
1766015791.9994729,32
1766015791.9994812,29
1766015791.99949,34
1766015791.999498,32
1766015791.999506,30
1766015791.9995148,32
1766015791.9995232,31
1766015791.999531,34
1766015791.999539,30
1766015791.9995468,31
1766015791.999556,31
1766015791.999564,34
1766015791.999574,31
1766015791.999584,30
1766015791.999593,32
1766015791.999601,31
1766015791.999609,31
1766015791.999617,27
1766015791.999625,32
1766015791.999634,29
1766015791.9996421,32
1766015791.99965,33
1766015791.9996579,33
1766015791.999667,28
1766015791.9996748,30
1766015791.9996831,33
1766015791.999691,32
1766015791.9996989,30
1766015791.999708,29
1766015791.999716,28
1766015791.9997241,31
1766015791.999733,31
1766015791.9997408,29
1766015791.99975,33
1766015791.999758,31
1766015791.999766,32
1766015791.999774,30
1766015791.9997828,30
1766015791.9997911,30
1766015791.9998012,33
1766015791.999809,36
1766015791.999818,32
1766015791.999826,35
1766015791.999834,35
1766015791.9998422,30
1766015791.9998531,33
1766015791.9998631,34
1766015791.999871,35
1766015791.999879,31
1766015791.999887,31
1766015791.999896,32
1766015791.999904,34
1766015791.999912,35
1766015791.9999201,33
1766015791.9999292,33
1766015791.999937,37
1766015791.999945,37
1766015791.9999528,35
1766015791.9999611,33
1766015791.99997,36
1766015791.999978,34
1766015791.999986,36
1766015791.999994,38
1766015792.000003,38
1766015792.000011,39
1766015792.0000188,35
1766015792.000027,37
1766015792.000036,40
1766015792.000044,36
1766015792.000052,37
1766015792.000061,35
1766015792.0000699,38
1766015792.000078,41
1766015792.000086,41
1766015792.000094,40
1766015792.0001018,39
1766015792.000111,41
1766015792.000119,38
1766015792.00013,41
1766015792.000139,42
1766015792.0001469,38
1766015792.000156,38
1766015792.000164,37
1766015792.0001721,37
1766015792.00018,41
1766015792.0001879,38
1766015792.0001972,40
1766015792.000205,40
1766015792.000213,44
1766015792.000222,44
1766015792.0002298,41
1766015792.0002391,42
1766015792.000247,42
1766015792.0002549,40
1766015792.000263,41
1766015792.0002718,39
1766015792.0002801,38
1766015792.000288,38
1766015792.000297,41
1766015792.000305,42
1766015792.000313,41
1766015792.000322,39
1766015792.00033,41
1766015792.0003378,39
1766015792.0003462,42
1766015792.000355,38
1766015792.000363,43
1766015792.000371,42
1766015792.0003788,43
1766015792.0003881,41
1766015792.000396,40
1766015792.000407,38
1766015792.000417,41
1766015792.0004249,39
1766015792.000433,42
1766015792.000441,41
1766015792.000449,39
1766015792.000458,42
1766015792.0004659,38
1766015792.0004742,37
1766015792.000483,40
1766015792.000491,39
1766015792.000499,41
1766015792.0005069,41
1766015792.0005162,39
1766015792.000524,39
1766015792.000532,40
1766015792.00054,42
1766015792.000549,39
1766015792.000557,40
1766015792.000565,38
1766015792.000573,39
1766015792.000581,38
1766015792.00059,39
1766015792.000598,39
1766015792.000606,39
1766015792.000614,36
1766015792.000622,37
1766015792.000631,39
1766015792.000639,40
1766015792.0006468,40
1766015792.000656,39
1766015792.000664,40
1766015792.000672,39
1766015792.000683,42
1766015792.000692,40
1766015792.0007,41
1766015792.000708,45
1766015792.0007172,43
1766015792.000725,42
1766015792.000733,43
1766015792.000741,43
1766015792.00075,42
1766015792.000758,42
1766015792.000767,44
1766015792.0007749,46
1766015792.0007832,47
1766015792.000792,44
1766015792.0008,45
1766015792.000808,47
1766015792.000816,45
1766015792.000823,46
1766015792.000831,47
1766015792.0008378,46
1766015792.0008461,46
1766015792.000853,48
1766015792.00086,43
1766015792.000868,45
1766015792.000875,42
1766015792.000882,47
1766015792.00089,42
1766015792.000897,45
1766015792.000905,45
1766015792.000912,45
1766015792.000919,45
1766015792.000927,41
1766015792.000934,46
1766015792.0009441,47
1766015792.0009532,46
1766015792.00096,51
1766015792.000968,48
1766015792.0009751,51
1766015792.000982,47
1766015792.00099,47
1766015792.000997,45
1766015792.001004,49
1766015792.001012,49
1766015792.0010188,49
1766015792.001027,51
1766015792.001034,47
1766015792.001041,49
1766015792.001048,48
1766015792.001056,48
1766015792.0010638,46
1766015792.0010712,47
1766015792.0010781,43
1766015792.001086,47
1766015792.0010931,45
1766015792.0011,48
1766015792.001108,45
1766015792.0011148,45
1766015792.0011232,45
1766015792.0011299,45
1766015792.0011368,46
1766015792.0011451,46
1766015792.001152,42
1766015792.00116,44
1766015792.001167,46
1766015792.001175,44
1766015792.001183,45
1766015792.001193,44
1766015792.001204,44
1766015792.001211,46
1766015792.001218,44
1766015792.001226,42
1766015792.0012329,45
1766015792.00124,43
1766015792.001248,44
1766015792.0012548,41
1766015792.0012622,41
1766015792.00127,42
1766015792.001277,43
1766015792.0012841,44
1766015792.001292,44
1766015792.001299,45
1766015792.0013068,42
1766015792.0013142,44
1766015792.001322,42
1766015792.001329,42
1766015792.001337,44
1766015792.001344,42
1766015792.0013509,46
1766015792.001359,44
1766015792.001366,44
1766015792.0013728,41
1766015792.0013812,41
1766015792.001388,44
1766015792.001396,45
1766015792.0014029,44
1766015792.001415,43
1766015792.0014231,41
1766015792.00143,41
1766015792.001438,43
1766015792.001448,41
1766015792.001456,39
1766015792.001463,47
1766015792.0014699,42
1766015792.001478,42
1766015792.001485,44
1766015792.001493,43
1766015792.0015,44
1766015792.001508,42
1766015792.001515,43
1766015792.0015218,42
1766015792.0015302,46
1766015792.001537,43
1766015792.001544,44
1766015792.0015519,45
1766015792.001559,43
1766015792.001567,43
1766015792.0015738,45
1766015792.0015821,44
1766015792.001589,41
1766015792.001596,46
1766015792.001604,46
1766015792.001611,46
1766015792.001618,44
1766015792.001626,41
1766015792.001633,40
1766015792.001641,41
1766015792.001649,44
1766015792.001656,42
1766015792.001664,44
1766015792.001672,42
1766015792.00168,46
1766015792.0016901,42
1766015792.001698,44
1766015792.001706,45
1766015792.0017128,43
1766015792.0017211,44
1766015792.001728,43
1766015792.001735,43
1766015792.001743,44
1766015792.00175,42
1766015792.001757,44
1766015792.001765,43
1766015792.001772,43
1766015792.00178,44
1766015792.001787,41
1766015792.001794,40
1766015792.001802,41
1766015792.001809,43
1766015792.001817,43
1766015792.001824,41
1766015792.001833,43
1766015792.00184,46
1766015792.001848,46
1766015792.001855,41
1766015792.001863,45
1766015792.0018702,43
1766015792.001877,46
1766015792.001885,43
1766015792.001892,46
1766015792.001899,44
1766015792.0019069,46
1766015792.001914,44
1766015792.0019221,46
1766015792.001929,47
1766015792.00194,42
1766015792.001947,42
1766015792.001955,42
1766015792.001962,47
1766015792.0019689,44
1766015792.0019772,48
1766015792.001984,44
1766015792.001992,48
1766015792.0019991,45
1766015792.002007,46
1766015792.002014,49
1766015792.002021,47
1766015792.002029,46
1766015792.0020359,46
1766015792.002044,46
1766015792.002051,43
1766015792.002059,45
1766015792.002066,43
1766015792.002074,44
1766015792.002081,44
1766015792.0020878,48
1766015792.0020962,47
1766015792.002103,45
1766015792.002111,44
1766015792.0021179,47
1766015792.002125,44
1766015792.002133,46
1766015792.0021398,45
1766015792.0021482,46
1766015792.002155,45
1766015792.002162,44
1766015792.00217,43
1766015792.0021791,45
1766015792.002188,44
1766015792.002195,44
1766015792.002203,48
1766015792.0022101,46
1766015792.002217,43
1766015792.002225,45
1766015792.002232,43
1766015792.00224,45
1766015792.0022469,45
1766015792.0022552,45
1766015792.002262,45
1766015792.00227,46
1766015792.0022771,43
1766015792.002285,43
1766015792.002293,40
1766015792.0022998,43
1766015792.0023072,44
1766015792.002315,43
1766015792.002323,42
1766015792.00233,45
1766015792.002337,41
1766015792.0023448,43
1766015792.0023522,41
1766015792.00236,44
1766015792.002367,42
1766015792.002374,41
1766015792.002382,46
1766015792.002389,41
1766015792.0023968,42
1766015792.0024042,39
1766015792.002412,39
1766015792.002419,45
1766015792.002431,42
1766015792.002439,43
1766015792.0024462,40
1766015792.002454,43
1766015792.002461,39
1766015792.002468,43
1766015792.002476,41
1766015792.002483,43
1766015792.00249,40
1766015792.0024981,41
1766015792.002506,42
1766015792.002513,43
1766015792.002521,42
1766015792.002528,41
1766015792.0025358,40
1766015792.0025432,42
1766015792.0025501,40
1766015792.002558,40
1766015792.0025651,41
1766015792.002572,41
1766015792.00258,38
1766015792.0025868,39
1766015792.0025952,40
1766015792.002602,39
1766015792.002609,40
1766015792.0026171,42
1766015792.002624,37
1766015792.002632,37
1766015792.002639,39
1766015792.002647,38
1766015792.0026538,39
1766015792.0026612,42
1766015792.002671,39
1766015792.002679,43
1766015792.002687,37
1766015792.002694,39
1766015792.002702,42
1766015792.002709,38
1766015792.0027158,35
1766015792.0027242,37
1766015792.002731,39
1766015792.002739,41
1766015792.002746,37
1766015792.002753,35
1766015792.00276,38
1766015792.0027678,35
1766015792.002775,42
1766015792.0027819,38
1766015792.00279,38
1766015792.0027971,36
1766015792.002804,37
1766015792.002812,39
1766015792.002819,35
1766015792.002827,39
1766015792.0028338,37
1766015792.0028422,38
1766015792.002849,35
1766015792.002857,36
1766015792.0028641,37
1766015792.002871,33
1766015792.002879,37
1766015792.0028858,36
1766015792.0028942,37
1766015792.002901,34
1766015792.002908,36
1766015792.002919,39
1766015792.002926,36
1766015792.002934,37
1766015792.002941,34
1766015792.002948,35
1766015792.002956,37
1766015792.002964,35
1766015792.002971,37
1766015792.002978,31
1766015792.002986,34
1766015792.0029929,34
1766015792.003,32
1766015792.003008,32
1766015792.0030148,33
1766015792.0030231,29
1766015792.00303,33
1766015792.003038,36
1766015792.003045,33
1766015792.003053,34
1766015792.0030599,32
1766015792.003068,33
1766015792.0030751,31
1766015792.003082,33
1766015792.00309,36
1766015792.003097,30
1766015792.003104,35
1766015792.0031118,28
1766015792.003119,31
1766015792.003126,31
1766015792.003134,31
1766015792.0031412,32
1766015792.003148,31
1766015792.0031612,27
1766015792.00317,33
1766015792.003177,29
1766015792.003184,32
1766015792.003192,28
1766015792.0031989,30
1766015792.003207,30
1766015792.003215,30
1766015792.003222,33
1766015792.0032299,32
1766015792.003238,29
1766015792.003245,29
1766015792.003252,31
1766015792.00326,29
1766015792.003267,31
1766015792.003274,31
1766015792.0032818,31
1766015792.003289,30
1766015792.003297,33
1766015792.003304,30
1766015792.003312,31
1766015792.003319,32
1766015792.003326,32
1766015792.0033338,30
1766015792.003341,31
1766015792.003349,33
1766015792.003356,28
1766015792.0033631,31
1766015792.003371,29
1766015792.003378,29
1766015792.003386,33
1766015792.003393,33
1766015792.0033998,31
1766015792.003411,28
1766015792.003419,27
1766015792.003426,32
1766015792.003434,33
1766015792.0034409,31
1766015792.0034492,33
1766015792.003456,32
1766015792.003463,28
1766015792.0034711,28
1766015792.003478,33
1766015792.003486,29
1766015792.003493,32
1766015792.003501,33
1766015792.0035079,29
1766015792.0035148,30
1766015792.003523,31
1766015792.003531,29
1766015792.0035388,32
1766015792.003546,31
1766015792.003553,34
1766015792.003561,29
1766015792.0035682,33
1766015792.003576,32
1766015792.003583,30
1766015792.0035899,31
1766015792.003598,31
1766015792.003605,33
1766015792.003613,31
1766015792.0036201,30
1766015792.003628,29
1766015792.003635,34
1766015792.003642,33
1766015792.00365,33
1766015792.0036612,33
1766015792.003668,33
1766015792.003676,35
1766015792.003683,32
1766015792.003691,32
1766015792.0036979,33
1766015792.003705,32
1766015792.0037131,32
1766015792.00372,29
1766015792.003728,35
1766015792.003735,31
1766015792.003743,33
1766015792.0037498,31
1766015792.0037591,31
1766015792.003767,30
1766015792.003774,33
1766015792.0037818,33
1766015792.003789,36
1766015792.0037959,29
1766015792.003804,33
1766015792.0038111,34
1766015792.003819,34
1766015792.003826,33
1766015792.003834,34
1766015792.003841,32
1766015792.003849,34
1766015792.003856,32
1766015792.003864,36
1766015792.003871,31
1766015792.0038779,31
1766015792.003886,33
1766015792.003893,30
1766015792.003903,31
1766015792.003912,33
1766015792.0039191,32
1766015792.003926,34
1766015792.003934,34
1766015792.003941,33
1766015792.0039492,31
1766015792.003957,34
1766015792.003964,32
1766015792.003972,30
1766015792.003979,31
1766015792.003986,32
1766015792.0039942,33
1766015792.0040011,32
1766015792.004008,32
1766015792.0040162,32
1766015792.004023,30
1766015792.004031,29
1766015792.0040379,31
1766015792.004046,31
1766015792.0040529,30
1766015792.004061,29
1766015792.0040681,31
1766015792.004075,31
1766015792.004083,34
1766015792.00409,32
1766015792.004097,33
1766015792.0041049,31
1766015792.0041118,33
1766015792.0041192,28
1766015792.004127,30
1766015792.004134,30
1766015792.004142,29
1766015792.004152,35
1766015792.00416,33
1766015792.0041668,28
1766015792.004174,32
1766015792.004182,30
1766015792.00419,29
1766015792.0041978,29
1766015792.004205,28
1766015792.004213,31
1766015792.004222,30
1766015792.004229,31
1766015792.0042372,27
1766015792.0042439,31
1766015792.004252,29
1766015792.004259,27
1766015792.004266,29
1766015792.004274,30
1766015792.004281,30
1766015792.004288,28
1766015792.0042958,31
1766015792.0043032,29
1766015792.0043101,31
1766015792.004318,32
1766015792.0043252,28
1766015792.004332,30
1766015792.00434,31
1766015792.0043468,27
1766015792.004355,29
1766015792.0043619,33
1766015792.0043688,30
1766015792.0043771,30
1766015792.004384,29
1766015792.004394,28
1766015792.004402,31
1766015792.00441,32
1766015792.004417,32
1766015792.004425,28
1766015792.004432,29
1766015792.00444,30
1766015792.004447,30
1766015792.0044549,29
1766015792.004462,30
1766015792.00447,31
1766015792.004477,33
1766015792.0044851,29
1766015792.004492,29
1766015792.0045,30
1766015792.0045068,32
1766015792.004541,32
1766015792.004549,31
1766015792.004556,32
1766015792.004564,33
1766015792.004572,29
1766015792.004579,31
1766015792.004587,31
1766015792.004595,29
1766015792.004603,29
1766015792.00461,29
1766015792.004618,31
1766015792.0046248,32
1766015792.0046332,28
1766015792.00464,32
1766015792.004647,31
1766015792.0046551,28
1766015792.004662,32
1766015792.004672,30
1766015792.00468,28
1766015792.004687,31
1766015792.004695,28
1766015792.0047019,29
1766015792.00471,31
1766015792.004717,31
1766015792.004724,27
1766015792.004732,32
1766015792.004739,33
1766015792.004747,31
1766015792.0047538,31
1766015792.004761,28
1766015792.004769,32
1766015792.004776,27
1766015792.004784,30
1766015792.004791,31
1766015792.004798,27
1766015792.0048058,30
1766015792.004813,30
1766015792.004821,27
1766015792.004828,27
1766015792.004836,28
1766015792.004843,29
1766015792.00485,29
1766015792.004858,30
1766015792.004865,27
1766015792.004873,29
1766015792.00488,30
1766015792.004888,31
1766015792.004895,26
1766015792.0049028,27
1766015792.00491,27
1766015792.00492,31
1766015792.004928,29
1766015792.004936,28
1766015792.0049438,31
1766015792.004951,25
1766015792.0049589,30
1766015792.0049658,30
1766015792.0049741,28
1766015792.004981,30
1766015792.004988,29
1766015792.004996,29
1766015792.005003,27
1766015792.0050108,29
1766015792.005018,28
1766015792.005025,29
1766015792.005033,33
1766015792.005041,29
1766015792.005049,29
1766015792.005057,27
1766015792.005065,26
1766015792.0050728,28
1766015792.0050812,29
1766015792.00509,30
1766015792.0050979,26
1766015792.005106,29
1766015792.0051131,30
1766015792.005121,30
1766015792.0051289,29
1766015792.005137,25
1766015792.005145,29
1766015792.005153,26
1766015792.005161,29
1766015792.005169,27
1766015792.00518,26
1766015792.0051892,27
1766015792.005197,25
1766015792.005205,26
1766015792.005213,28
1766015792.0052202,30
1766015792.005229,27
1766015792.005236,25
1766015792.005244,30
1766015792.0052512,26
1766015792.005259,26
1766015792.005266,27
1766015792.005274,29
1766015792.005281,27
1766015792.005288,28
1766015792.0052962,27
1766015792.0053031,26
1766015792.005311,26
1766015792.0053189,24
1766015792.005326,23
1766015792.005333,27
1766015792.0053408,26
1766015792.0053482,25
1766015792.005356,29
1766015792.005363,23
1766015792.0053701,27
1766015792.005378,26
1766015792.005385,26
1766015792.0053928,23
1766015792.0054002,24
1766015792.005407,25
1766015792.005415,25
1766015792.005422,27
1766015792.005431,26
1766015792.00544,23
1766015792.005447,27
1766015792.005455,25
1766015792.005462,25
1766015792.00547,24
1766015792.0054772,26
1766015792.005484,28
1766015792.005492,26
1766015792.005499,27
1766015792.005507,25
1766015792.005514,24
1766015792.0055208,24
1766015792.0055292,25
1766015792.005536,25
1766015792.005544,26
1766015792.005551,23
1766015792.005558,27
1766015792.005566,26
1766015792.005573,25
1766015792.0055811,24
1766015792.005588,26
1766015792.005596,27
1766015792.005603,25
1766015792.00561,26
1766015792.0056179,27
1766015792.005625,27
1766015792.005632,25
1766015792.00564,24
1766015792.0056472,26
1766015792.005654,26
1766015792.005662,22
1766015792.005669,24
1766015792.0056791,24
1766015792.005687,25
1766015792.005694,26
1766015792.0057018,24
1766015792.0057092,24
1766015792.005716,25
1766015792.005725,21
1766015792.005732,26
1766015792.00574,27
1766015792.0057468,26
1766015792.005754,28
1766015792.005762,25
1766015792.005769,25
1766015792.005776,26
1766015792.005784,27
1766015792.005791,25
1766015792.0057988,23
1766015792.005806,27
1766015792.005813,22
1766015792.0058198,23
1766015792.0058281,26
1766015792.005835,22
1766015792.005842,21
1766015792.00585,25
1766015792.005857,25
1766015792.0058649,26
1766015792.005872,25
1766015792.00588,27
1766015792.005887,27
1766015792.005894,27
1766015792.005902,23
1766015792.005909,24
1766015792.0059159,22
1766015792.005926,25
1766015792.0059352,24
1766015792.005943,21
1766015792.00595,24
1766015792.0059571,24
1766015792.005965,23
1766015792.005972,23
1766015792.0059788,25
1766015792.0059872,27
1766015792.005994,23
1766015792.006002,23
1766015792.006009,24
1766015792.006016,24
1766015792.006024,24
1766015792.006031,24
1766015792.0060391,25
1766015792.006046,24
1766015792.0060532,24
1766015792.006061,27
1766015792.006068,25
1766015792.0060759,23
1766015792.006083,24
1766015792.00609,28
1766015792.006098,27
1766015792.0061052,26
1766015792.006113,25
1766015792.00612,27
1766015792.006128,25
1766015792.006135,27
1766015792.006142,29
1766015792.0061498,27
1766015792.0061572,26
1766015792.006165,27
1766015792.0061738,25
1766015792.006183,27
1766015792.00619,25
1766015792.006198,26
1766015792.0062048,26
1766015792.006212,22
1766015792.00622,27
1766015792.006227,25
1766015792.006235,22
1766015792.006242,30
1766015792.00625,24
1766015792.0062568,22
1766015792.0062652,27
1766015792.006273,24
1766015792.006281,22
1766015792.006289,26
1766015792.006297,27
1766015792.006304,27
1766015792.006312,26
1766015792.0063202,24
1766015792.006328,25
1766015792.006336,27
1766015792.0063438,24
1766015792.006352,25
1766015792.00636,25
1766015792.006367,23
1766015792.0063748,26
1766015792.0063832,22
1766015792.006391,26
1766015792.006399,25
1766015792.006407,26
1766015792.0064151,23
1766015792.006423,22
1766015792.006433,23
1766015792.006442,24
1766015792.00645,23
1766015792.006458,22
1766015792.0064662,24
1766015792.006473,24
1766015792.006481,25
1766015792.006489,22
1766015792.006496,26
1766015792.0065038,28
1766015792.0065122,22
1766015792.00652,23
1766015792.006528,29
1766015792.006536,24
1766015792.0065439,24
1766015792.006552,23
1766015792.00656,27
1766015792.006568,24
1766015792.006576,25
1766015792.0065842,23
1766015792.006592,25
1766015792.0066,23
1766015792.006607,23
1766015792.006614,24
1766015792.006621,21
1766015792.006628,23
1766015792.006635,23
1766015792.0066419,25
1766015792.006648,26
1766015792.006655,23
1766015792.006662,23
1766015792.006669,26
1766015792.006676,25
1766015792.006686,24
1766015792.0066938,25
1766015792.0067,21
1766015792.006707,23
1766015792.006714,23
1766015792.006721,25
1766015792.006727,26
1766015792.0067341,26
1766015792.006741,25
1766015792.0067468,23
1766015792.0067542,26
1766015792.006761,21
1766015792.006767,22
1766015792.006774,22
1766015792.0067809,24
1766015792.006788,25
1766015792.006794,25
1766015792.006801,21
1766015792.006808,22
1766015792.006816,27
1766015792.0068228,25
1766015792.006829,24
1766015792.006836,22
1766015792.0068429,24
1766015792.00685,25
1766015792.006856,24
1766015792.006863,23
1766015792.00687,22
1766015792.006877,26
1766015792.006884,24
1766015792.00689,22
1766015792.006897,25
1766015792.0069041,26
1766015792.006913,22
1766015792.006921,21
1766015792.006927,22
1766015792.006934,25
1766015792.0069408,20
1766015792.006948,22
1766015792.006954,25
1766015792.0069609,24
1766015792.006968,25
1766015792.006975,24
1766015792.0069818,26
1766015792.006988,23
1766015792.006995,23
1766015792.007002,22
1766015792.007009,24
1766015792.007016,22
1766015792.0070221,26
1766015792.007029,25
1766015792.007036,23
1766015792.007042,24
1766015792.0070488,26
1766015792.0070558,23
1766015792.0070632,26
1766015792.00707,24
1766015792.007076,27
1766015792.007083,26
1766015792.0070899,26
1766015792.007097,24
1766015792.007104,26
1766015792.0071099,25
1766015792.007117,23
1766015792.007124,26
1766015792.0071309,26
1766015792.0071402,25
1766015792.007148,24
1766015792.007155,27
1766015792.007162,23
1766015792.007169,23
1766015792.007175,27
1766015792.0071821,23
1766015792.007189,24
1766015792.007195,23
1766015792.0072021,22
1766015792.007209,26
1766015792.0072162,25
1766015792.007222,26
1766015792.0072289,22
1766015792.007235,26
1766015792.007242,23
1766015792.0072489,25
1766015792.007256,26
1766015792.007262,25
1766015792.0072691,25
1766015792.007276,25
1766015792.007282,25
1766015792.0072892,25
1766015792.007296,23
1766015792.0073018,25
1766015792.007309,25
1766015792.0073159,24
1766015792.0073228,22
1766015792.007329,26
1766015792.007336,29
1766015792.007343,25
1766015792.007349,23
1766015792.007356,26
1766015792.0073652,28
1766015792.007373,25
1766015792.00738,22
1766015792.0073862,27
1766015792.0073931,24
1766015792.0073988,27
1766015792.007406,28
1766015792.007413,23
1766015792.0074198,25
1766015792.007426,28
1766015792.007433,27
1766015792.0074391,28
1766015792.007446,28
1766015792.007453,28
1766015792.0074592,26
1766015792.007466,27
1766015792.007473,23
1766015792.007479,26
1766015792.0074859,27
1766015792.007493,29
1766015792.007499,25
1766015792.007506,25
1766015792.007513,26
1766015792.007519,28
1766015792.007526,27
1766015792.007533,28
1766015792.007539,26
1766015792.0075462,26
1766015792.007553,26
1766015792.00756,28
1766015792.007568,26
1766015792.007574,26
1766015792.007581,26
1766015792.007592,30
1766015792.007599,23
1766015792.007606,24
1766015792.007613,27
1766015792.0076191,24
1766015792.007626,25
1766015792.007633,26
1766015792.007639,25
1766015792.0076458,24
1766015792.0076532,25
1766015792.0076602,30
1766015792.0076659,28
1766015792.007673,26
1766015792.00768,28
1766015792.007686,25
1766015792.007693,26
1766015792.0077,27
1766015792.0077069,25
1766015792.007713,23
1766015792.00772,29
1766015792.0077271,25
1766015792.007734,28
1766015792.00774,24
1766015792.0077472,26
1766015792.007754,28
1766015792.0077598,29
1766015792.007767,28
1766015792.0077739,29
1766015792.007781,27
1766015792.007787,26
1766015792.007794,27
1766015792.007801,25
1766015792.007807,24
1766015792.007817,24
1766015792.007825,25
1766015792.007832,28
1766015792.007838,29
1766015792.0078452,26
1766015792.007852,28
1766015792.007859,30
1766015792.0078661,28
1766015792.007873,27
1766015792.00788,28
1766015792.0078871,27
1766015792.007893,27
1766015792.007901,25
1766015792.0079072,27
1766015792.007914,27
1766015792.007921,25
1766015792.0079281,28
1766015792.007935,23
1766015792.007942,25
1766015792.007949,26
1766015792.007956,25
1766015792.007963,27
1766015792.00797,25
1766015792.007977,27
1766015792.0079842,28
1766015792.007991,25
1766015792.007998,29
1766015792.0080051,29
1766015792.008012,27
1766015792.008019,27
1766015792.0080252,29
1766015792.008032,29
1766015792.008039,27
1766015792.008047,26
1766015792.0080562,26
1766015792.008062,29
1766015792.008069,28
1766015792.008076,26
1766015792.008082,30
1766015792.008089,28
1766015792.008096,26
1766015792.008103,31
1766015792.00811,30
1766015792.008117,28
1766015792.0081239,31
1766015792.008131,30
1766015792.008138,30
1766015792.0081449,29
1766015792.008152,26
1766015792.008159,30
1766015792.0081658,30
1766015792.008173,29
1766015792.00818,31
1766015792.0081868,30
1766015792.008194,29
1766015792.008201,26
1766015792.008207,26
1766015792.008214,31
1766015792.0082219,30
1766015792.008228,30
1766015792.008235,29
1766015792.008242,31
1766015792.008249,33
1766015792.008256,26
1766015792.0082629,30
1766015792.00827,29
1766015792.008279,29
1766015792.008288,29
1766015792.0082948,31
1766015792.008301,30
1766015792.008308,30
1766015792.0083148,28
1766015792.008322,30
1766015792.008328,29
1766015792.008335,32
1766015792.008342,31
1766015792.008348,30
1766015792.0083551,30
1766015792.008362,26
1766015792.008368,30
1766015792.008375,30
1766015792.0083818,29
1766015792.008388,29
1766015792.008395,30
1766015792.0084019,29
1766015792.008408,30
1766015792.008415,30
1766015792.008422,30
1766015792.008429,30
1766015792.008435,29
1766015792.0084422,33
1766015792.008449,31
1766015792.008456,32
1766015792.0084622,33
1766015792.008469,33
1766015792.008476,34
1766015792.008482,32
1766015792.008489,32
1766015792.008496,31
1766015792.008506,30
1766015792.0085142,32
1766015792.00852,32
1766015792.008527,31
1766015792.008534,34
1766015792.00854,34
1766015792.008547,32
1766015792.008554,35
1766015792.008561,31
1766015792.008568,32
1766015792.008574,33
1766015792.0085812,37
1766015792.008588,31
1766015792.008595,34
1766015792.0086012,33
1766015792.008608,37
1766015792.008615,33
1766015792.008621,33
1766015792.008628,35
1766015792.0086348,32
1766015792.008642,36
1766015792.0086489,34
1766015792.008655,32
1766015792.008662,32
1766015792.008669,39
1766015792.008675,35
1766015792.008682,35
1766015792.008689,37
1766015792.008696,37
1766015792.008702,33
1766015792.0087092,38
1766015792.008716,36
1766015792.0087218,34
1766015792.0087318,35
1766015792.0087402,36
1766015792.008747,34
1766015792.008754,37
1766015792.0087628,37
1766015792.00877,33
1766015792.008777,38
1766015792.008783,37
1766015792.00879,39
1766015792.008797,38
1766015792.0088031,38
1766015792.00881,39
1766015792.008817,39
1766015792.008824,38
1766015792.00883,39
1766015792.0088372,36
1766015792.0088441,37
1766015792.008851,37
1766015792.008857,38
1766015792.008864,38
1766015792.0088708,39
1766015792.008878,37
1766015792.008884,37
1766015792.0088909,35
1766015792.008898,35
1766015792.008905,41
1766015792.0089111,40
1766015792.008918,41
1766015792.008925,41
1766015792.0089312,40
1766015792.008938,43
1766015792.008945,39
1766015792.0089521,42
1766015792.008961,40
1766015792.008969,41
1766015792.008975,42
1766015792.008982,41
1766015792.0089889,41
1766015792.008996,43
1766015792.009002,41
1766015792.009009,41
1766015792.009016,44
1766015792.009023,43
1766015792.0090292,41
1766015792.009036,44
1766015792.009043,45
1766015792.0090501,45
1766015792.009057,44
1766015792.009063,43
1766015792.0090702,44
1766015792.009077,47
1766015792.009084,44
1766015792.0090911,46
1766015792.0090969,45
1766015792.0091038,45
1766015792.009111,44
1766015792.0091178,49
1766015792.0091252,44
1766015792.0091321,47
1766015792.009139,46
1766015792.009145,48
1766015792.009152,44
1766015792.0091588,47
1766015792.009166,50
1766015792.009173,48
1766015792.0091798,50
1766015792.0091908,52
1766015792.0091982,45
1766015792.009205,49
1766015792.009212,47
1766015792.009218,49
1766015792.009225,49
1766015792.0092318,51
1766015792.009238,49
1766015792.009245,50
1766015792.009252,52
1766015792.009259,51
1766015792.009266,50
1766015792.009272,51
1766015792.009279,49
1766015792.009286,49
1766015792.009293,48
1766015792.009299,51
1766015792.0093079,52
1766015792.009315,51
1766015792.009322,50
1766015792.0093288,50
1766015792.009336,50
1766015792.009342,52
1766015792.009349,52
1766015792.009356,49
1766015792.009362,51
1766015792.0093691,52
1766015792.009376,52
1766015792.009383,53
1766015792.0093892,53
1766015792.009396,51
1766015792.009403,51
1766015792.009412,51
1766015792.00942,52
1766015792.0094268,52
1766015792.009433,50
1766015792.00944,53
1766015792.0094469,52
1766015792.009453,54
1766015792.00946,54
1766015792.009467,50
1766015792.009474,53
1766015792.00948,54
1766015792.0094872,53
1766015792.009494,52
1766015792.009501,53
1766015792.0095072,55
1766015792.009514,52
1766015792.009521,55
1766015792.0095282,51
1766015792.009534,52
1766015792.009541,54
1766015792.009548,55
1766015792.0095549,55
1766015792.009561,53
1766015792.009568,53
1766015792.009575,55
1766015792.009582,57
1766015792.009588,54
1766015792.009595,56
1766015792.009602,56
1766015792.009608,57
1766015792.0096152,57
1766015792.009622,57
1766015792.0096278,56
1766015792.009639,56
1766015792.0096462,57
1766015792.009652,58
1766015792.0096588,55
1766015792.009666,57
1766015792.009672,56
1766015792.009679,57
1766015792.009686,59
1766015792.009693,58
1766015792.009699,55
1766015792.009706,59
1766015792.009713,58
1766015792.0097191,57
1766015792.009726,56
1766015792.0097332,58
1766015792.009739,61
1766015792.0097458,59
1766015792.009753,59
1766015792.00976,55
1766015792.0097659,60
1766015792.009773,56
1766015792.00978,58
1766015792.0097868,58
1766015792.009794,58
1766015792.0098,57
1766015792.009807,59
1766015792.009814,61
1766015792.009821,59
1766015792.0098271,60
1766015792.009834,60
1766015792.009841,61
1766015792.009848,62
1766015792.009857,58
1766015792.0098639,59
1766015792.009871,59
1766015792.009878,60
1766015792.0098839,55
1766015792.009891,60
1766015792.009898,58
1766015792.0099041,60
1766015792.009911,59
1766015792.009918,60
1766015792.0099242,59
1766015792.009931,59
1766015792.009938,57
1766015792.0099452,60
1766015792.0099509,60
1766015792.0099578,61
1766015792.009965,60
1766015792.0099719,60
1766015792.009978,60
1766015792.009985,59
1766015792.009992,60
1766015792.009999,59
1766015792.010005,60
1766015792.010012,61
1766015792.010019,58
1766015792.010025,61
1766015792.0100322,58
1766015792.010039,59
1766015792.010046,60
1766015792.0100522,62
1766015792.010059,60
1766015792.010066,63
1766015792.0100732,60
1766015792.010085,60
1766015792.010092,63
1766015792.010099,62
1766015792.0101051,61
1766015792.010112,60
1766015792.010119,59
1766015792.010126,62
1766015792.010133,62
1766015792.010139,62
1766015792.0101461,62
1766015792.010153,63
1766015792.010159,62
1766015792.010166,61
1766015792.0101728,62
1766015792.01018,59
1766015792.010186,60
1766015792.0101929,59
1766015792.0102,63
1766015792.010206,61
1766015792.0102131,61
1766015792.01022,61
1766015792.010226,63
1766015792.0102332,63
1766015792.01024,59
1766015792.0102458,59
1766015792.010253,59
1766015792.0102599,62
1766015792.010266,61
1766015792.010273,57
1766015792.01028,62
1766015792.010286,64
1766015792.010293,61
1766015792.010302,60
1766015792.01031,60
1766015792.010317,57
1766015792.010324,63
1766015792.010331,63
1766015792.010337,62
1766015792.010344,66
1766015792.0103512,61
1766015792.010358,63
1766015792.0103638,60
1766015792.010371,63
1766015792.010378,64
1766015792.0103838,60
1766015792.010391,65
1766015792.010398,63
1766015792.010405,60
1766015792.010412,64
1766015792.010418,62
1766015792.010425,62
1766015792.010432,62
1766015792.010438,60
1766015792.010445,62
1766015792.010452,62
1766015792.010459,64
1766015792.010465,62
1766015792.0104718,62
1766015792.0104792,62
1766015792.0104861,57
1766015792.010493,60
1766015792.0105002,65
1766015792.010506,65
1766015792.0105128,61
1766015792.01052,59
1766015792.010529,61
1766015792.010537,59
1766015792.010543,62
1766015792.01055,60
1766015792.010557,60
1766015792.010564,59
1766015792.010571,57
1766015792.010577,60
1766015792.010584,61
1766015792.010591,61
1766015792.010598,60
1766015792.010605,58
1766015792.010612,58
1766015792.0106182,57
1766015792.0106251,62
1766015792.010632,61
1766015792.0106392,64
1766015792.010645,58
1766015792.0106518,60
1766015792.010659,59
1766015792.010666,59
1766015792.0106728,61
1766015792.010679,57
1766015792.010686,57
1766015792.010693,60
1766015792.0107,57
1766015792.010707,58
1766015792.010714,58
1766015792.010721,61
1766015792.010727,58
1766015792.010734,59
1766015792.010741,60
1766015792.010748,59
1766015792.0107572,59
1766015792.0107641,58
1766015792.010771,57
1766015792.0107782,55
1766015792.010785,59
1766015792.0107908,55
1766015792.010798,59
1766015792.010805,56
1766015792.0108109,56
1766015792.010818,56
1766015792.010824,57
1766015792.010831,55
1766015792.010838,55
1766015792.010845,55
1766015792.0108511,54
1766015792.010858,53
1766015792.010865,56
1766015792.0108721,53
1766015792.0108778,55
1766015792.0108852,54
1766015792.010892,55
1766015792.0108988,55
1766015792.010905,51
1766015792.010912,56
1766015792.0109189,55
1766015792.010926,53
1766015792.010933,53
1766015792.010939,50
1766015792.010946,54
1766015792.010953,54
1766015792.0109599,51
1766015792.010967,54
1766015792.010974,51
1766015792.010985,53
1766015792.010992,53
1766015792.010999,54
1766015792.011005,56
1766015792.011012,54
1766015792.011019,57
1766015792.011026,51
1766015792.011033,52
1766015792.01104,52
1766015792.011047,53
1766015792.011053,51
1766015792.01106,52
1766015792.011067,53
1766015792.011074,54
1766015792.011081,54
1766015792.0110872,51
1766015792.011094,50
1766015792.011101,50
1766015792.011107,53
1766015792.011114,55
1766015792.0111208,56
1766015792.011127,54
1766015792.011134,51
1766015792.011141,53
1766015792.011148,54
1766015792.011154,53
1766015792.011161,52
1766015792.011168,54
1766015792.011175,52
1766015792.011181,52
1766015792.011188,52
1766015792.011195,52
1766015792.011202,51
1766015792.0112078,54
1766015792.0112152,50
1766015792.0112221,53
1766015792.0112278,56
1766015792.011235,51
1766015792.011242,51
1766015792.0112488,54
1766015792.011255,51
1766015792.011262,52
1766015792.011269,50
1766015792.011276,51
1766015792.011282,50
1766015792.0112891,52
1766015792.011296,48
1766015792.011302,49
1766015792.0113091,52
1766015792.011316,54
1766015792.011323,48
1766015792.0113301,52
1766015792.0113358,50
1766015792.011343,50
1766015792.01135,49
1766015792.0113568,52
1766015792.011364,52
1766015792.011371,52
1766015792.0113778,55
1766015792.011384,49
1766015792.011391,51
1766015792.0113978,49
1766015792.011404,52
1766015792.011411,50
1766015792.011418,51
1766015792.011424,50
1766015792.011431,52
1766015792.0114381,52
1766015792.011445,53
1766015792.0114508,51
1766015792.0114582,51
1766015792.011465,47
1766015792.011472,51
1766015792.011478,52
1766015792.0114849,49
1766015792.011492,47
1766015792.011499,48
1766015792.0115058,50
1766015792.011512,48
1766015792.011519,47
1766015792.0115259,50
1766015792.011533,47
1766015792.011539,48
1766015792.0115461,50
1766015792.011553,50
1766015792.01156,48
1766015792.011567,51
1766015792.011573,46
1766015792.01158,51
1766015792.0115871,48
1766015792.011594,49
1766015792.0115998,50
1766015792.011607,48
1766015792.0116138,48
1766015792.01162,49
1766015792.011627,50
1766015792.0116339,49
1766015792.011641,46
1766015792.011648,50
1766015792.0116549,47
1766015792.011662,46
1766015792.011669,47
1766015792.0116758,45
1766015792.011683,50
1766015792.011689,50
1766015792.011696,51
1766015792.011703,50
1766015792.01171,44
1766015792.0117161,49
1766015792.011723,49
1766015792.01173,48
1766015792.011737,46
1766015792.011743,44
1766015792.01175,46
1766015792.0117571,46
1766015792.011764,49
1766015792.011771,47
1766015792.011778,48
1766015792.011785,46
1766015792.011792,49
1766015792.011799,46
1766015792.0118048,49
1766015792.0118122,46
1766015792.0118191,46
1766015792.011826,46
1766015792.0118332,44
1766015792.01184,47
1766015792.011847,46
1766015792.0118542,45
1766015792.011861,46
1766015792.011868,44
1766015792.0118752,44
1766015792.011882,47
1766015792.011889,43
1766015792.0118961,46
1766015792.0119019,42
1766015792.011909,43
1766015792.011916,44
1766015792.011934,43
1766015792.0119429,44
1766015792.01195,42
1766015792.011957,45
1766015792.0119638,46
1766015792.01197,46
1766015792.011977,45
1766015792.0119839,44
1766015792.011991,47
1766015792.011997,45
1766015792.0120041,44
1766015792.012011,42
1766015792.012018,45
1766015792.0120242,43
1766015792.012031,44
1766015792.012037,43
1766015792.012044,44
1766015792.0120509,43
1766015792.012058,44
1766015792.012064,44
1766015792.012071,40
1766015792.012078,45
1766015792.012084,43
1766015792.012091,42
1766015792.012098,42
1766015792.012105,43
1766015792.0121112,43
1766015792.012118,42
1766015792.012125,44
1766015792.012131,43
1766015792.012138,43
1766015792.0121448,41
1766015792.012152,42
1766015792.012158,42
1766015792.012165,43
1766015792.012172,40
1766015792.012179,43
1766015792.012185,43
1766015792.012192,42
1766015792.012199,42
1766015792.0122051,42
1766015792.012212,43
1766015792.012219,42
1766015792.012226,43
1766015792.0122318,39
1766015792.0122392,38
1766015792.0122461,41
1766015792.012253,41
1766015792.0122602,40
1766015792.012268,39
1766015792.012276,40
1766015792.0122821,43
1766015792.012289,42
1766015792.012296,40
1766015792.012303,39
1766015792.012309,40
1766015792.012316,41
1766015792.0123231,39
1766015792.01233,41
1766015792.012336,40
1766015792.012343,39
1766015792.0123498,40
1766015792.0123572,41
1766015792.0123641,43
1766015792.0123699,40
1766015792.012377,42
1766015792.012384,37
1766015792.0123909,40
1766015792.012397,37
1766015792.012404,39
1766015792.0124102,36
1766015792.012417,38
1766015792.012424,38
1766015792.0124302,37
1766015792.012437,37
1766015792.012444,37
1766015792.0124512,38
1766015792.012457,38
1766015792.012464,37
1766015792.012471,37
1766015792.0124779,36
1766015792.012484,35
1766015792.012491,38
1766015792.012498,38
1766015792.012505,35
1766015792.012511,38
1766015792.012518,37
1766015792.012525,34
1766015792.012532,37
1766015792.0125382,36
1766015792.012545,36
1766015792.0125508,35
1766015792.012558,36
1766015792.012564,37
1766015792.0125701,35
1766015792.012576,37
1766015792.0125818,35
1766015792.012589,34
1766015792.012595,31
1766015792.0126011,36
1766015792.0126069,36
1766015792.0126138,37
1766015792.01262,34
1766015792.012626,32
1766015792.0126321,35
1766015792.012639,35
1766015792.012645,30
1766015792.012651,35
1766015792.012657,33
1766015792.0126631,32
1766015792.0126688,34
1766015792.012676,31
1766015792.012682,35
1766015792.012688,36
1766015792.0126941,32
1766015792.012701,33
1766015792.013469,33
1766015792.014393,31
1766015792.015413,31
1766015792.016393,32
1766015792.017422,31
1766015792.018432,34
1766015792.019392,32
1766015792.020416,34
1766015792.0213928,29
1766015792.0224261,32
1766015792.023443,30
1766015792.024441,30
1766015792.025423,34
1766015792.0264268,33
1766015792.02746,32
1766015792.028447,33
1766015792.029484,33
1766015792.0304499,28
1766015792.031478,31
1766015792.032466,31
1766015792.0334861,33
1766015792.034461,32
1766015792.0354712,28
1766015792.036462,28
1766015792.0375118,28
1766015792.038475,31
1766015792.0394602,25
1766015792.040482,31
1766015792.041497,32
1766015792.042472,27
1766015792.043478,28
1766015792.044508,30
1766015792.045463,28
1766015792.046485,29
1766015792.047467,29
1766015792.0484931,27
1766015792.049568,27
1766015792.050525,28
1766015792.051539,30
1766015792.052543,29
1766015792.053549,25
1766015792.054527,30
1766015792.0555289,27
1766015792.056504,27
1766015792.0575428,32
1766015792.05854,28
1766015792.059542,32
1766015792.060531,32
1766015792.0615199,29
1766015792.062541,25
1766015792.063539,28
1766015792.064554,27
1766015792.065554,28
1766015792.066564,26
1766015792.067533,24
1766015792.068554,28
1766015792.0695648,27
1766015792.070556,24
1766015792.071583,26
1766015792.072563,25
1766015792.0735738,25
1766015792.074568,24
1766015792.0755808,25
1766015792.076567,25
1766015792.077587,27
1766015792.078603,23
1766015792.079595,27
1766015792.0805812,27
1766015792.0815868,24
1766015792.082596,26
1766015792.083617,26
1766015792.0846238,23
1766015792.0856168,25
1766015792.086613,26
1766015792.087625,26
1766015792.088636,27
1766015792.089642,23
1766015792.0906382,27
1766015792.091646,26
1766015792.092654,24
1766015792.093657,29
1766015792.094663,25
1766015792.095625,24
1766015792.096659,23
1766015792.0976808,25
1766015792.0986528,25
1766015792.099658,25
1766015792.100662,27
1766015792.10168,24
1766015792.1026702,26
1766015792.1036758,25
1766015792.104676,24
1766015792.105681,26
1766015792.106672,25
1766015792.107668,27
1766015792.1086771,28
1766015792.109696,22
1766015792.110694,26
1766015792.111691,21
1766015792.112677,28
1766015792.1136918,19
1766015792.1146948,25
1766015792.115711,25
1766015792.11671,22
1766015792.117707,23
1766015792.11872,24
1766015792.1197069,22
1766015792.120695,25
1766015792.12173,27
1766015792.1227221,25
1766015792.123713,24
1766015792.124707,23
1766015792.125772,26
1766015792.126743,23
1766015792.1277251,24
1766015792.128726,24
1766015792.129725,24
1766015792.1307461,22
1766015792.1317298,25
1766015792.13274,20
1766015792.1337962,23
1766015792.13478,26
1766015792.135724,26
1766015792.13679,26
1766015792.137792,24
1766015792.138711,22
1766015792.139759,25
1766015792.140717,25
1766015792.141759,24
1766015792.14272,22
1766015792.143789,23
1766015792.144814,22
1766015792.145728,24
1766015792.146785,24
1766015792.1477911,21
1766015792.148756,23
1766015792.149781,24
1766015792.150754,22
1766015792.151753,21
1766015792.152768,27
1766015792.153772,23
1766015792.1548219,20
1766015792.155807,23
1766015792.156822,22
1766015792.1577642,25
1766015792.1588092,26
1766015792.159841,26
1766015792.1608262,22
1766015792.1618292,24
1766015792.162817,23
1766015792.1638231,23
1766015792.164819,23
1766015792.1657999,25
1766015792.166827,24
1766015792.167834,24
1766015792.168818,24
1766015792.169827,24
1766015792.170794,23
1766015792.17186,22
1766015792.1728551,23
1766015792.173849,21
1766015792.174806,23
1766015792.17582,23
1766015792.1768441,25
1766015792.177852,25
1766015792.1788402,25
1766015792.179866,24
1766015792.1808388,19
1766015792.181843,25
1766015792.182863,22
1766015792.183854,25
1766015792.184886,21
1766015792.1858618,25
1766015792.186862,27
1766015792.1878679,23
1766015792.188892,24
1766015792.189889,25
1766015792.190895,22
1766015792.1918988,25
1766015792.1929002,23
1766015792.1939032,23
1766015792.194906,24
1766015792.195895,21
1766015792.1969018,25
1766015792.197912,24
1766015792.198926,26
1766015792.1999202,21
1766015792.200921,22
1766015792.201918,24
1766015792.202928,25
1766015792.203922,23
1766015792.204936,24
1766015792.205927,21
1766015792.206945,20
1766015792.207944,23
1766015792.208927,20
1766015792.2099478,23
1766015792.2109492,22
1766015792.211946,23
1766015792.212947,24
1766015792.213954,23
1766015792.214945,24
1766015792.21595,25
1766015792.216961,21
1766015792.21797,20
1766015792.218973,23
1766015792.2199721,23
1766015792.2209642,23
1766015792.221966,23
1766015792.222974,24
1766015792.223995,24
1766015792.2249842,24
1766015792.225986,21
1766015792.226979,25
1766015792.227989,24
1766015792.228984,23
1766015792.2300029,25
1766015792.230987,22
1766015792.232007,23
1766015792.2330098,24
1766015792.234006,26
1766015792.234992,22
1766015792.2360299,24
1766015792.237033,22
1766015792.238009,24
1766015792.239039,23
1766015792.240032,24
1766015792.241029,26
1766015792.242034,22
1766015792.2430348,22
1766015792.244034,24
1766015792.245051,24
1766015792.246073,23
1766015792.247073,26
1766015792.248044,21
1766015792.249036,24
1766015792.250046,25
1766015792.2510521,25
1766015792.2520478,26
1766015792.253066,23
1766015792.2540622,24
1766015792.2550762,26
1766015792.256064,27
1766015792.2570739,23
1766015792.258095,27
1766015792.259068,31
1766015792.2600808,27
1766015792.2610729,31
1766015792.2621021,33
1766015792.2631,30
1766015792.2641122,33
1766015792.26512,35
1766015792.266102,30
1766015792.267099,32
1766015792.268111,31
1766015792.269124,30
1766015792.270108,31
1766015792.2711308,30
1766015792.272119,33
1766015792.273115,30
1766015792.274129,31
1766015792.275129,28
1766015792.27616,35
1766015792.277149,31
1766015792.278125,31
1766015792.2791412,33
1766015792.280148,35
1766015792.2811341,31
1766015792.2821262,32
1766015792.283138,34
1766015792.284151,31
1766015792.285166,36
1766015792.286151,36
1766015792.287169,35
1766015792.2881641,37
1766015792.289172,39
1766015792.290258,39
1766015792.291157,39
1766015792.2921548,38
1766015792.293246,38
1766015792.294243,38
1766015792.29525,41
1766015792.2962508,40
1766015792.2972538,38
1766015792.298253,43
1766015792.299264,40
1766015792.300274,41
1766015792.301258,41
1766015792.302259,41
1766015792.303278,41
1766015792.304291,41
1766015792.305276,45
1766015792.30627,41
1766015792.307283,43
1766015792.308275,42
1766015792.3092558,42
1766015792.310248,45
1766015792.311254,45
1766015792.312226,45
1766015792.3132238,45
1766015792.3142211,45
1766015792.3152268,50
1766015792.316214,57
1766015792.3172328,68
1766015792.31825,78
1766015792.319227,88
1766015792.320221,98
1766015792.3213398,107
1766015792.322321,110
1766015792.323328,106
1766015792.32433,106
1766015792.325335,106
1766015792.326344,107
1766015792.327352,104
1766015792.32835,109
1766015792.329346,107
1766015792.330348,106
1766015792.3313432,107
1766015792.332334,110
1766015792.333363,108
1766015792.3343601,109
1766015792.335449,106
1766015792.336405,107
1766015792.337412,104
1766015792.338433,106
1766015792.339401,103
1766015792.3404129,102
1766015792.3414211,103
1766015792.342391,105
1766015792.343431,104
1766015792.34443,110
1766015792.3454459,115
1766015792.346463,122
1766015792.347448,126
1766015792.348435,128
1766015792.349447,131
1766015792.35042,129
1766015792.351446,130
1766015792.352428,128
1766015792.353482,126
1766015792.3544698,130
1766015792.355459,129
1766015792.3564532,129
1766015792.357456,129
1766015792.358461,132
1766015792.359473,135
1766015792.3604631,140
1766015792.36148,139
1766015792.36245,140
1766015792.3634639,142
1766015792.364467,140
1766015792.3654678,147
1766015792.366473,148
1766015792.367469,150
1766015792.368469,149
1766015792.3694808,152
1766015792.37049,149
1766015792.371485,149
1766015792.372478,151
1766015792.373504,151
1766015792.374496,155
1766015792.375495,161
1766015792.376499,167
1766015792.377517,164
1766015792.378516,163
1766015792.379515,163
1766015792.3805282,163
1766015792.381521,163
1766015792.382528,161
1766015792.383518,162
1766015792.384522,160
1766015792.385511,158
1766015792.386513,162
1766015792.387517,165
1766015792.3885372,173
1766015792.389558,180
1766015792.390551,184
1766015792.391544,180
1766015792.392533,179
1766015792.3935418,177
1766015792.394531,189
1766015792.3955011,200
1766015792.396563,204
1766015792.3975081,211
1766015792.398561,213
1766015792.3995678,213
1766015792.400564,214
1766015792.40156,212
1766015792.40256,209
1766015792.403585,209
1766015792.4045749,203
1766015792.40559,207
1766015792.406569,206
1766015792.4075751,201
1766015792.408561,203
1766015792.409599,202
1766015792.410808,200
1766015792.411614,199
1766015792.41257,199
1766015792.4135969,199
1766015792.414567,203
1766015792.41571,202
1766015792.416592,200
1766015792.417561,199
1766015792.418572,194
1766015792.419578,191
1766015792.4205818,189
1766015792.42159,189
1766015792.422637,189
1766015792.423615,190
1766015792.4246259,193
1766015792.425607,197
1766015792.426644,205
1766015792.427587,218
1766015792.4286988,231
1766015792.429595,233
1766015792.4305978,236
1766015792.431621,242
1766015792.4326,244
1766015792.4336052,242
1766015792.4346051,240
1766015792.435606,237
1766015792.43661,238
1766015792.43763,240
1766015792.438637,240
1766015792.439636,237
