timestamp,emg_value
1766015807.288068,86
1766015807.288089,87
1766015807.288106,84
1766015807.2881222,83
1766015807.288138,84
1766015807.2881541,83
1766015807.288169,82
1766015807.2881842,81
1766015807.2882,82
1766015807.288215,78
1766015807.28823,81
1766015807.288245,80
1766015807.28826,82
1766015807.288275,85
1766015807.288291,82
1766015807.288306,83
1766015807.288321,80
1766015807.288338,80
1766015807.288353,82
1766015807.2883682,80
1766015807.288383,81
1766015807.288398,83
1766015807.2884128,79
1766015807.288428,80
1766015807.2884429,78
1766015807.288459,76
1766015807.288474,77
1766015807.2884889,79
1766015807.2885041,78
1766015807.288519,82
1766015807.288534,79
1766015807.2885492,78
1766015807.288574,78
1766015807.2885902,75
1766015807.288605,82
1766015807.28862,81
1766015807.2886348,82
1766015807.28865,79
1766015807.288666,80
1766015807.288681,79
1766015807.288696,79
1766015807.288712,77
1766015807.288727,76
1766015807.2887418,75
1766015807.288758,77
1766015807.288773,77
1766015807.288788,80
1766015807.2888021,79
1766015807.288818,76
1766015807.2888331,78
1766015807.288848,74
1766015807.288863,72
1766015807.288878,79
1766015807.288894,74
1766015807.288909,75
1766015807.288925,74
1766015807.28894,75
1766015807.288955,70
1766015807.28897,73
1766015807.288985,74
1766015807.289,71
1766015807.289015,70
1766015807.289031,69
1766015807.289046,69
1766015807.289064,68
1766015807.289082,68
1766015807.289092,68
1766015807.289102,69
1766015807.289112,64
1766015807.289122,68
1766015807.289132,70
1766015807.2891421,70
1766015807.289152,74
1766015807.289164,74
1766015807.289174,73
1766015807.289184,72
1766015807.2891939,78
1766015807.2892082,76
1766015807.289218,76
1766015807.289228,77
1766015807.289239,77
1766015807.289249,75
1766015807.289259,75
1766015807.289269,75
1766015807.28928,75
1766015807.289291,77
1766015807.289301,77
1766015807.289311,77
1766015807.289321,80
1766015807.289331,83
1766015807.289341,84
1766015807.289351,82
1766015807.289361,81
1766015807.289372,86
1766015807.289382,87
1766015807.289393,85
1766015807.289403,85
1766015807.289418,83
1766015807.28943,85
1766015807.289443,89
1766015807.289454,87
1766015807.289464,84
1766015807.289474,84
1766015807.289485,87
1766015807.289496,89
1766015807.289508,85
1766015807.289518,87
1766015807.2895281,86
1766015807.2895381,87
1766015807.289553,84
1766015807.289564,82
1766015807.2895749,85
1766015807.2895858,84
1766015807.2895958,83
1766015807.2896059,82
1766015807.2896159,82
1766015807.2896261,76
1766015807.2896361,79
1766015807.2896461,76
1766015807.2896562,78
1766015807.289666,74
1766015807.289676,77
1766015807.289686,78
1766015807.289696,78
1766015807.289706,77
1766015807.289715,76
1766015807.2897248,73
1766015807.2897348,75
1766015807.2897449,79
1766015807.289779,77
1766015807.289789,77
1766015807.289799,74
1766015807.289809,75
1766015807.2898188,77
1766015807.289829,79
1766015807.289839,77
1766015807.289849,78
1766015807.289859,78
1766015807.289869,76
1766015807.289879,75
1766015807.289889,74
1766015807.289899,72
1766015807.289909,77
1766015807.28992,79
1766015807.2899299,85
1766015807.2899399,89
1766015807.28995,90
1766015807.28996,92
1766015807.28997,97
1766015807.289981,97
1766015807.289995,100
1766015807.290011,102
1766015807.290027,102
1766015807.2900429,103
1766015807.290056,97
1766015807.290069,98
1766015807.290081,99
1766015807.2900941,96
1766015807.2901068,98
1766015807.29012,95
1766015807.290133,96
1766015807.290148,95
1766015807.290161,92
1766015807.290174,90
1766015807.2901871,92
1766015807.2902,91
1766015807.290213,89
1766015807.290226,89
1766015807.2902389,89
1766015807.290251,87
1766015807.2902641,87
1766015807.290277,87
1766015807.2902899,84
1766015807.290308,85
1766015807.290323,85
1766015807.290336,83
1766015807.2903502,87
1766015807.2903621,81
1766015807.290375,81
1766015807.2903879,78
1766015807.290401,77
1766015807.290414,81
1766015807.290427,79
1766015807.2904398,81
1766015807.290453,77
1766015807.290466,74
1766015807.2904792,76
1766015807.2904918,75
1766015807.290505,74
1766015807.290518,74
1766015807.29053,76
1766015807.290544,74
1766015807.290557,72
1766015807.29057,70
1766015807.290586,72
1766015807.2905989,74
1766015807.290612,68
1766015807.290625,70
1766015807.290638,73
1766015807.2906508,69
1766015807.290663,72
1766015807.2906759,74
1766015807.290689,80
1766015807.290702,88
1766015807.290715,96
1766015807.290731,106
1766015807.290747,103
1766015807.290765,107
1766015807.290781,110
1766015807.290797,116
1766015807.2908149,118
1766015807.290831,119
1766015807.290847,120
1766015807.290865,117
1766015807.290882,121
1766015807.2908978,118
1766015807.290914,116
1766015807.2909288,114
1766015807.290946,115
1766015807.290962,115
1766015807.290978,116
1766015807.290993,116
1766015807.291013,116
1766015807.291029,115
1766015807.291046,116
1766015807.291063,115
1766015807.2910788,113
1766015807.291095,112
1766015807.291111,107
1766015807.291126,110
1766015807.291142,108
1766015807.291158,107
1766015807.291174,107
1766015807.29119,105
1766015807.291206,103
1766015807.291222,102
1766015807.2912378,101
1766015807.291254,103
1766015807.2912698,102
1766015807.291286,101
1766015807.291302,101
1766015807.291314,98
1766015807.291327,96
1766015807.291341,96
1766015807.291355,93
1766015807.291368,96
1766015807.291381,90
1766015807.291394,90
1766015807.291407,91
1766015807.29142,88
1766015807.291436,86
1766015807.29145,86
1766015807.291462,86
1766015807.291475,89
1766015807.291488,87
1766015807.291502,82
1766015807.2915149,86
1766015807.2915268,85
1766015807.29154,80
1766015807.291554,83
1766015807.291567,82
1766015807.2915788,83
1766015807.291592,81
1766015807.291605,79
1766015807.291619,80
1766015807.291633,78
1766015807.291646,76
1766015807.291659,74
1766015807.291672,71
1766015807.2916858,76
1766015807.291699,74
1766015807.291712,74
1766015807.2917252,73
1766015807.291738,72
1766015807.291751,74
1766015807.291764,69
1766015807.2917771,72
1766015807.291789,72
1766015807.291803,70
1766015807.291816,68
1766015807.291829,67
1766015807.291842,69
1766015807.291855,66
1766015807.291893,64
1766015807.291907,63
1766015807.29192,67
1766015807.2919328,65
1766015807.291946,65
1766015807.291959,67
1766015807.2919722,67
1766015807.2919848,66
1766015807.291998,65
1766015807.292011,64
1766015807.2920241,64
1766015807.292037,62
1766015807.29205,62
1766015807.292063,64
1766015807.292076,64
1766015807.292089,67
1766015807.2921019,71
1766015807.292115,75
1766015807.292128,75
1766015807.292141,77
1766015807.292154,82
1766015807.292168,85
1766015807.29218,86
1766015807.2921941,87
1766015807.292207,88
1766015807.2922199,85
1766015807.292234,91
1766015807.292246,95
1766015807.2922602,96
1766015807.292276,100
1766015807.29229,97
1766015807.292303,99
1766015807.2923222,100
1766015807.2923362,99
1766015807.292352,106
1766015807.292368,102
1766015807.292384,106
1766015807.2924001,108
1766015807.292416,112
1766015807.2924318,114
1766015807.292448,115
1766015807.292464,117
1766015807.29248,118
1766015807.292496,119
1766015807.292512,114
1766015807.2925282,111
1766015807.292544,113
1766015807.2925599,113
1766015807.292576,114
1766015807.292592,111
1766015807.292608,108
1766015807.292625,109
1766015807.292641,105
1766015807.292657,105
1766015807.292673,106
1766015807.2926888,107
1766015807.292705,107
1766015807.2927208,104
1766015807.2927392,103
1766015807.292755,102
1766015807.292772,102
1766015807.292785,99
1766015807.292798,99
1766015807.292811,98
1766015807.292824,95
1766015807.2928371,97
1766015807.29285,95
1766015807.292863,93
1766015807.292877,96
1766015807.29289,92
1766015807.292903,91
1766015807.292916,93
1766015807.292929,91
1766015807.292942,89
1766015807.292955,90
1766015807.292968,90
1766015807.292981,88
1766015807.292994,92
1766015807.2930071,89
1766015807.29302,89
1766015807.293033,86
1766015807.293046,85
1766015807.2930582,81
1766015807.293071,81
1766015807.293084,83
1766015807.293097,80
1766015807.2931101,85
1766015807.293123,79
1766015807.293136,80
1766015807.293149,81
1766015807.293164,79
1766015807.2931771,76
1766015807.293191,78
1766015807.293204,77
1766015807.293217,77
1766015807.29323,76
1766015807.293243,75
1766015807.2932549,75
1766015807.293268,75
1766015807.293281,72
1766015807.2932951,74
1766015807.293308,73
1766015807.293321,70
1766015807.293334,75
1766015807.2933471,72
1766015807.2933602,71
1766015807.2933729,72
1766015807.293386,70
1766015807.293399,69
1766015807.2934122,68
1766015807.2934248,70
1766015807.293437,69
1766015807.2934499,68
1766015807.293464,66
1766015807.293476,69
1766015807.293489,69
1766015807.2935019,66
1766015807.293515,66
1766015807.2935302,66
1766015807.293542,64
1766015807.293555,64
1766015807.293568,64
1766015807.293581,69
1766015807.2935958,68
1766015807.29361,68
1766015807.2936242,68
1766015807.293637,70
1766015807.293649,71
1766015807.2936618,70
1766015807.293675,66
1766015807.293688,70
1766015807.2937012,72
1766015807.2937138,72
1766015807.293727,69
1766015807.29374,75
1766015807.2937531,74
1766015807.2937658,71
1766015807.293779,73
1766015807.293792,72
1766015807.2938051,76
1766015807.293818,76
1766015807.2938309,74
1766015807.293843,73
1766015807.293856,74
1766015807.293869,75
1766015807.2938821,75
1766015807.293895,70
1766015807.2939079,73
1766015807.293921,72
1766015807.293934,73
1766015807.293947,72
1766015807.2939599,72
1766015807.293973,70
1766015807.293986,72
1766015807.2939992,73
1766015807.294014,70
1766015807.294028,71
1766015807.2940412,69
1766015807.2940538,70
1766015807.294067,67
1766015807.29408,70
1766015807.294092,70
1766015807.294105,70
1766015807.294118,66
1766015807.294131,64
1766015807.294144,64
1766015807.294157,65
1766015807.2941692,66
1766015807.2941818,65
1766015807.294195,63
1766015807.29421,63
1766015807.294223,66
1766015807.294236,65
1766015807.294249,66
1766015807.294262,65
1766015807.294275,61
1766015807.2942889,64
1766015807.294302,62
1766015807.294315,61
1766015807.2943292,63
1766015807.2943418,61
1766015807.294355,62
1766015807.294368,63
1766015807.2943811,62
1766015807.294395,61
1766015807.2944078,59
1766015807.294421,62
1766015807.294434,63
1766015807.2944489,64
1766015807.294462,64
1766015807.294475,61
1766015807.294488,64
1766015807.294501,63
1766015807.294514,61
1766015807.294527,59
1766015807.29454,63
1766015807.294553,60
1766015807.2945669,60
1766015807.29458,61
1766015807.294593,58
1766015807.294606,59
1766015807.2946188,63
1766015807.294632,60
1766015807.294645,65
1766015807.294658,65
1766015807.294671,66
1766015807.294684,67
1766015807.294697,63
1766015807.29471,67
1766015807.294723,67
1766015807.294736,63
1766015807.294749,64
1766015807.294762,65
1766015807.294775,66
1766015807.2947881,65
1766015807.294802,65
1766015807.294815,63
1766015807.294828,63
1766015807.29484,61
1766015807.294854,63
1766015807.294869,63
1766015807.2948868,61
1766015807.2949,58
1766015807.294913,61
1766015807.2949271,61
1766015807.29494,62
1766015807.2949529,56
1766015807.294966,61
1766015807.294979,58
1766015807.294992,58
1766015807.2950048,61
1766015807.295018,64
1766015807.29508,60
1766015807.295104,61
1766015807.295118,59
1766015807.295131,63
1766015807.295145,66
1766015807.295158,62
1766015807.295174,61
1766015807.295187,62
1766015807.2952,63
1766015807.2952142,61
1766015807.2952268,62
1766015807.29524,58
1766015807.295253,62
1766015807.2952662,62
1766015807.295278,60
1766015807.295292,60
1766015807.295305,61
1766015807.2953181,60
1766015807.295331,58
1766015807.295344,58
1766015807.295358,58
1766015807.295375,57
1766015807.295389,58
1766015807.295402,57
1766015807.295415,55
1766015807.295428,59
1766015807.295441,57
1766015807.295454,57
1766015807.295468,54
1766015807.2954812,53
1766015807.2954938,55
1766015807.295507,54
1766015807.29552,53
1766015807.295533,53
1766015807.295546,51
1766015807.295559,49
1766015807.295573,54
1766015807.295586,50
1766015807.2955992,50
1766015807.2956119,51
1766015807.295625,49
1766015807.295637,51
1766015807.29565,51
1766015807.295663,50
1766015807.295677,49
1766015807.29569,49
1766015807.295703,48
1766015807.295717,48
1766015807.2957299,48
1766015807.295779,48
1766015807.295829,49
1766015807.295844,49
1766015807.295858,47
1766015807.295871,48
1766015807.295897,45
1766015807.2959108,46
1766015807.295924,46
1766015807.295937,47
1766015807.2959502,51
1766015807.2959628,45
1766015807.295976,44
1766015807.295989,46
1766015807.2960021,48
1766015807.296015,46
1766015807.296028,46
1766015807.296041,46
1766015807.296055,43
1766015807.2960682,47
1766015807.2960808,48
1766015807.296094,42
1766015807.296107,43
1766015807.2961202,41
1766015807.296133,41
1766015807.296146,42
1766015807.296159,44
1766015807.2961721,45
1766015807.296185,46
1766015807.296198,40
1766015807.296213,41
1766015807.296227,42
1766015807.2962391,43
1766015807.296253,42
1766015807.296266,45
1766015807.296279,43
1766015807.296292,43
1766015807.296305,43
1766015807.2963378,42
1766015807.296351,43
1766015807.296364,41
1766015807.2964082,43
1766015807.296433,39
1766015807.296447,42
1766015807.296461,41
1766015807.296475,39
1766015807.296488,39
1766015807.296502,41
1766015807.2965262,39
1766015807.296546,39
1766015807.296561,39
1766015807.2965739,40
1766015807.296588,39
1766015807.296601,39
1766015807.296614,40
1766015807.296628,37
1766015807.296641,41
1766015807.296654,43
1766015807.2966669,42
1766015807.296681,42
1766015807.296694,46
1766015807.296708,47
1766015807.296721,47
1766015807.2967339,44
1766015807.296747,45
1766015807.29676,47
1766015807.296774,44
1766015807.296787,46
1766015807.2968,49
1766015807.296813,46
1766015807.29683,45
1766015807.296843,42
1766015807.296857,47
1766015807.29687,47
1766015807.2968829,48
1766015807.296896,46
1766015807.29691,43
1766015807.296923,43
1766015807.296936,47
1766015807.296949,47
1766015807.296962,44
1766015807.2969751,43
1766015807.296988,44
1766015807.297002,42
1766015807.297015,44
1766015807.297028,45
1766015807.297042,42
1766015807.297055,42
1766015807.297068,39
1766015807.297081,43
1766015807.2970939,42
1766015807.297107,42
1766015807.297121,41
1766015807.2971342,39
1766015807.2971468,44
1766015807.29716,43
1766015807.297173,41
1766015807.2971861,42
1766015807.297199,44
1766015807.2972128,42
1766015807.297226,40
1766015807.297239,39
1766015807.2972531,40
1766015807.297269,41
1766015807.297282,39
1766015807.2972958,36
1766015807.297309,41
1766015807.297322,39
1766015807.2973351,42
1766015807.2973492,42
1766015807.297365,43
1766015807.297378,42
1766015807.2973912,42
1766015807.297405,41
1766015807.2974179,39
1766015807.297431,40
1766015807.297444,38
1766015807.297458,39
1766015807.297471,40
1766015807.297484,41
1766015807.297497,40
1766015807.29751,40
1766015807.297523,40
1766015807.297536,41
1766015807.29755,40
1766015807.2975628,39
1766015807.297576,40
1766015807.297589,41
1766015807.2976031,40
1766015807.2976158,41
1766015807.2976289,41
1766015807.297642,39
1766015807.297655,42
1766015807.297668,37
1766015807.2976809,37
1766015807.297696,39
1766015807.2977102,38
1766015807.2977228,40
1766015807.297736,36
1766015807.297749,40
1766015807.2977622,42
1766015807.2977762,37
1766015807.2977889,38
1766015807.297802,39
1766015807.297815,37
1766015807.2978282,39
1766015807.297865,38
1766015807.297877,38
1766015807.297889,38
1766015807.29791,39
1766015807.2979252,37
1766015807.297937,38
1766015807.297948,38
1766015807.29796,36
1766015807.297972,39
1766015807.297983,38
1766015807.297995,40
1766015807.298006,35
1766015807.298018,37
1766015807.298029,38
1766015807.298041,38
1766015807.298052,39
1766015807.2980638,39
1766015807.298075,38
1766015807.298086,38
1766015807.2980978,38
1766015807.2981088,38
1766015807.298121,37
1766015807.298135,37
1766015807.298147,39
1766015807.2981582,39
1766015807.29817,35
1766015807.2981818,35
1766015807.298193,35
1766015807.298204,38
1766015807.298215,34
1766015807.2982268,36
1766015807.298238,39
1766015807.298249,39
1766015807.298261,41
1766015807.298272,37
1766015807.298283,37
1766015807.298295,35
1766015807.298306,39
1766015807.298317,36
1766015807.2983282,35
1766015807.29834,35
1766015807.298351,34
1766015807.298363,37
1766015807.298374,37
1766015807.2983859,36
1766015807.2983968,38
1766015807.298408,34
1766015807.29842,36
1766015807.298431,36
1766015807.298442,39
1766015807.298454,38
1766015807.298465,38
1766015807.2984772,38
1766015807.298489,36
1766015807.298501,37
1766015807.298513,35
1766015807.2985249,36
1766015807.2985358,33
1766015807.298548,33
1766015807.298559,36
1766015807.298571,36
1766015807.298582,35
1766015807.298593,37
1766015807.298604,38
1766015807.2986162,39
1766015807.2986271,36
1766015807.298638,39
1766015807.29865,37
1766015807.2986612,40
1766015807.2986722,37
1766015807.298683,42
1766015807.2986948,39
1766015807.2987058,39
1766015807.298717,41
1766015807.298729,38
1766015807.29874,37
1766015807.2987509,41
1766015807.298762,44
1766015807.298774,41
1766015807.298785,40
1766015807.298796,43
1766015807.2988071,40
1766015807.298819,43
1766015807.29883,39
1766015807.298841,37
1766015807.2988522,39
1766015807.2988641,38
1766015807.298877,38
1766015807.298888,40
1766015807.2989,39
1766015807.298911,36
1766015807.298923,38
1766015807.298934,40
1766015807.298945,36
1766015807.298957,36
1766015807.298968,40
1766015807.29898,35
1766015807.2989912,36
1766015807.299003,34
1766015807.2990139,34
1766015807.299026,35
1766015807.299037,35
1766015807.299048,36
1766015807.2990599,36
1766015807.299071,40
1766015807.299083,39
1766015807.299094,38
1766015807.2991061,37
1766015807.299117,33
1766015807.299128,35
1766015807.2991402,35
1766015807.2991512,34
1766015807.2991621,37
1766015807.2991738,37
1766015807.2991848,36
1766015807.299197,37
1766015807.299208,35
1766015807.299219,38
1766015807.2992299,35
1766015807.299242,32
1766015807.2992551,33
1766015807.299267,36
1766015807.299278,31
1766015807.2992902,36
1766015807.2993011,37
1766015807.299312,33
1766015807.2993228,39
1766015807.299335,36
1766015807.299346,38
1766015807.299357,35
1766015807.2993689,38
1766015807.29938,39
1766015807.299392,38
1766015807.299403,38
1766015807.299415,35
1766015807.299426,40
1766015807.299438,38
1766015807.2994492,38
1766015807.2994611,37
1766015807.2994719,36
1766015807.299484,36
1766015807.299495,37
1766015807.299507,37
1766015807.2995179,36
1766015807.29953,37
1766015807.299541,38
1766015807.299553,40
1766015807.2995641,37
1766015807.299576,33
1766015807.299587,39
1766015807.2995992,34
1766015807.2996101,36
1766015807.299624,37
1766015807.299637,40
1766015807.299649,37
1766015807.29966,37
1766015807.2996721,40
1766015807.299683,38
1766015807.299694,39
1766015807.2997062,38
1766015807.2997172,40
1766015807.2997289,40
1766015807.2997398,37
1766015807.2997508,37
1766015807.299763,36
1766015807.299774,33
1766015807.299786,39
1766015807.299797,41
1766015807.299809,38
1766015807.29982,38
1766015807.299832,38
1766015807.299843,38
1766015807.299855,39
1766015807.2998662,40
1766015807.2998772,35
1766015807.2998888,38
1766015807.2998998,35
1766015807.299912,36
1766015807.299923,35
1766015807.2999349,36
1766015807.299946,39
1766015807.299957,39
1766015807.299969,37
1766015807.29998,39
1766015807.299992,39
1766015807.300006,37
1766015807.3000178,39
1766015807.300029,39
1766015807.300041,39
1766015807.300052,38
1766015807.300064,38
1766015807.300075,38
1766015807.300087,39
1766015807.300098,37
1766015807.30011,35
1766015807.300121,37
1766015807.3001332,36
1766015807.300145,39
1766015807.3001559,37
1766015807.3001668,35
1766015807.300179,38
1766015807.300191,40
1766015807.300202,40
1766015807.300214,39
1766015807.300225,39
1766015807.300237,40
1766015807.3002481,38
1766015807.30026,41
1766015807.300271,39
1766015807.300283,39
1766015807.300294,39
1766015807.3003058,39
1766015807.3003168,41
1766015807.300329,37
1766015807.30034,38
1766015807.300352,42
1766015807.300363,41
1766015807.3003762,41
1766015807.300391,42
1766015807.3004029,41
1766015807.300415,42
1766015807.300426,43
1766015807.300438,42
1766015807.3004491,41
1766015807.30046,42
1766015807.300472,42
1766015807.300483,40
1766015807.3004951,42
1766015807.300506,41
1766015807.3005178,43
1766015807.300529,43
1766015807.30054,42
1766015807.300552,43
1766015807.3005629,48
1766015807.300575,46
1766015807.300586,48
1766015807.300597,45
1766015807.300609,48
1766015807.30062,45
1766015807.300631,46
1766015807.300643,46
1766015807.3006542,46
1766015807.3006651,44
1766015807.300677,46
1766015807.3006878,49
1766015807.300699,49
1766015807.300711,47
1766015807.300722,46
1766015807.3007329,47
1766015807.300745,49
1766015807.30076,47
1766015807.3007731,50
1766015807.300787,45
1766015807.300799,46
1766015807.300811,45
1766015807.300822,49
1766015807.300834,49
1766015807.3008451,49
1766015807.300857,53
1766015807.300868,52
1766015807.300879,49
1766015807.300891,52
1766015807.300905,52
1766015807.300918,54
1766015807.300931,52
1766015807.3009431,54
1766015807.300954,56
1766015807.3009658,55
1766015807.300977,54
1766015807.300988,55
1766015807.3009999,51
1766015807.3010108,53
1766015807.301023,51
1766015807.301034,54
1766015807.301045,53
1766015807.301057,53
1766015807.301069,53
1766015807.30108,54
1766015807.301091,52
1766015807.301104,52
1766015807.301116,55
1766015807.301127,54
1766015807.3011389,52
1766015807.301155,51
1766015807.3011682,51
1766015807.301179,53
1766015807.3011909,51
1766015807.3012018,52
1766015807.301213,54
1766015807.301225,54
1766015807.301237,54
1766015807.301248,56
1766015807.301259,57
1766015807.301271,55
1766015807.301282,55
1766015807.301294,55
1766015807.301305,56
1766015807.3013172,56
1766015807.301329,56
1766015807.3013399,54
1766015807.301354,57
1766015807.301366,55
1766015807.301378,54
1766015807.301389,55
1766015807.3014011,56
1766015807.301412,56
1766015807.301423,57
1766015807.301435,60
1766015807.301447,57
1766015807.301458,59
1766015807.30147,60
1766015807.301481,67
1766015807.301493,71
1766015807.301504,71
1766015807.301516,69
1766015807.3015292,68
1766015807.301543,66
1766015807.301555,69
1766015807.301567,71
1766015807.301578,71
1766015807.301589,70
1766015807.301601,71
1766015807.301613,73
1766015807.301624,68
1766015807.301635,70
1766015807.3016472,67
1766015807.3016589,65
1766015807.301671,67
1766015807.301682,64
1766015807.301694,67
1766015807.301705,66
1766015807.3017159,68
1766015807.301728,70
1766015807.30174,72
1766015807.301753,72
1766015807.301766,70
1766015807.301777,68
1766015807.3017879,70
1766015807.3018,69
1766015807.301811,71
1766015807.301822,71
1766015807.3018339,70
1766015807.301846,72
1766015807.301857,72
1766015807.301867,71
1766015807.301877,70
1766015807.301888,68
1766015807.301899,68
1766015807.301916,68
1766015807.3019269,66
1766015807.3019369,66
1766015807.3019469,66
1766015807.3019571,67
1766015807.3019671,67
1766015807.3019772,66
1766015807.3019881,64
1766015807.3019981,65
1766015807.3020082,63
1766015807.3020182,63
1766015807.302028,65
1766015807.302038,64
1766015807.302048,67
1766015807.302058,63
1766015807.302068,63
1766015807.302079,62
1766015807.302089,61
1766015807.302099,61
1766015807.302109,62
1766015807.302119,65
1766015807.3021288,65
1766015807.30214,64
1766015807.3021498,62
1766015807.3021598,63
1766015807.30217,62
1766015807.30218,61
1766015807.30219,61
1766015807.3022,62
1766015807.30221,64
1766015807.30222,64
1766015807.3022301,61
1766015807.302242,62
1766015807.3022552,65
1766015807.3022661,67
1766015807.3022761,64
1766015807.3022861,68
1766015807.3022962,64
1766015807.3023071,66
1766015807.3023171,63
1766015807.3023272,64
1766015807.302337,64
1766015807.302347,63
1766015807.302357,62
1766015807.302368,63
1766015807.302378,64
1766015807.302388,62
1766015807.302398,60
1766015807.302409,63
1766015807.302419,59
1766015807.302429,62
1766015807.302439,63
1766015807.302449,63
1766015807.3024588,64
1766015807.302469,64
1766015807.302479,61
1766015807.302489,62
1766015807.302499,62
1766015807.30251,61
1766015807.30252,61
1766015807.30253,58
1766015807.30254,66
1766015807.30255,60
1766015807.302561,57
1766015807.302571,59
1766015807.3025851,57
1766015807.302597,59
1766015807.302609,61
1766015807.302619,60
1766015807.30263,64
1766015807.3026402,62
1766015807.3026502,63
1766015807.30266,61
1766015807.30267,64
1766015807.302681,66
1766015807.302691,62
1766015807.302701,66
1766015807.302712,64
1766015807.302722,65
1766015807.302732,63
1766015807.302742,65
1766015807.302753,64
1766015807.302763,67
1766015807.302773,63
1766015807.302783,62
1766015807.302794,62
1766015807.302804,62
1766015807.302814,63
1766015807.302824,62
1766015807.302834,63
1766015807.302845,61
1766015807.302855,60
1766015807.3028648,63
1766015807.3028748,61
1766015807.3028858,59
1766015807.302896,63
1766015807.302906,65
1766015807.302918,63
1766015807.3029308,63
1766015807.302942,62
1766015807.302952,61
1766015807.302963,63
1766015807.302974,63
1766015807.302984,65
1766015807.302994,64
1766015807.3030038,61
1766015807.303015,62
1766015807.303025,62
1766015807.3030348,62
1766015807.303045,62
1766015807.3030558,63
1766015807.303066,61
1766015807.3030772,62
1766015807.303087,65
1766015807.303097,60
1766015807.303107,62
1766015807.303117,62
1766015807.303128,59
1766015807.303138,61
1766015807.3031502,62
1766015807.30316,63
1766015807.30317,61
1766015807.30318,63
1766015807.30319,60
1766015807.3032,63
1766015807.30321,62
1766015807.30322,60
1766015807.30323,62
1766015807.3032398,61
1766015807.3032498,59
1766015807.303263,63
1766015807.303275,61
1766015807.303285,60
1766015807.303295,60
1766015807.303305,60
1766015807.303315,60
1766015807.303326,63
1766015807.303336,61
1766015807.303346,61
1766015807.303356,60
1766015807.303366,59
1766015807.303376,60
1766015807.3033862,62
1766015807.303396,60
1766015807.303406,58
1766015807.303416,61
1766015807.303426,60
1766015807.303437,60
1766015807.303447,56
1766015807.303457,60
1766015807.303467,60
1766015807.303477,61
1766015807.303487,59
1766015807.303497,61
1766015807.3035069,61
1766015807.3035169,60
1766015807.3035269,61
1766015807.303537,62
1766015807.303547,58
1766015807.3035572,60
1766015807.303568,59
1766015807.3035781,62
1766015807.303589,60
1766015807.303602,58
1766015807.303613,61
1766015807.303623,57
1766015807.303633,58
1766015807.303644,60
1766015807.303655,63
1766015807.303665,56
1766015807.303675,59
1766015807.3036852,60
1766015807.3036952,59
1766015807.303705,59
1766015807.3037171,62
1766015807.303824,59
1766015807.3038442,59
1766015807.3038568,57
1766015807.30387,58
1766015807.303883,59
1766015807.303896,61
1766015807.303909,61
1766015807.303922,60
1766015807.303935,58
1766015807.303948,62
1766015807.303961,59
1766015807.303974,60
1766015807.3039858,59
1766015807.3040042,55
1766015807.3040159,57
1766015807.304029,59
1766015807.304042,57
1766015807.304054,60
1766015807.3040671,54
1766015807.304079,62
1766015807.304099,58
1766015807.3041122,59
1766015807.3041248,60
1766015807.304137,59
1766015807.30415,57
1766015807.304162,56
1766015807.3041751,58
1766015807.3041868,56
1766015807.3042,57
1766015807.3042119,56
1766015807.304225,58
1766015807.304238,56
1766015807.30425,56
1766015807.3042629,60
1766015807.304275,56
1766015807.304288,55
1766015807.3043,59
1766015807.3043132,55
1766015807.304325,54
1766015807.304338,55
1766015807.30435,54
1766015807.304363,56
1766015807.304375,54
1766015807.304388,58
1766015807.3044,57
1766015807.3044128,56
1766015807.304425,54
1766015807.304438,55
1766015807.30445,56
1766015807.3044631,53
1766015807.304476,52
1766015807.304488,56
1766015807.3044999,55
1766015807.304517,58
1766015807.304529,55
1766015807.304542,56
1766015807.304554,57
1766015807.304567,54
1766015807.3045802,58
1766015807.304592,55
1766015807.304605,54
1766015807.304618,53
1766015807.30463,56
1766015807.3046432,54
1766015807.304655,54
1766015807.304668,55
1766015807.304681,55
1766015807.304693,53
1766015807.304706,53
1766015807.3047192,54
1766015807.304731,54
1766015807.304744,53
1766015807.304756,56
1766015807.304769,55
1766015807.304895,52
1766015807.3049128,52
1766015807.304924,51
1766015807.304936,52
1766015807.304949,52
1766015807.3049788,49
1766015807.305045,52
1766015807.3050618,47
1766015807.305075,52
1766015807.305088,50
1766015807.3051012,49
1766015807.3051178,53
1766015807.305133,52
1766015807.3051462,49
1766015807.3051589,52
1766015807.305173,52
1766015807.305186,51
1766015807.3051991,49
1766015807.305212,50
1766015807.305225,51
1766015807.305238,52
1766015807.30525,51
1766015807.305263,50
1766015807.305276,48
1766015807.305289,49
1766015807.305302,52
1766015807.305315,51
1766015807.3053281,50
1766015807.305341,50
1766015807.305353,48
1766015807.305366,50
1766015807.3053792,48
1766015807.305392,49
1766015807.3054059,50
1766015807.305418,49
1766015807.3054311,50
1766015807.305444,46
1766015807.3054569,51
1766015807.30547,49
1766015807.305483,48
1766015807.305496,48
1766015807.305509,49
1766015807.305522,49
1766015807.305535,49
1766015807.3055518,47
1766015807.3055658,48
1766015807.305579,48
1766015807.305591,45
1766015807.305604,49
1766015807.3056169,45
1766015807.305629,44
1766015807.305642,47
1766015807.305655,46
1766015807.305668,46
1766015807.305681,47
1766015807.3056939,49
1766015807.305706,46
1766015807.3057191,42
1766015807.305732,43
1766015807.305745,45
1766015807.305757,43
1766015807.30577,44
1766015807.305783,43
1766015807.305795,47
1766015807.3058078,48
1766015807.305821,45
1766015807.305834,47
1766015807.305846,45
1766015807.305859,47
1766015807.305872,44
1766015807.305884,41
1766015807.305897,45
1766015807.305909,47
1766015807.305922,47
1766015807.3059351,45
1766015807.305948,45
1766015807.30596,44
1766015807.3059788,43
1766015807.305991,44
1766015807.306004,44
1766015807.306017,43
1766015807.30603,45
1766015807.3060422,42
1766015807.3060548,42
1766015807.306068,44
1766015807.306081,45
1766015807.3060942,44
1766015807.3061068,45
1766015807.30612,45
1766015807.306133,42
1766015807.3061461,44
1766015807.306158,41
1766015807.306171,42
1766015807.306184,43
1766015807.306197,43
1766015807.30621,40
1766015807.3062232,41
1766015807.3062358,42
1766015807.306249,41
1766015807.306265,43
1766015807.306278,39
1766015807.3062909,39
1766015807.306304,41
1766015807.306317,40
1766015807.3063302,38
1766015807.306342,43
1766015807.306355,40
1766015807.306368,38
1766015807.306381,40
1766015807.306401,38
1766015807.306415,35
1766015807.306428,40
1766015807.306441,36
1766015807.306453,39
1766015807.306466,40
1766015807.3064792,40
1766015807.306491,37
1766015807.306504,40
1766015807.306517,36
1766015807.30653,34
1766015807.3065422,38
1766015807.3065548,37
1766015807.306568,40
1766015807.306581,37
1766015807.306593,36
1766015807.306606,41
1766015807.306619,37
1766015807.306632,35
1766015807.306644,38
1766015807.306657,36
1766015807.3066702,38
1766015807.3066828,35
1766015807.306696,36
1766015807.306709,37
1766015807.3067222,37
1766015807.306734,36
1766015807.306747,38
1766015807.3067598,37
1766015807.306772,37
1766015807.306785,37
1766015807.306798,36
1766015807.3068109,36
1766015807.306827,36
1766015807.306842,37
1766015807.306855,34
1766015807.306868,39
1766015807.30688,33
1766015807.306893,35
1766015807.3069062,35
1766015807.3069189,35
1766015807.306931,38
1766015807.306945,34
1766015807.306957,37
1766015807.3069701,32
1766015807.306983,34
1766015807.306995,35
1766015807.307008,36
1766015807.3070211,33
1766015807.307034,32
1766015807.307047,37
1766015807.30706,34
1766015807.307072,35
1766015807.307085,37
1766015807.3070982,33
1766015807.3071098,34
1766015807.307123,36
1766015807.307136,34
1766015807.3071492,34
1766015807.307161,34
1766015807.307174,32
1766015807.3071868,35
1766015807.3072,35
1766015807.307212,33
1766015807.307225,33
1766015807.3072379,34
1766015807.3072581,33
1766015807.307273,32
1766015807.307286,32
1766015807.307298,34
1766015807.307311,32
1766015807.307324,32
1766015807.3073359,34
1766015807.307349,31
1766015807.307362,30
1766015807.3073752,32
1766015807.3073869,33
1766015807.3074,32
1766015807.307413,31
1766015807.307425,31
1766015807.3074381,34
1766015807.30745,30
1766015807.307463,30
1766015807.307476,30
1766015807.307488,29
1766015807.307501,31
1766015807.3075142,28
1766015807.3075259,30
1766015807.307539,29
1766015807.307552,31
1766015807.307565,29
1766015807.3075771,29
1766015807.3075898,27
1766015807.307603,29
1766015807.307615,29
1766015807.307628,29
1766015807.307641,30
1766015807.307654,29
1766015807.307667,26
1766015807.3076859,31
1766015807.307698,28
1766015807.307709,27
1766015807.307719,29
1766015807.30773,28
1766015807.307741,27
1766015807.307751,29
1766015807.307762,28
1766015807.307772,29
1766015807.307783,26
1766015807.307793,31
1766015807.3078039,27
1766015807.307814,27
1766015807.3078249,27
1766015807.307838,29
1766015807.307849,32
1766015807.30786,27
1766015807.30787,30
1766015807.3078809,28
1766015807.307891,27
1766015807.3079019,30
1766015807.3079119,29
1766015807.3079228,28
1766015807.3079329,27
1766015807.3079438,27
1766015807.3079538,28
1766015807.307965,29
1766015807.3079748,26
1766015807.307986,27
1766015807.308091,24
1766015807.3081028,26
1766015807.308138,25
1766015807.3081548,26
1766015807.308169,25
1766015807.308182,26
1766015807.3081942,27
1766015807.308203,27
1766015807.308213,26
1766015807.308223,26
1766015807.308233,25
1766015807.3082418,26
1766015807.3082519,25
1766015807.3082628,25
1766015807.3082721,28
1766015807.3082821,23
1766015807.308291,24
1766015807.308301,25
1766015807.308311,25
1766015807.308367,29
1766015807.3083782,25
1766015807.308416,24
1766015807.308428,28
1766015807.30844,23
1766015807.3085282,23
1766015807.308587,25
1766015807.308599,27
1766015807.30861,25
1766015807.3086212,27
1766015807.3086321,23
1766015807.308643,29
1766015807.308654,27
1766015807.308664,26
1766015807.308675,25
1766015807.308686,25
1766015807.308696,23
1766015807.308707,26
1766015807.308723,22
1766015807.308734,26
1766015807.308745,21
1766015807.3087559,24
1766015807.308766,22
1766015807.3087811,26
1766015807.308792,24
1766015807.308803,24
1766015807.308813,21
1766015807.308824,24
1766015807.308834,23
1766015807.308845,22
1766015807.308856,24
1766015807.308866,20
1766015807.308877,21
1766015807.308888,22
1766015807.308898,24
1766015807.308909,23
1766015807.308919,25
1766015807.3089302,23
1766015807.30894,25
1766015807.3089511,24
1766015807.308962,24
1766015807.3089721,20
1766015807.308983,22
1766015807.308994,22
1766015807.309005,23
1766015807.309016,24
1766015807.3090382,25
1766015807.309063,22
1766015807.3090749,26
1766015807.309085,23
1766015807.3090959,26
1766015807.309111,24
1766015807.3091211,23
1766015807.309132,29
1766015807.309143,26
1766015807.309154,25
1766015807.309165,27
1766015807.309175,24
1766015807.309186,26
1766015807.309197,24
1766015807.309207,24
1766015807.309218,23
1766015807.309228,25
1766015807.3092391,24
1766015807.30925,23
1766015807.3092601,22
1766015807.309271,25
1766015807.309281,21
1766015807.309292,23
1766015807.309303,23
1766015807.309313,23
1766015807.309324,27
1766015807.309334,23
1766015807.309345,22
1766015807.309356,25
1766015807.309367,27
1766015807.309377,24
1766015807.309388,24
1766015807.3093991,24
1766015807.30941,24
1766015807.309421,22
1766015807.309431,22
1766015807.309442,19
1766015807.3094552,24
1766015807.3094678,22
1766015807.3094778,22
1766015807.309489,23
1766015807.3094988,24
1766015807.30951,20
1766015807.309521,26
1766015807.309532,25
1766015807.309542,25
1766015807.309553,22
1766015807.3095639,24
1766015807.309574,25
1766015807.3095849,25
1766015807.3095958,22
1766015807.309607,25
1766015807.309618,24
1766015807.309628,26
1766015807.309639,23
1766015807.30965,24
1766015807.309661,21
1766015807.309671,24
1766015807.309682,24
1766015807.3096929,25
1766015807.3097029,21
1766015807.3097138,23
1766015807.309725,23
1766015807.3097348,23
1766015807.309746,21
1766015807.3097558,25
1766015807.309767,24
1766015807.3097768,24
1766015807.309788,26
1766015807.309799,20
1766015807.3098161,21
1766015807.3098292,25
1766015807.30984,23
1766015807.309851,25
1766015807.3098612,21
1766015807.309881,25
1766015807.3098931,27
1766015807.3099031,22
1766015807.309914,23
1766015807.3099241,24
1766015807.309935,24
1766015807.309946,21
1766015807.309957,22
1766015807.309967,26
1766015807.309978,22
1766015807.3099892,23
1766015807.309999,23
1766015807.3100102,22
1766015807.3100202,24
1766015807.3100312,24
1766015807.3100412,21
1766015807.3100522,20
1766015807.3100631,25
1766015807.3100731,21
1766015807.310084,22
1766015807.310094,26
1766015807.310105,23
1766015807.310116,22
1766015807.310136,24
1766015807.310153,22
1766015807.310164,24
1766015807.310175,19
1766015807.310185,23
1766015807.310199,21
1766015807.31021,24
1766015807.310223,19
1766015807.310234,23
1766015807.310244,22
1766015807.310255,22
1766015807.310266,22
1766015807.310276,19
1766015807.310287,19
1766015807.310297,24
1766015807.310308,21
1766015807.310318,21
1766015807.3103292,21
1766015807.310339,22
1766015807.3103502,24
1766015807.3103611,24
1766015807.3103712,21
1766015807.3103821,23
1766015807.3103921,20
1766015807.310403,21
1766015807.3104131,21
1766015807.310424,21
1766015807.310435,22
1766015807.310445,24
1766015807.310456,20
1766015807.310466,21
1766015807.310477,22
1766015807.310487,20
1766015807.310498,22
1766015807.310509,21
1766015807.310519,22
1766015807.31053,21
1766015807.3105412,22
1766015807.3105521,24
1766015807.310566,26
1766015807.31058,23
1766015807.31059,20
1766015807.310601,22
1766015807.310612,25
1766015807.310623,24
1766015807.310633,23
1766015807.310644,21
1766015807.310654,25
1766015807.310665,24
1766015807.3106759,22
1766015807.3106859,23
1766015807.310697,24
1766015807.3107069,22
1766015807.310718,25
1766015807.310729,25
1766015807.310739,22
1766015807.31075,24
1766015807.31076,24
1766015807.310771,24
1766015807.310782,22
1766015807.310793,22
1766015807.310803,26
1766015807.310814,22
1766015807.310824,25
1766015807.310835,26
1766015807.3108459,23
1766015807.3108559,23
1766015807.3108668,24
1766015807.3108768,26
1766015807.310888,23
1766015807.3108978,21
1766015807.310909,22
1766015807.310922,23
1766015807.310935,23
1766015807.310946,23
1766015807.310957,23
1766015807.310967,22
1766015807.3109791,21
1766015807.31099,22
1766015807.311,25
1766015807.311011,25
1766015807.311021,25
1766015807.311032,23
1766015807.311043,24
1766015807.311054,23
1766015807.3110652,24
1766015807.311075,25
1766015807.3110862,23
1766015807.3110971,26
1766015807.3111072,22
1766015807.3111181,25
1766015807.311129,23
1766015807.311139,22
1766015807.31115,24
1766015807.31116,24
1766015807.311171,25
1766015807.311181,22
1766015807.311192,23
1766015807.311203,23
1766015807.311213,24
1766015807.311224,22
1766015807.3112352,25
1766015807.311245,24
1766015807.3112562,25
1766015807.311266,22
1766015807.3112772,23
1766015807.311287,24
1766015807.3112981,23
1766015807.3113081,21
1766015807.311319,23
1766015807.3113291,24
1766015807.311339,25
1766015807.31135,23
1766015807.31136,24
1766015807.311371,23
1766015807.311381,24
1766015807.311392,24
1766015807.311402,23
1766015807.311413,23
1766015807.311424,22
1766015807.311434,25
1766015807.311445,21
1766015807.311456,25
1766015807.311466,20
1766015807.311477,21
1766015807.311487,22
1766015807.311498,26
1766015807.311508,21
1766015807.311519,26
1766015807.311529,23
1766015807.31154,24
1766015807.31155,26
1766015807.3115609,22
1766015807.311572,22
1766015807.311583,21
1766015807.311593,23
1766015807.311604,23
1766015807.311614,27
1766015807.311625,24
1766015807.311636,24
1766015807.311646,22
1766015807.311657,26
1766015807.311668,23
1766015807.311678,23
1766015807.311689,25
1766015807.3116999,25
1766015807.311711,25
1766015807.3117208,22
1766015807.311732,23
1766015807.311742,25
1766015807.311753,25
1766015807.311763,25
1766015807.311774,24
1766015807.311785,27
1766015807.311795,25
1766015807.311806,26
1766015807.311817,25
1766015807.311827,23
1766015807.311838,24
1766015807.3118489,25
1766015807.31186,25
1766015807.311871,23
1766015807.311881,26
1766015807.311892,27
1766015807.311902,23
1766015807.311913,26
1766015807.311923,26
1766015807.311934,26
1766015807.311945,22
1766015807.311956,20
1766015807.311967,21
1766015807.311978,24
1766015807.3119879,21
1766015807.311999,24
1766015807.31201,25
1766015807.31202,24
1766015807.312031,27
1766015807.312042,25
1766015807.312052,26
1766015807.312063,28
1766015807.312074,25
1766015807.312084,23
1766015807.312095,21
1766015807.312105,21
1766015807.312116,25
1766015807.312126,26
1766015807.312137,27
1766015807.3121479,25
1766015807.3121579,26
1766015807.312169,23
1766015807.3121789,23
1766015807.31219,26
1766015807.3121998,25
1766015807.312211,23
1766015807.312222,27
1766015807.312232,25
1766015807.312243,23
1766015807.312253,24
1766015807.312264,22
1766015807.312274,25
1766015807.312285,24
1766015807.312296,25
1766015807.312306,24
1766015807.312317,25
1766015807.3123279,25
1766015807.3123379,22
1766015807.3123488,23
1766015807.3123589,23
1766015807.3123698,23
1766015807.312381,27
1766015807.3123908,26
1766015807.312402,26
1766015807.3124118,22
1766015807.312423,25
1766015807.312433,23
1766015807.312444,25
1766015807.312454,25
1766015807.312465,27
1766015807.312476,25
1766015807.312486,25
1766015807.312497,25
1766015807.312507,24
1766015807.312518,26
1766015807.3125288,25
1766015807.3125389,25
1766015807.3125498,22
1766015807.31256,24
1766015807.3125708,28
1766015807.3125818,25
1766015807.3125918,22
1766015807.312602,25
1766015807.312613,24
1766015807.3126242,25
1766015807.3126342,23
1766015807.3126452,27
1766015807.3126552,23
1766015807.3126662,22
1766015807.3126771,23
1766015807.3126872,24
1766015807.3126981,26
1766015807.3127081,26
1766015807.312719,23
1766015807.3127291,25
1766015807.31274,26
1766015807.31275,25
1766015807.312761,25
1766015807.312772,24
1766015807.312783,22
1766015807.312793,26
1766015807.312804,23
1766015807.3128152,25
1766015807.3128252,27
1766015807.3128362,23
1766015807.3128471,25
1766015807.3128572,25
1766015807.312868,24
1766015807.312879,24
1766015807.312889,24
1766015807.3129,21
1766015807.312911,23
1766015807.312922,23
1766015807.312932,22
1766015807.3129432,21
1766015807.3129542,20
1766015807.3129642,24
1766015807.312976,23
1766015807.3129861,23
1766015807.312997,20
1766015807.313008,25
1766015807.313018,25
1766015807.313029,23
1766015807.3130398,22
1766015807.31305,24
1766015807.3130612,25
1766015807.313071,25
1766015807.3130822,23
1766015807.3130932,24
1766015807.313104,22
1766015807.3131142,22
1766015807.3131251,22
1766015807.3131351,22
1766015807.313146,20
1766015807.3131561,23
1766015807.313167,23
1766015807.3131788,21
1766015807.31319,24
1766015807.313201,22
1766015807.313211,24
1766015807.313222,22
1766015807.313232,23
1766015807.313243,25
1766015807.3132539,24
1766015807.3132641,24
1766015807.3132749,26
1766015807.313285,23
1766015807.3132958,22
1766015807.313306,26
1766015807.313317,23
1766015807.313327,23
1766015807.313337,25
1766015807.313348,23
1766015807.313358,21
1766015807.313369,24
1766015807.313379,23
1766015807.3140259,22
1766015807.315027,23
1766015807.316013,23
1766015807.31699,26
1766015807.318012,25
1766015807.319092,21
1766015807.3200262,24
1766015807.321027,20
1766015807.322013,24
1766015807.323037,23
1766015807.32402,25
1766015807.325023,23
1766015807.326026,26
1766015807.3270268,21
1766015807.3280299,23
1766015807.329052,17
1766015807.330016,21
1766015807.331042,21
1766015807.332049,20
1766015807.333021,22
1766015807.334053,21
1766015807.335043,24
1766015807.33603,20
1766015807.337086,24
1766015807.3380868,25
1766015807.339091,22
1766015807.340137,25
1766015807.341074,22
1766015807.3420532,21
1766015807.343078,25
1766015807.344146,24
1766015807.3450902,22
1766015807.346148,24
1766015807.347092,22
1766015807.348165,24
1766015807.349098,21
1766015807.350175,22
1766015807.351101,24
1766015807.3521721,25
1766015807.353107,23
1766015807.3541389,21
1766015807.3551528,23
1766015807.356155,23
1766015807.3572,21
1766015807.3581178,22
1766015807.359136,22
1766015807.360251,23
1766015807.361208,21
1766015807.362277,21
1766015807.363219,24
1766015807.364238,22
1766015807.365193,20
1766015807.366199,21
1766015807.367234,22
1766015807.3682408,21
1766015807.369232,22
1766015807.370275,20
1766015807.371229,20
1766015807.372239,19
1766015807.373228,21
1766015807.374271,21
1766015807.375233,24
1766015807.3763158,22
1766015807.3772402,23
1766015807.3782861,24
1766015807.37923,21
1766015807.380228,22
1766015807.381231,23
1766015807.382196,22
1766015807.383202,22
1766015807.3842418,21
1766015807.385227,22
1766015807.3861918,22
1766015807.387236,20
1766015807.388233,21
1766015807.3892338,23
1766015807.390229,20
1766015807.3912299,22
1766015807.392253,24
1766015807.39324,22
1766015807.394253,23
1766015807.395243,22
1766015807.396256,25
1766015807.397275,21
1766015807.398269,22
1766015807.399242,20
1766015807.400285,23
1766015807.401281,22
1766015807.402241,22
1766015807.403284,22
1766015807.4042828,22
1766015807.405268,24
1766015807.4062872,20
1766015807.407298,24
1766015807.408295,27
1766015807.409299,23
1766015807.4103081,22
1766015807.411306,21
1766015807.4122932,21
1766015807.4133,23
1766015807.414297,24
1766015807.415327,20
1766015807.4163032,26
1766015807.417313,25
1766015807.41831,22
1766015807.4193122,21
1766015807.4203,22
1766015807.421351,23
1766015807.422265,23
1766015807.423311,24
1766015807.424345,21
1766015807.425345,22
1766015807.426274,26
1766015807.427352,23
1766015807.428298,21
1766015807.429326,24
1766015807.4302819,24
1766015807.431349,24
1766015807.4323552,23
1766015807.4333382,22
1766015807.43437,25
1766015807.435359,25
1766015807.4363708,22
1766015807.4373708,22
1766015807.438377,23
1766015807.439328,23
1766015807.440327,23
1766015807.441337,23
1766015807.4423711,24
1766015807.443372,24
1766015807.4443798,22
1766015807.445398,23
1766015807.446387,20
1766015807.4473898,21
1766015807.448388,21
1766015807.449389,26
1766015807.4503932,21
1766015807.451385,21
1766015807.452384,21
1766015807.453367,22
1766015807.454421,23
1766015807.455392,25
1766015807.4563992,23
1766015807.457406,25
1766015807.458405,24
1766015807.4594188,24
1766015807.460363,21
1766015807.4614289,24
1766015807.4623811,21
1766015807.46342,25
1766015807.464417,20
1766015807.465427,25
1766015807.466397,20
1766015807.467436,24
1766015807.4684339,26
1766015807.469449,23
1766015807.47042,22
1766015807.471401,23
1766015807.472414,27
1766015807.47344,23
1766015807.4744442,25
1766015807.47545,24
1766015807.476434,23
1766015807.477432,25
1766015807.478454,23
1766015807.479445,23
1766015807.480453,23
1766015807.481471,20
1766015807.482466,21
1766015807.483493,20
1766015807.4844851,24
1766015807.4854772,25
1766015807.486482,22
1766015807.487474,21
1766015807.488479,25
1766015807.489474,24
1766015807.4905128,23
1766015807.4914958,23
1766015807.492497,23
1766015807.493504,23
1766015807.494518,21
1766015807.495517,18
1766015807.496518,23
1766015807.497509,23
1766015807.4985118,25
1766015807.4995131,25
1766015807.500514,21
1766015807.501526,20
1766015807.502527,23
1766015807.503542,22
1766015807.504543,23
1766015807.505543,23
1766015807.506539,21
1766015807.507547,23
1766015807.5085518,21
1766015807.509569,22
1766015807.5105531,24
1766015807.511557,23
1766015807.512557,22
1766015807.513559,23
1766015807.51456,22
1766015807.515556,23
1766015807.516577,23
1766015807.517573,26
1766015807.518566,21
1766015807.519576,23
1766015807.5205781,23
1766015807.5215812,21
1766015807.5226,21
1766015807.523594,22
1766015807.52459,22
1766015807.525593,23
1766015807.526603,23
1766015807.527618,22
1766015807.528609,19
1766015807.529611,20
1766015807.530624,23
1766015807.5316129,24
1766015807.532622,21
1766015807.533621,24
1766015807.534626,20
1766015807.535626,20
1766015807.536623,21
1766015807.537629,21
1766015807.538635,23
1766015807.539635,19
1766015807.540648,23
1766015807.541645,23
1766015807.5426428,18
1766015807.543649,21
1766015807.544648,20
1766015807.545651,22
1766015807.546648,21
1766015807.547661,25
1766015807.548666,21
1766015807.549664,20
1766015807.5506701,22
1766015807.55168,23
1766015807.5526621,20
1766015807.553695,24
1766015807.5546849,22
1766015807.55569,24
1766015807.556694,24
1766015807.557684,22
1766015807.55869,23
1766015807.5596852,26
1766015807.560705,23
1766015807.561714,22
1766015807.5627048,20
1766015807.5637481,23
1766015807.5647502,25
1766015807.5657248,22
1766015807.5667279,26
1766015807.567729,25
1766015807.568706,27
1766015807.5697331,22
1766015807.5707462,25
1766015807.571721,25
1766015807.5727491,25
1766015807.57375,22
1766015807.574772,22
1766015807.5757408,24
1766015807.576763,22
1766015807.577764,26
1766015807.578767,21
1766015807.579772,24
1766015807.58075,26
1766015807.581781,25
1766015807.582765,23
1766015807.583767,24
1766015807.584778,24
1766015807.58578,28
1766015807.5868008,26
1766015807.587796,28
1766015807.588812,27
1766015807.589833,24
1766015807.590806,26
1766015807.5918021,25
1766015807.592808,25
1766015807.593812,28
1766015807.594823,26
1766015807.5958169,24
1766015807.596818,27
1766015807.597806,27
1766015807.59884,25
1766015807.599815,25
1766015807.600828,24
1766015807.601818,26
1766015807.602827,25
1766015807.6038258,27
1766015807.604834,26
1766015807.605858,24
1766015807.6068711,28
1766015807.6078598,28
1766015807.608829,28
1766015807.609854,28
1766015807.6108859,27
1766015807.6118941,26
1766015807.6128829,29
1766015807.613844,28
1766015807.6148329,30
1766015807.615853,26
1766015807.616858,25
1766015807.617857,30
1766015807.6188521,29
1766015807.619833,29
1766015807.620845,28
1766015807.621857,27
1766015807.62285,28
1766015807.623861,25
1766015807.624913,25
1766015807.625918,27
1766015807.626849,26
1766015807.627868,28
1766015807.628902,30
1766015807.629917,28
1766015807.630912,29
1766015807.6319308,27
1766015807.632927,29
1766015807.6339252,26
1766015807.6349251,29
1766015807.6359181,31
1766015807.636925,30
1766015807.637941,29
1766015807.638943,28
1766015807.639935,30
1766015807.6409311,31
1766015807.641948,31
1766015807.642941,28
1766015807.6439302,27
1766015807.644951,31
1766015807.6459641,33
1766015807.64697,36
1766015807.647957,34
1766015807.6489642,36
1766015807.6499572,37
1766015807.650958,44
1766015807.651955,44
1766015807.652982,42
1766015807.6539671,42
1766015807.654976,43
1766015807.6559942,49
1766015807.656977,46
1766015807.657981,47
1766015807.6589801,47
1766015807.6599948,46
1766015807.6609988,49
1766015807.661991,49
1766015807.663002,46
1766015807.664014,43
1766015807.665018,47
1766015807.666,47
1766015807.667021,47
1766015807.668021,47
1766015807.669028,48
1766015807.670023,47
1766015807.67102,45
1766015807.6720169,45
1766015807.673022,44
1766015807.674041,44
1766015807.675027,43
1766015807.6760309,43
1766015807.677026,42
1766015807.6780422,43
1766015807.679054,41
1766015807.680047,41
1766015807.681067,41
1766015807.682067,40
1766015807.68306,44
1766015807.684064,43
1766015807.685065,42
1766015807.6860611,41
1766015807.687068,41
1766015807.688064,42
1766015807.689066,39
1766015807.69008,41
1766015807.691089,44
1766015807.692095,41
1766015807.6930811,42
1766015807.694103,38
1766015807.695097,39
1766015807.6961222,37
1766015807.697083,42
1766015807.698085,40
1766015807.699092,42
1766015807.7000918,43
1766015807.701108,41
1766015807.7021189,40
1766015807.703142,39
1766015807.7041101,40
1766015807.705112,43
1766015807.706131,46
1766015807.707138,47
1766015807.7081301,53
1766015807.709215,52
1766015807.710134,57
1766015807.7112162,55
1766015807.712214,57
1766015807.713229,58
1766015807.714219,57
1766015807.715219,60
1766015807.716218,58
1766015807.717221,59
1766015807.718218,58
1766015807.719224,58
1766015807.7202182,57
1766015807.7212129,55
1766015807.72223,58
1766015807.723232,60
1766015807.7242172,60
1766015807.725217,58
1766015807.726221,61
1766015807.727227,65
1766015807.728223,70
1766015807.7292218,69
1766015807.730221,75
1766015807.731224,77
1766015807.732217,79
1766015807.7332191,79
1766015807.734218,82
1766015807.735223,78
1766015807.736227,79
1766015807.737236,79
1766015807.738239,78
1766015807.7392662,80
1766015807.7402492,78
1766015807.741249,80
1766015807.742264,82
1766015807.743236,83
1766015807.744224,84
1766015807.745257,85
1766015807.746238,82
1766015807.747257,86
1766015807.748279,89
1766015807.749249,90
1766015807.75025,86
1766015807.751267,89
1766015807.7522712,89
1766015807.75327,89
1766015807.7542741,87
1766015807.755285,93
1766015807.756268,95
1766015807.757362,105
1766015807.7583659,111
1766015807.759362,119
1766015807.7603781,133
1766015807.7613592,139
1766015807.762374,139
1766015807.763391,142
1766015807.764386,149
1766015807.765391,151
1766015807.766402,151
1766015807.7673879,150
1766015807.7683861,149
1766015807.76939,149
1766015807.770398,151
1766015807.7714071,161
1766015807.772406,167
1766015807.7734249,172
1766015807.774431,178
1766015807.775417,179
1766015807.776408,178
1766015807.77741,179
1766015807.778444,177
1766015807.779419,178
1766015807.7804239,179
1766015807.781437,181
1766015807.782439,175
1766015807.7834299,173
1766015807.784439,174
1766015807.7854369,170
1766015807.786456,168
1766015807.787446,174
1766015807.788455,190
1766015807.789463,205
1766015807.790453,221
1766015807.791455,243
1766015807.792471,258
1766015807.793456,279
1766015807.7944782,284
1766015807.795465,293
1766015807.796482,298
1766015807.797493,293
1766015807.798482,296
1766015807.799496,304
1766015807.8004842,304
1766015807.801484,305
1766015807.802495,302
1766015807.803495,303
1766015807.8044958,298
1766015807.805509,293
1766015807.806508,288
1766015807.807486,290
1766015807.808519,290
1766015807.80948,294
1766015807.810486,303
1766015807.8115032,314
1766015807.8125288,328
1766015807.813536,346
1766015807.814522,355
1766015807.815525,364
1766015807.816534,362
1766015807.817548,359
1766015807.818551,354
1766015807.81954,358
1766015807.8205462,366
1766015807.821549,367
1766015807.8225632,366
1766015807.8235588,365
1766015807.824556,366
1766015807.825567,363
1766015807.82657,358
1766015807.8275661,355
1766015807.8285592,350
1766015807.829571,350
1766015807.830573,341
1766015807.83158,338
1766015807.832573,338
1766015807.833569,334
1766015807.834601,329
1766015807.835585,326
1766015807.836589,326
1766015807.837597,325
1766015807.838615,326
1766015807.839595,326
1766015807.8406,327
1766015807.8416,326
1766015807.8425999,327
1766015807.84361,323
1766015807.8446138,319
1766015807.8456168,315
1766015807.846621,313
1766015807.8476238,316
1766015807.848613,310
1766015807.849611,307
1766015807.850623,306
1766015807.851627,301
1766015807.8526368,297
1766015807.853642,294
1766015807.8546371,292
1766015807.855645,285
1766015807.856649,285
1766015807.857661,278
1766015807.858664,276
1766015807.859639,271
1766015807.860676,271
1766015807.861652,271
1766015807.8626711,265
1766015807.8636758,269
1766015807.8646789,265
1766015807.865686,260
1766015807.866675,260
1766015807.867692,257
1766015807.868696,257
1766015807.869699,253
1766015807.8707001,253
1766015807.871702,248
1766015807.872695,246
1766015807.873697,241
1766015807.8746839,242
1766015807.875697,240
1766015807.8767161,238
1766015807.8777,235
1766015807.878711,232
1766015807.879703,229
1766015807.8807108,228
1766015807.881742,226
1766015807.8827178,225
1766015807.883735,228
1766015807.8847291,233
1766015807.88572,235
1766015807.886728,228
1766015807.88773,231
1766015807.888735,230
1766015807.8897338,228
1766015807.890733,223
1766015807.8917482,225
1766015807.89275,228
1766015807.893739,228
1766015807.894835,231
1766015807.895754,232
1766015807.896781,237
1766015807.897783,243
1766015807.8987882,250
1766015807.8997939,254
1766015807.900769,256
1766015807.901779,258
1766015807.9027991,255
1766015807.903787,254
1766015807.904781,256
1766015807.905791,256
1766015807.906807,255
1766015807.907813,256
1766015807.90879,253
1766015807.909833,247
1766015807.910837,244
1766015807.911824,240
1766015807.9128032,237
1766015807.9138188,237
1766015807.914827,233
1766015807.915818,230
1766015807.916821,227
1766015807.91782,224
1766015807.918828,221
1766015807.919842,220
1766015807.92084,219
1766015807.921827,215
1766015807.922827,211
1766015807.923867,212
1766015807.924845,210
1766015807.9258418,207
1766015807.926841,202
1766015807.927851,203
1766015807.928851,201
1766015807.92986,204
1766015807.9308548,202
1766015807.931854,203
1766015807.932878,203
1766015807.933853,201
1766015807.93487,203
1766015807.93589,197
1766015807.936872,200
1766015807.937883,198
1766015807.9388878,195
1766015807.939889,192
1766015807.940881,191
1766015807.9418828,191
1766015807.942902,190
1766015807.943907,186
1766015807.94492,183
1766015807.9459012,180
1766015807.946903,179
1766015807.947917,175
1766015807.948898,175
1766015807.949913,177
1766015807.950925,174
1766015807.95192,168
1766015807.952919,173
1766015807.953918,168
1766015807.954918,167
1766015807.955931,163
1766015807.956934,163
1766015807.957937,161
1766015807.958949,161
1766015807.9599428,165
1766015807.9609432,173
1766015807.96195,181
1766015807.9629388,188
1766015807.963955,187
1766015807.96495,188
1766015807.9659672,187
1766015807.966955,188
1766015807.967963,190
1766015807.96896,188
1766015807.969975,183
1766015807.9709592,183
1766015807.971963,181
1766015807.972972,182
1766015807.973988,177
1766015807.974991,175
1766015807.976,176
1766015807.976985,174
1766015807.9779909,173
1766015807.978993,171
1766015807.979989,167
1766015807.981004,167
1766015807.9820101,165
1766015807.9829981,164
1766015807.9840078,162
1766015807.985023,159
1766015807.986006,155
1766015807.987009,154
1766015807.9880278,153
1766015807.989023,151
1766015807.990029,149
1766015807.991039,145
1766015807.992044,145
1766015807.993026,142
1766015807.994024,142
1766015807.995043,140
1766015807.996053,139
1766015807.997041,139
1766015807.998048,136
1766015807.999051,137
1766015808.000052,133
1766015808.001051,132
1766015808.002052,130
1766015808.0030699,131
1766015808.004064,139
1766015808.00507,151
1766015808.006065,175
1766015808.0070689,191
1766015808.008062,205
1766015808.0090802,205
1766015808.01008,201
1766015808.011096,201
1766015808.0121012,206
1766015808.013087,212
1766015808.01409,216
1766015808.015105,216
1766015808.016117,220
1766015808.017108,216
1766015808.01811,215
1766015808.019114,218
1766015808.020117,212
1766015808.0211148,211
1766015808.022122,210
1766015808.0231092,207
1766015808.024107,206
1766015808.0251079,203
1766015808.02613,202
1766015808.027125,201
1766015808.028127,197
1766015808.029139,194
1766015808.03023,192
1766015808.031224,187
1766015808.032141,184
1766015808.033226,184
1766015808.034223,184
1766015808.035221,180
1766015808.036222,178
1766015808.03722,172
1766015808.0382159,171
1766015808.039217,169
1766015808.040221,168
1766015808.041224,164
1766015808.04222,164
1766015808.043217,162
1766015808.044221,159
1766015808.045223,160
1766015808.046222,157
1766015808.047219,154
1766015808.048218,154
1766015808.049234,151
1766015808.050223,148
1766015808.051222,147
1766015808.0522199,144
1766015808.053219,141
1766015808.054223,141
1766015808.05522,140
1766015808.056215,138
1766015808.057218,133
1766015808.0582159,136
1766015808.059226,133
1766015808.0602272,131
1766015808.061226,130
1766015808.062233,129
1766015808.063231,135
1766015808.06423,134
1766015808.065234,137
1766015808.066249,137
1766015808.067227,138
1766015808.068227,138
1766015808.069236,138
1766015808.070266,136
1766015808.0712671,136
1766015808.072266,137
1766015808.07327,133
1766015808.074275,131
1766015808.075265,133
1766015808.076281,130
1766015808.0772889,132
1766015808.078275,129
1766015808.079277,128
1766015808.080287,126
1766015808.081293,125
1766015808.082293,125
1766015808.0833018,124
1766015808.084309,123
1766015808.085293,131
1766015808.0862982,131
1766015808.087324,131
1766015808.0883121,130
1766015808.0893161,132
1766015808.090317,137
1766015808.0913181,134
1766015808.0923269,131
1766015808.093305,135
1766015808.0943098,133
1766015808.095317,132
1766015808.096336,129
1766015808.097327,133
1766015808.098339,131
1766015808.0993438,133
1766015808.10035,134
1766015808.101344,134
1766015808.1023529,134
1766015808.1033568,139
1766015808.1043541,143
1766015808.105366,137
1766015808.106375,139
1766015808.107368,137
1766015808.1083672,143
1766015808.1093671,142
1766015808.110373,140
1766015808.11137,137
1766015808.112386,137
1766015808.11339,140
1766015808.114393,137
1766015808.115393,136
1766015808.116395,134
1766015808.117381,131
1766015808.1183841,133
1766015808.119405,131
1766015808.120403,130
1766015808.121412,129
1766015808.122414,127
1766015808.123412,127
1766015808.124419,123
1766015808.125403,123
1766015808.12642,124
1766015808.1274319,119
1766015808.128421,119
1766015808.1294239,120
1766015808.130427,116
1766015808.131437,115
1766015808.1324348,115
1766015808.133429,114
1766015808.134433,112
1766015808.135444,113
1766015808.136457,111
1766015808.1374469,110
1766015808.1384408,107
1766015808.139468,108
1766015808.140448,105
1766015808.141453,107
1766015808.142465,105
1766015808.143473,102
1766015808.144479,102
1766015808.145476,100
1766015808.1464791,102
1766015808.1474829,100
1766015808.148405,98
1766015808.149384,99
1766015808.1503842,96
1766015808.151399,96
1766015808.1523998,97
1766015808.15341,96
1766015808.1544168,94
1766015808.155413,93
1766015808.156387,95
1766015808.1574101,93
1766015808.15841,91
1766015808.159405,91
1766015808.160414,93
1766015808.161424,92
1766015808.162428,93
1766015808.163427,91
1766015808.164442,92
1766015808.1654348,94
1766015808.1664371,93
1766015808.1674392,91
1766015808.168434,92
1766015808.169444,90
1766015808.1704419,95
1766015808.171531,101
1766015808.17253,103
1766015808.1735349,106
1766015808.1745448,105
1766015808.175544,111
1766015808.176565,111
1766015808.1775732,105
1766015808.178566,106
1766015808.17956,108
1766015808.180573,108
1766015808.181569,109
1766015808.1825778,109
1766015808.183585,110
1766015808.184573,108
1766015808.185596,109
1766015808.186584,109
1766015808.187585,109
1766015808.188589,110
1766015808.189588,112
1766015808.190599,105
1766015808.191586,106
1766015808.1925929,106
1766015808.193562,105
1766015808.1945632,104
1766015808.195613,102
1766015808.196608,104
1766015808.197518,99
1766015808.198532,98
1766015808.199532,96
1766015808.200518,97
1766015808.201545,98
1766015808.2025442,95
1766015808.203543,95
1766015808.204531,97
1766015808.205547,93
1766015808.20656,97
1766015808.2075589,97
1766015808.208547,98
1766015808.209564,93
1766015808.2105658,91
1766015808.211553,92
1766015808.212546,89
1766015808.2135732,92
1766015808.214578,87
1766015808.2155719,90
1766015808.216587,88
1766015808.217588,89
1766015808.218573,89
1766015808.219568,90
1766015808.22058,90
1766015808.221577,90
1766015808.2225862,92
1766015808.223587,90
1766015808.224586,93
1766015808.225607,92
1766015808.226597,91
1766015808.22761,92
1766015808.228607,92
1766015808.2296162,91
1766015808.2306209,91
1766015808.231626,94
1766015808.232606,89
1766015808.233637,89
1766015808.234617,86
1766015808.235626,90
1766015808.236639,88
1766015808.237637,88
1766015808.238644,88
1766015808.2396412,91
1766015808.2406452,88
1766015808.241667,86
1766015808.242649,85
1766015808.243655,84
1766015808.2446542,84
1766015808.2456489,86
1766015808.246649,86
1766015808.2476711,83
1766015808.248679,84
1766015808.2496698,82
1766015808.2506628,80
1766015808.251679,82
1766015808.252668,81
1766015808.253664,77
1766015808.2547,76
1766015808.2556958,80
1766015808.25669,80
1766015808.257699,78
1766015808.258703,82
1766015808.259712,79
1766015808.260708,81
1766015808.2617018,80
1766015808.2627058,81
1766015808.263702,81
1766015808.264705,77
1766015808.265723,74
1766015808.266721,75
1766015808.267723,76
1766015808.268724,74
1766015808.269724,74
1766015808.270734,76
1766015808.271745,75
1766015808.272737,74
1766015808.2737448,75
1766015808.274754,75
1766015808.275755,82
1766015808.276763,81
1766015808.277746,78
1766015808.278753,80
1766015808.279755,82
1766015808.280753,80
1766015808.28176,83
1766015808.282772,81
1766015808.283778,81
1766015808.2847779,81
1766015808.2857778,82
1766015808.286786,81
1766015808.28779,80
1766015808.288801,81
