timestamp,emg_value
1766015794.947417,60
1766015794.9474502,55
1766015794.947479,53
1766015794.947506,54
1766015794.9475331,52
1766015794.9475598,55
1766015794.947587,59
1766015794.947613,61
1766015794.9476402,62
1766015794.947667,67
1766015794.947693,68
1766015794.94772,71
1766015794.947746,70
1766015794.9477718,72
1766015794.9478002,72
1766015794.947825,72
1766015794.9478521,70
1766015794.9478788,70
1766015794.947905,71
1766015794.9479308,74
1766015794.947956,77
1766015794.947982,78
1766015794.948009,79
1766015794.948034,80
1766015794.9480598,79
1766015794.948087,84
1766015794.948113,85
1766015794.948139,84
1766015794.9481652,85
1766015794.948192,82
1766015794.948218,80
1766015794.9482439,83
1766015794.948276,84
1766015794.948292,85
1766015794.948307,84
1766015794.948322,86
1766015794.9483368,86
1766015794.948352,83
1766015794.9483678,82
1766015794.948383,80
1766015794.948398,83
1766015794.9484138,83
1766015794.948429,81
1766015794.948444,84
1766015794.948459,81
1766015794.9484742,82
1766015794.948489,81
1766015794.948504,78
1766015794.948519,79
1766015794.948534,78
1766015794.948549,76
1766015794.948564,76
1766015794.948579,75
1766015794.948595,75
1766015794.94861,77
1766015794.9486248,71
1766015794.94864,74
1766015794.9486551,74
1766015794.94867,74
1766015794.9486852,69
1766015794.9487,73
1766015794.948715,68
1766015794.9487302,71
1766015794.948745,69
1766015794.9487622,70
1766015794.948833,68
1766015794.948848,68
1766015794.948863,65
1766015794.948879,67
1766015794.948894,67
1766015794.948909,64
1766015794.9489238,66
1766015794.948939,64
1766015794.94896,66
1766015794.9489799,64
1766015794.948999,63
1766015794.9490151,65
1766015794.9490318,64
1766015794.949048,64
1766015794.9490628,65
1766015794.949078,67
1766015794.9490938,61
1766015794.949109,67
1766015794.949124,63
1766015794.9491389,61
1766015794.949155,65
1766015794.949172,60
1766015794.949188,62
1766015794.949203,60
1766015794.949218,60
1766015794.9492328,61
1766015794.949248,60
1766015794.949263,61
1766015794.9492779,62
1766015794.949294,61
1766015794.9493089,56
1766015794.9493241,59
1766015794.949344,61
1766015794.9493592,58
1766015794.949374,63
1766015794.949389,57
1766015794.949404,57
1766015794.949419,58
1766015794.949435,60
1766015794.94945,60
1766015794.949465,62
1766015794.9494798,63
1766015794.949495,61
1766015794.9495099,60
1766015794.949543,60
1766015794.949558,61
1766015794.949574,63
1766015794.949589,63
1766015794.949604,60
1766015794.949619,64
1766015794.949634,62
1766015794.949648,63
1766015794.949664,61
1766015794.9496791,63
1766015794.949694,66
1766015794.949709,66
1766015794.949724,68
1766015794.949739,66
1766015794.949754,69
1766015794.949769,64
1766015794.949784,65
1766015794.9497988,69
1766015794.949814,67
1766015794.949829,68
1766015794.9498508,71
1766015794.949867,73
1766015794.949882,74
1766015794.949897,72
1766015794.949912,75
1766015794.9499269,78
1766015794.949942,74
1766015794.9499571,74
1766015794.949972,77
1766015794.9499872,73
1766015794.950003,75
1766015794.950018,72
1766015794.950033,72
1766015794.950048,72
1766015794.950063,69
1766015794.950078,71
1766015794.950093,72
1766015794.9501078,70
1766015794.950123,70
1766015794.950138,70
1766015794.9501529,67
1766015794.950169,68
1766015794.950185,66
1766015794.9502,66
1766015794.9502149,66
1766015794.9502301,64
1766015794.9502451,65
1766015794.95026,66
1766015794.950274,65
1766015794.950287,68
1766015794.9503,66
1766015794.9503129,63
1766015794.950326,60
1766015794.950343,63
1766015794.950356,64
1766015794.9503691,63
1766015794.9503832,60
1766015794.950397,61
1766015794.950411,60
1766015794.950423,61
1766015794.950436,57
1766015794.950449,60
1766015794.9504619,59
1766015794.950475,58
1766015794.950489,60
1766015794.950502,59
1766015794.950515,57
1766015794.950528,56
1766015794.950541,59
1766015794.9505541,56
1766015794.950567,54
1766015794.95058,56
1766015794.950593,56
1766015794.950606,53
1766015794.950619,54
1766015794.950631,51
1766015794.950645,55
1766015794.950658,55
1766015794.9506712,55
1766015794.9506829,57
1766015794.950696,57
1766015794.950709,57
1766015794.9507232,56
1766015794.9507358,59
1766015794.950749,61
1766015794.950764,63
1766015794.950777,68
1766015794.95079,69
1766015794.950803,69
1766015794.950816,71
1766015794.950829,73
1766015794.9508421,79
1766015794.950855,77
1766015794.950868,75
1766015794.950881,79
1766015794.950894,75
1766015794.950907,78
1766015794.9509199,77
1766015794.950933,74
1766015794.950946,76
1766015794.9509592,71
1766015794.9509718,74
1766015794.950985,75
1766015794.950998,74
1766015794.9510112,71
1766015794.951024,72
1766015794.951037,72
1766015794.95105,71
1766015794.9510632,72
1766015794.951075,68
1766015794.9510882,66
1766015794.9511008,69
1766015794.951114,67
1766015794.951127,68
1766015794.9511402,69
1766015794.9511528,72
1766015794.951166,74
1766015794.951179,79
1766015794.951201,79
1766015794.951214,80
1766015794.951226,83
1766015794.9512389,81
1766015794.951253,81
1766015794.951266,83
1766015794.95128,82
1766015794.951293,80
1766015794.9513059,82
1766015794.951318,82
1766015794.9513311,80
1766015794.951344,80
1766015794.9513578,81
1766015794.95137,79
1766015794.951383,80
1766015794.951396,80
1766015794.9514098,78
1766015794.951422,79
1766015794.951435,78
1766015794.951448,76
1766015794.9514618,77
1766015794.951475,76
1766015794.951487,75
1766015794.9515,76
1766015794.951513,72
1766015794.951526,72
1766015794.951539,73
1766015794.951552,71
1766015794.951565,69
1766015794.9515781,68
1766015794.951591,73
1766015794.951604,72
1766015794.9516191,69
1766015794.951634,70
1766015794.951647,67
1766015794.95166,68
1766015794.951673,69
1766015794.951686,68
1766015794.951699,68
1766015794.951712,62
1766015794.951725,62
1766015794.9517398,64
1766015794.951756,63
1766015794.9517708,66
1766015794.951786,62
1766015794.9517992,60
1766015794.951812,60
1766015794.951825,61
1766015794.951838,61
1766015794.951852,62
1766015794.9518652,61
1766015794.951877,61
1766015794.951891,57
1766015794.951904,61
1766015794.9519172,59
1766015794.9519308,54
1766015794.951945,57
1766015794.951958,57
1766015794.951971,57
1766015794.9519842,58
1766015794.951997,54
1766015794.952011,55
1766015794.952024,55
1766015794.9520361,55
1766015794.95205,55
1766015794.952065,56
1766015794.952079,56
1766015794.952091,54
1766015794.952105,52
1766015794.952118,54
1766015794.952131,52
1766015794.952144,51
1766015794.952157,53
1766015794.95217,54
1766015794.952183,49
1766015794.9521961,52
1766015794.952209,50
1766015794.9522219,51
1766015794.952235,51
1766015794.952248,49
1766015794.952262,51
1766015794.9522738,52
1766015794.952288,50
1766015794.952301,47
1766015794.9523149,50
1766015794.952327,47
1766015794.95234,45
1766015794.952353,47
1766015794.952366,46
1766015794.952379,47
1766015794.952393,50
1766015794.952406,50
1766015794.952419,48
1766015794.9524329,51
1766015794.952446,50
1766015794.952459,50
1766015794.952472,49
1766015794.952487,48
1766015794.952502,51
1766015794.9525151,50
1766015794.9525278,51
1766015794.9525409,51
1766015794.952555,48
1766015794.952568,49
1766015794.9525812,48
1766015794.9525938,49
1766015794.952607,47
1766015794.95262,48
1766015794.9526331,48
1766015794.952647,50
1766015794.95266,50
1766015794.952673,53
1766015794.952686,54
1766015794.952699,57
1766015794.9527118,54
1766015794.952725,52
1766015794.952738,58
1766015794.9527512,55
1766015794.9527638,55
1766015794.952777,59
1766015794.9527922,53
1766015794.952805,58
1766015794.952818,59
1766015794.952831,54
1766015794.9528441,58
1766015794.952857,55
1766015794.9528708,57
1766015794.952884,60
1766015794.952897,55
1766015794.9529102,57
1766015794.9529269,58
1766015794.95294,55
1766015794.952954,58
1766015794.952967,53
1766015794.95298,52
1766015794.952993,56
1766015794.953006,53
1766015794.953019,50
1766015794.953032,51
1766015794.953045,51
1766015794.953058,52
1766015794.953071,54
1766015794.953084,50
1766015794.9530969,51
1766015794.95311,49
1766015794.9531221,52
1766015794.953135,50
1766015794.953148,49
1766015794.953162,49
1766015794.953176,50
1766015794.9531891,50
1766015794.953202,50
1766015794.953215,49
1766015794.953228,48
1766015794.953241,49
1766015794.953254,48
1766015794.9532669,47
1766015794.95328,47
1766015794.953293,47
1766015794.9533062,45
1766015794.9533188,43
1766015794.953332,47
1766015794.953346,47
1766015794.953362,48
1766015794.953378,45
1766015794.953391,45
1766015794.953405,43
1766015794.953418,48
1766015794.9534311,43
1766015794.953444,46
1766015794.9534578,48
1766015794.953471,47
1766015794.953484,43
1766015794.953496,45
1766015794.9535098,45
1766015794.953523,42
1766015794.953536,44
1766015794.9535491,46
1766015794.953562,40
1766015794.953575,44
1766015794.953589,43
1766015794.9536011,41
1766015794.953616,41
1766015794.953629,41
1766015794.953642,45
1766015794.953655,43
1766015794.953668,42
1766015794.953681,39
1766015794.9536939,41
1766015794.953707,41
1766015794.953721,41
1766015794.953734,39
1766015794.953747,39
1766015794.953759,38
1766015794.953773,43
1766015794.95379,39
1766015794.953804,42
1766015794.9538162,38
1766015794.95383,39
1766015794.953844,40
1766015794.953857,42
1766015794.95387,44
1766015794.953883,41
1766015794.953896,41
1766015794.953909,39
1766015794.953922,40
1766015794.9539351,40
1766015794.953948,40
1766015794.953961,41
1766015794.953974,40
1766015794.953989,39
1766015794.954002,38
1766015794.954015,38
1766015794.954029,37
1766015794.9540422,40
1766015794.9540548,38
1766015794.954068,38
1766015794.954082,40
1766015794.9540951,40
1766015794.954108,38
1766015794.9541209,38
1766015794.954134,40
1766015794.954147,36
1766015794.9541602,36
1766015794.954174,35
1766015794.954187,38
1766015794.9542,41
1766015794.9542148,39
1766015794.95423,38
1766015794.9542432,37
1766015794.954257,38
1766015794.95427,39
1766015794.954283,38
1766015794.954296,39
1766015794.9543092,36
1766015794.9543219,37
1766015794.954336,40
1766015794.954349,35
1766015794.9543622,36
1766015794.954436,37
1766015794.9544551,38
1766015794.95447,37
1766015794.954484,36
1766015794.954498,39
1766015794.954512,37
1766015794.954525,37
1766015794.9545379,36
1766015794.954551,34
1766015794.954564,36
1766015794.954577,38
1766015794.9545898,34
1766015794.954603,34
1766015794.954616,36
1766015794.9546292,37
1766015794.954643,37
1766015794.954655,36
1766015794.954669,35
1766015794.954682,38
1766015794.954695,37
1766015794.9547079,36
1766015794.9547782,37
1766015794.954796,37
1766015794.9548101,38
1766015794.954823,38
1766015794.954836,35
1766015794.954849,36
1766015794.954862,36
1766015794.954875,35
1766015794.9548879,34
1766015794.954901,36
1766015794.954914,37
1766015794.9549272,37
1766015794.9549398,35
1766015794.954952,36
1766015794.9549649,34
1766015794.954978,36
1766015794.954991,38
1766015794.955004,36
1766015794.9550169,36
1766015794.95503,37
1766015794.955043,32
1766015794.9550562,34
1766015794.9550688,34
1766015794.955104,36
1766015794.9551191,35
1766015794.955134,40
1766015794.955148,35
1766015794.955162,36
1766015794.955175,38
1766015794.955204,32
1766015794.9552178,33
1766015794.955231,35
1766015794.955248,32
1766015794.955263,31
1766015794.9552782,33
1766015794.9552908,34
1766015794.955304,33
1766015794.955317,34
1766015794.9553301,36
1766015794.955343,32
1766015794.955356,34
1766015794.955369,34
1766015794.955382,37
1766015794.955394,32
1766015794.9554071,32
1766015794.95542,31
1766015794.955433,32
1766015794.955446,35
1766015794.955459,32
1766015794.9554718,33
1766015794.955484,31
1766015794.955497,33
1766015794.95551,33
1766015794.955523,32
1766015794.955536,32
1766015794.9555478,34
1766015794.9555619,33
1766015794.955574,33
1766015794.9555871,31
1766015794.9555998,32
1766015794.955613,35
1766015794.955625,35
1766015794.955638,31
1766015794.955652,35
1766015794.9556658,33
1766015794.955681,34
1766015794.9556942,32
1766015794.9557068,34
1766015794.95572,34
1766015794.955733,33
1766015794.955746,34
1766015794.955759,33
1766015794.955772,32
1766015794.955785,30
1766015794.955797,31
1766015794.95581,32
1766015794.9558232,34
1766015794.9558358,32
1766015794.955849,30
1766015794.955862,29
1766015794.955876,34
1766015794.955889,32
1766015794.9559019,31
1766015794.955915,29
1766015794.955928,31
1766015794.955942,35
1766015794.955955,31
1766015794.955968,30
1766015794.955981,30
1766015794.9559941,29
1766015794.956007,32
1766015794.9560199,28
1766015794.956032,32
1766015794.9560452,31
1766015794.956058,31
1766015794.956071,31
1766015794.956084,29
1766015794.956102,32
1766015794.956117,31
1766015794.956129,29
1766015794.9561422,31
1766015794.9561548,33
1766015794.95617,30
1766015794.956183,32
1766015794.956196,29
1766015794.956209,28
1766015794.956223,29
1766015794.956238,32
1766015794.956251,32
1766015794.956264,29
1766015794.956276,29
1766015794.956289,34
1766015794.9563022,29
1766015794.9563148,31
1766015794.956328,33
1766015794.956341,31
1766015794.9563541,34
1766015794.956367,32
1766015794.95638,33
1766015794.956393,32
1766015794.956406,32
1766015794.956419,30
1766015794.9564319,28
1766015794.956445,31
1766015794.956457,33
1766015794.95647,32
1766015794.9564831,32
1766015794.9564958,31
1766015794.9565089,29
1766015794.956522,30
1766015794.9565382,28
1766015794.9565508,28
1766015794.956564,27
1766015794.956577,31
1766015794.956589,27
1766015794.956602,30
1766015794.956615,29
1766015794.956628,28
1766015794.956641,27
1766015794.956654,30
1766015794.9566662,30
1766015794.9566789,29
1766015794.956692,29
1766015794.956704,29
1766015794.956717,30
1766015794.9567301,30
1766015794.956743,31
1766015794.9567559,30
1766015794.9567711,31
1766015794.956784,30
1766015794.956797,29
1766015794.95681,27
1766015794.956823,33
1766015794.956836,30
1766015794.9568489,28
1766015794.956862,28
1766015794.956875,32
1766015794.956888,32
1766015794.956901,29
1766015794.956914,30
1766015794.956927,30
1766015794.95694,29
1766015794.956954,31
1766015794.956969,26
1766015794.956982,30
1766015794.956995,28
1766015794.957008,30
1766015794.957021,29
1766015794.9570339,29
1766015794.957047,31
1766015794.95706,29
1766015794.957073,27
1766015794.9570858,27
1766015794.957099,29
1766015794.957112,26
1766015794.957124,31
1766015794.9571369,29
1766015794.95715,28
1766015794.957163,29
1766015794.957178,26
1766015794.9571898,27
1766015794.957207,29
1766015794.95722,27
1766015794.957233,31
1766015794.957246,27
1766015794.957259,29
1766015794.957273,30
1766015794.9572852,29
1766015794.9572978,26
1766015794.957311,31
1766015794.957324,29
1766015794.957336,30
1766015794.957349,27
1766015794.957362,27
1766015794.957375,29
1766015794.957391,27
1766015794.957404,28
1766015794.957417,28
1766015794.957429,27
1766015794.957442,28
1766015794.9574552,26
1766015794.9574678,28
1766015794.957481,28
1766015794.957493,28
1766015794.957506,28
1766015794.957519,30
1766015794.957532,26
1766015794.957545,31
1766015794.957558,27
1766015794.95757,28
1766015794.9575832,28
1766015794.9575958,28
1766015794.957609,31
1766015794.957622,29
1766015794.9576352,26
1766015794.9576478,29
1766015794.957661,26
1766015794.957673,27
1766015794.957686,29
1766015794.957699,29
1766015794.957712,30
1766015794.9577239,28
1766015794.957737,29
1766015794.95775,30
1766015794.957763,27
1766015794.9577758,27
1766015794.957789,28
1766015794.957803,27
1766015794.95782,28
1766015794.957833,27
1766015794.957846,25
1766015794.957859,26
1766015794.9578729,27
1766015794.957886,27
1766015794.957899,25
1766015794.957912,27
1766015794.9579241,27
1766015794.957937,25
1766015794.9579499,29
1766015794.957962,26
1766015794.9579751,28
1766015794.957988,26
1766015794.958001,24
1766015794.9580128,26
1766015794.958026,27
1766015794.9580412,26
1766015794.9580538,23
1766015794.958067,28
1766015794.958081,27
1766015794.9580941,25
1766015794.958107,26
1766015794.9581199,26
1766015794.958133,25
1766015794.958146,28
1766015794.958157,27
1766015794.9581702,27
1766015794.9581819,26
1766015794.9581928,26
1766015794.9582038,26
1766015794.958215,26
1766015794.9582279,27
1766015794.958242,23
1766015794.958254,25
1766015794.958265,25
1766015794.9582772,28
1766015794.958288,27
1766015794.958299,25
1766015794.95831,25
1766015794.9583209,26
1766015794.958333,26
1766015794.958344,25
1766015794.958355,24
1766015794.958366,24
1766015794.958377,23
1766015794.958389,23
1766015794.9584,28
1766015794.958411,24
1766015794.9584231,27
1766015794.958434,24
1766015794.958445,23
1766015794.958456,26
1766015794.9584682,24
1766015794.9584792,28
1766015794.9584901,27
1766015794.958501,28
1766015794.958512,29
1766015794.9585228,27
1766015794.958535,25
1766015794.958546,25
1766015794.958557,24
1766015794.958569,23
1766015794.95858,24
1766015794.958591,24
1766015794.958606,23
1766015794.9586189,23
1766015794.9586298,25
1766015794.9586408,24
1766015794.958653,26
1766015794.958664,23
1766015794.958675,25
1766015794.9586859,24
1766015794.9586968,24
1766015794.958708,26
1766015794.958719,20
1766015794.958731,23
1766015794.958742,28
1766015794.958754,27
1766015794.958765,30
1766015794.958776,29
1766015794.958787,30
1766015794.9587982,29
1766015794.9588091,27
1766015794.958821,29
1766015794.958832,30
1766015794.958843,30
1766015794.958854,32
1766015794.958866,27
1766015794.9588768,31
1766015794.958888,32
1766015794.958899,32
1766015794.958911,33
1766015794.958922,30
1766015794.9589329,31
1766015794.9589481,30
1766015794.958959,33
1766015794.958972,31
1766015794.958986,29
1766015794.958998,30
1766015794.959009,28
1766015794.959021,32
1766015794.959032,32
1766015794.959043,31
1766015794.959054,33
1766015794.9590662,29
1766015794.9590771,32
1766015794.959088,30
1766015794.9590988,29
1766015794.9591098,32
1766015794.959121,28
1766015794.959133,32
1766015794.9591439,33
1766015794.9591548,31
1766015794.959167,28
1766015794.95918,29
1766015794.959191,32
1766015794.959202,31
1766015794.959213,27
1766015794.959224,26
1766015794.9592361,28
1766015794.959247,33
1766015794.959258,29
1766015794.959269,29
1766015794.959281,33
1766015794.959292,30
1766015794.959303,32
1766015794.9593139,30
1766015794.9593248,31
1766015794.959336,33
1766015794.959351,28
1766015794.9593642,35
1766015794.9593759,31
1766015794.9593868,31
1766015794.9593978,31
1766015794.959409,31
1766015794.95942,27
1766015794.959432,27
1766015794.9594429,32
1766015794.959454,32
1766015794.959466,32
1766015794.959477,29
1766015794.959488,27
1766015794.9595,31
1766015794.959511,31
1766015794.959522,32
1766015794.9595342,34
1766015794.9595451,36
1766015794.959557,37
1766015794.9595678,38
1766015794.959579,37
1766015794.95959,38
1766015794.959601,33
1766015794.959612,37
1766015794.9596229,40
1766015794.959636,37
1766015794.959648,38
1766015794.95966,38
1766015794.959671,36
1766015794.959682,35
1766015794.959693,37
1766015794.9597042,38
1766015794.959717,36
1766015794.9597309,35
1766015794.959744,40
1766015794.959755,39
1766015794.959766,37
1766015794.959777,35
1766015794.959788,35
1766015794.959799,36
1766015794.95981,38
1766015794.959821,39
1766015794.9598331,43
1766015794.959845,38
1766015794.959856,42
1766015794.9598668,40
1766015794.959878,41
1766015794.95989,45
1766015794.9599009,39
1766015794.9599118,41
1766015794.959923,43
1766015794.959934,40
1766015794.959945,43
1766015794.959956,44
1766015794.959967,45
1766015794.959979,42
1766015794.95999,45
1766015794.960001,43
1766015794.960014,46
1766015794.960025,46
1766015794.9600372,42
1766015794.9600482,42
1766015794.960059,47
1766015794.9600708,46
1766015794.9600818,48
1766015794.960096,47
1766015794.9601102,43
1766015794.9601212,46
1766015794.960133,43
1766015794.9601438,43
1766015794.9601548,45
1766015794.960168,45
1766015794.96018,48
1766015794.960191,49
1766015794.960202,47
1766015794.960213,45
1766015794.960225,49
1766015794.960236,47
1766015794.960247,48
1766015794.960258,48
1766015794.960269,46
1766015794.9602802,45
1766015794.960292,46
1766015794.960303,46
1766015794.960314,44
1766015794.960325,44
1766015794.960337,46
1766015794.960348,45
1766015794.9603589,44
1766015794.9603698,42
1766015794.960382,44
1766015794.960393,42
1766015794.960404,43
1766015794.960415,41
1766015794.960426,43
1766015794.960437,44
1766015794.960448,46
1766015794.96046,46
1766015794.960475,47
1766015794.960487,44
1766015794.960499,43
1766015794.96051,44
1766015794.960521,44
1766015794.960532,47
1766015794.960543,49
1766015794.960554,48
1766015794.960566,48
1766015794.960577,48
1766015794.960588,47
1766015794.960599,48
1766015794.9606102,49
1766015794.960621,51
1766015794.960633,51
1766015794.960644,51
1766015794.9606552,53
1766015794.9606662,57
1766015794.9606779,57
1766015794.9606888,61
1766015794.9606998,64
1766015794.960712,64
1766015794.960723,68
1766015794.960734,68
1766015794.960746,66
1766015794.960757,65
1766015794.960768,70
1766015794.9607801,69
1766015794.960792,69
1766015794.960803,70
1766015794.9608152,68
1766015794.9608262,67
1766015794.9608388,67
1766015794.960854,64
1766015794.960866,66
1766015794.960877,65
1766015794.9608881,69
1766015794.960899,65
1766015794.96091,67
1766015794.960921,65
1766015794.960932,64
1766015794.9609432,66
1766015794.9609542,63
1766015794.9609652,62
1766015794.960978,61
1766015794.96099,63
1766015794.961001,62
1766015794.961012,60
1766015794.961023,60
1766015794.961035,59
1766015794.961046,60
1766015794.961057,59
1766015794.961068,60
1766015794.96108,63
1766015794.961091,63
1766015794.961102,64
1766015794.961113,70
1766015794.9611242,71
1766015794.9611351,66
1766015794.9611468,74
1766015794.9611578,77
1766015794.9611719,81
1766015794.961184,85
1766015794.961196,82
1766015794.9612072,80
1766015794.961222,82
1766015794.961235,82
1766015794.961246,81
1766015794.961257,83
1766015794.961269,80
1766015794.96128,81
1766015794.961291,79
1766015794.961302,80
1766015794.961313,75
1766015794.961324,76
1766015794.961335,77
1766015794.9613461,75
1766015794.961358,73
1766015794.961369,74
1766015794.96138,74
1766015794.9613912,75
1766015794.961403,75
1766015794.9614139,71
1766015794.9614248,72
1766015794.9614358,72
1766015794.961447,68
1766015794.961458,70
1766015794.961469,70
1766015794.96148,68
1766015794.961492,66
1766015794.961503,70
1766015794.961515,68
1766015794.961526,65
1766015794.961538,68
1766015794.961549,67
1766015794.96156,71
1766015794.961571,68
1766015794.961584,69
1766015794.961598,70
1766015794.961609,67
1766015794.9616199,67
1766015794.961632,66
1766015794.961643,66
1766015794.961654,67
1766015794.961665,67
1766015794.961677,65
1766015794.961688,65
1766015794.961699,62
1766015794.961715,66
1766015794.961727,65
1766015794.9617379,63
1766015794.96175,61
1766015794.961761,61
1766015794.961772,63
1766015794.961783,63
1766015794.961795,59
1766015794.961806,59
1766015794.961817,62
1766015794.961828,63
1766015794.9618402,58
1766015794.961851,59
1766015794.9618628,62
1766015794.961874,61
1766015794.961885,61
1766015794.961896,64
1766015794.9619079,66
1766015794.961919,63
1766015794.96193,66
1766015794.961942,61
1766015794.961953,63
1766015794.9619682,65
1766015794.9619808,67
1766015794.961994,64
1766015794.962005,61
1766015794.962016,66
1766015794.962027,66
1766015794.962039,63
1766015794.96205,66
1766015794.9620612,63
1766015794.9620721,64
1766015794.962083,66
1766015794.962094,67
1766015794.962105,68
1766015794.9621172,66
1766015794.962128,65
1766015794.9621382,66
1766015794.9621482,64
1766015794.962158,68
1766015794.9621701,66
1766015794.962181,66
1766015794.962191,65
1766015794.962201,66
1766015794.9622111,66
1766015794.9622211,65
1766015794.962231,65
1766015794.9622421,66
1766015794.9622521,63
1766015794.962262,63
1766015794.962272,64
1766015794.962282,63
1766015794.962292,63
1766015794.962302,62
1766015794.962313,63
1766015794.962326,59
1766015794.962337,58
1766015794.962347,62
1766015794.962357,58
1766015794.962367,62
1766015794.962377,62
1766015794.9623868,59
1766015794.9623969,56
1766015794.9624069,63
1766015794.962417,60
1766015794.962427,57
1766015794.9624372,60
1766015794.9624472,57
1766015794.9624572,55
1766015794.962467,60
1766015794.962476,59
1766015794.962486,61
1766015794.962497,58
1766015794.962507,60
1766015794.962517,60
1766015794.962527,60
1766015794.962538,57
1766015794.962548,58
1766015794.962558,56
1766015794.962569,58
1766015794.96258,58
1766015794.962591,59
1766015794.9626,58
1766015794.962611,58
1766015794.962621,57
1766015794.962631,58
1766015794.9626398,58
1766015794.9626539,58
1766015794.9626648,60
1766015794.962677,60
1766015794.962687,54
1766015794.962698,56
1766015794.962708,57
1766015794.962718,55
1766015794.962729,56
1766015794.962739,57
1766015794.9627478,59
1766015794.9627578,58
1766015794.9627678,56
1766015794.962778,55
1766015794.962788,56
1766015794.962798,56
1766015794.9628081,55
1766015794.962817,56
1766015794.962827,56
1766015794.962838,54
1766015794.962847,58
1766015794.962857,55
1766015794.962867,59
1766015794.962877,55
1766015794.9628868,55
1766015794.9628968,54
1766015794.9629068,55
1766015794.962917,55
1766015794.962927,55
1766015794.962937,55
1766015794.962949,54
1766015794.962959,54
1766015794.962969,53
1766015794.9629781,54
1766015794.962991,55
1766015794.9630022,56
1766015794.963012,53
1766015794.963022,52
1766015794.963032,55
1766015794.963064,55
1766015794.9630752,53
1766015794.9630861,54
1766015794.963097,54
1766015794.963107,56
1766015794.963118,54
1766015794.963128,52
1766015794.963138,53
1766015794.963149,53
1766015794.963159,52
1766015794.96317,53
1766015794.96318,53
1766015794.963191,52
1766015794.963201,51
1766015794.963211,51
1766015794.963221,53
1766015794.963232,52
1766015794.963242,53
1766015794.963252,56
1766015794.963263,51
1766015794.963273,51
1766015794.963283,53
1766015794.963294,50
1766015794.963304,51
1766015794.963315,55
1766015794.963325,53
1766015794.9633348,53
1766015794.963348,53
1766015794.96336,53
1766015794.963371,52
1766015794.963382,53
1766015794.963392,53
1766015794.963402,53
1766015794.963412,54
1766015794.963423,54
1766015794.963433,50
1766015794.963443,52
1766015794.963454,54
1766015794.963466,52
1766015794.963476,55
1766015794.963486,52
1766015794.963496,48
1766015794.963506,51
1766015794.963516,52
1766015794.963527,52
1766015794.963537,52
1766015794.963547,51
1766015794.963559,51
1766015794.963569,51
1766015794.96358,50
1766015794.96359,51
1766015794.9636,50
1766015794.9636102,48
1766015794.9636211,51
1766015794.9636312,51
1766015794.9636412,51
1766015794.9636512,53
1766015794.9636621,49
1766015794.9636722,52
1766015794.963682,48
1766015794.963756,51
1766015794.963768,51
1766015794.963779,53
1766015794.9637902,50
1766015794.9638,50
1766015794.9638112,52
1766015794.9638479,51
1766015794.9638588,50
1766015794.9638689,50
1766015794.963881,49
1766015794.963891,49
1766015794.963901,51
1766015794.963912,50
1766015794.963922,48
1766015794.964024,49
1766015794.9640372,46
1766015794.9640498,49
1766015794.964124,48
1766015794.964143,51
1766015794.964156,48
1766015794.964169,46
1766015794.9642031,46
1766015794.964253,47
1766015794.964266,46
1766015794.9642801,44
1766015794.964293,46
1766015794.9643059,46
1766015794.964319,49
1766015794.964332,48
1766015794.964345,47
1766015794.964391,44
1766015794.9644039,46
1766015794.964423,43
1766015794.964437,45
1766015794.964449,45
1766015794.964462,46
1766015794.964523,46
1766015794.9645429,47
1766015794.964554,46
1766015794.9646652,45
1766015794.9646761,42
1766015794.9646862,42
1766015794.9646962,43
1766015794.964753,44
1766015794.964851,45
1766015794.96487,45
1766015794.9648829,46
1766015794.964896,44
1766015794.964909,43
1766015794.9649222,44
1766015794.9649348,44
1766015794.964973,43
1766015794.9649851,45
1766015794.9649951,43
1766015794.965006,44
1766015794.9650161,45
1766015794.9650261,46
1766015794.965036,42
1766015794.9650471,42
1766015794.965059,42
1766015794.9650712,39
1766015794.965081,42
1766015794.965091,43
1766015794.965138,42
1766015794.9651551,41
1766015794.9651752,40
1766015794.965188,41
1766015794.965201,40
1766015794.965214,41
1766015794.9652271,40
1766015794.9652622,42
1766015794.9652731,37
1766015794.965284,41
1766015794.965296,40
1766015794.965306,40
1766015794.965317,38
1766015794.965328,40
1766015794.965347,42
1766015794.965358,38
1766015794.965368,36
1766015794.965431,39
1766015794.9655008,40
1766015794.965568,41
1766015794.965606,38
1766015794.965617,37
1766015794.965628,40
1766015794.965638,39
1766015794.965667,35
1766015794.9656801,40
1766015794.965693,38
1766015794.9657059,43
1766015794.965718,36
1766015794.9657311,37
1766015794.965744,37
1766015794.965756,39
1766015794.965769,40
1766015794.965782,40
1766015794.965798,40
1766015794.965813,37
1766015794.965825,39
1766015794.9658382,37
1766015794.96585,38
1766015794.965863,38
1766015794.965875,41
1766015794.965887,39
1766015794.9659,39
1766015794.965913,37
1766015794.9659252,38
1766015794.9659379,38
1766015794.96595,38
1766015794.9659631,38
1766015794.965975,37
1766015794.9659882,38
1766015794.966,38
1766015794.966012,39
1766015794.9660249,38
1766015794.966037,37
1766015794.966049,37
1766015794.966061,37
1766015794.9660742,37
1766015794.966086,36
1766015794.9660978,36
1766015794.966111,36
1766015794.966123,35
1766015794.966135,35
1766015794.9661472,40
1766015794.9661598,37
1766015794.966173,35
1766015794.9661849,36
1766015794.966197,35
1766015794.9662132,38
1766015794.9662259,35
1766015794.966239,35
1766015794.966251,34
1766015794.966264,35
1766015794.9662762,36
1766015794.9662879,33
1766015794.966301,34
1766015794.966313,35
1766015794.966325,38
1766015794.9663382,36
1766015794.96635,33
1766015794.966362,34
1766015794.9663749,34
1766015794.966388,34
1766015794.9664,35
1766015794.966412,32
1766015794.966424,33
1766015794.966437,30
1766015794.9664488,34
1766015794.966461,33
1766015794.966474,34
1766015794.966486,32
1766015794.9664981,37
1766015794.966511,36
1766015794.966523,35
1766015794.966536,35
1766015794.966548,32
1766015794.96656,32
1766015794.966573,31
1766015794.9665852,32
1766015794.966597,33
1766015794.96661,35
1766015794.966628,31
1766015794.966642,33
1766015794.966655,30
1766015794.966667,30
1766015794.96668,30
1766015794.9666922,31
1766015794.966708,34
1766015794.96672,32
1766015794.966733,33
1766015794.9667451,32
1766015794.966757,33
1766015794.96677,31
1766015794.966783,32
1766015794.966795,33
1766015794.966808,29
1766015794.96682,34
1766015794.9668322,33
1766015794.966845,29
1766015794.966857,34
1766015794.9668689,32
1766015794.966882,32
1766015794.966895,32
1766015794.9669068,30
1766015794.96692,27
1766015794.966932,27
1766015794.966944,30
1766015794.966957,30
1766015794.966969,32
1766015794.966982,29
1766015794.9669938,33
1766015794.967007,27
1766015794.967019,29
1766015794.967032,32
1766015794.967048,31
1766015794.9670599,30
1766015794.967073,29
1766015794.967086,29
1766015794.967098,32
1766015794.9671109,30
1766015794.967123,32
1766015794.967136,26
1766015794.967148,33
1766015794.9671612,30
1766015794.967173,30
1766015794.967186,31
1766015794.967199,27
1766015794.967211,25
1766015794.9672241,29
1766015794.967236,29
1766015794.967249,30
1766015794.9672608,29
1766015794.967274,25
1766015794.967286,29
1766015794.967298,26
1766015794.9673111,28
1766015794.9673228,29
1766015794.967336,26
1766015794.9673479,31
1766015794.96736,29
1766015794.9673731,28
1766015794.967386,27
1766015794.967398,31
1766015794.9674098,29
1766015794.967423,25
1766015794.9674351,27
1766015794.9674501,25
1766015794.967465,25
1766015794.967477,27
1766015794.96749,31
1766015794.967506,26
1766015794.9675179,29
1766015794.967531,29
1766015794.9675431,28
1766015794.967555,26
1766015794.967568,28
1766015794.9675798,26
1766015794.967593,24
1766015794.9676049,28
1766015794.967618,25
1766015794.9676301,26
1766015794.967642,23
1766015794.967654,26
1766015794.9676669,26
1766015794.967679,24
1766015794.9676921,23
1766015794.967704,25
1766015794.9677172,24
1766015794.9677289,24
1766015794.967741,24
1766015794.967754,25
1766015794.967766,26
1766015794.967778,23
1766015794.9677901,28
1766015794.9678028,29
1766015794.967815,26
1766015794.967828,23
1766015794.96784,27
1766015794.967852,29
1766015794.967867,26
1766015794.967881,25
1766015794.967893,24
1766015794.967906,25
1766015794.9679182,24
1766015794.96793,26
1766015794.967943,25
1766015794.9679549,27
1766015794.967967,26
1766015794.967979,26
1766015794.96799,27
1766015794.9680011,26
1766015794.968011,28
1766015794.968021,25
1766015794.968032,25
1766015794.968042,25
1766015794.968053,26
1766015794.9680629,25
1766015794.968073,23
1766015794.9680839,24
1766015794.9680939,26
1766015794.968104,24
1766015794.968114,27
1766015794.968163,21
1766015794.9681761,26
1766015794.9681861,24
1766015794.968197,25
1766015794.9682078,26
1766015794.9682188,28
1766015794.9682298,25
1766015794.96824,25
1766015794.968251,24
1766015794.968262,25
1766015794.968276,23
1766015794.968288,24
1766015794.968299,25
1766015794.968309,28
1766015794.96832,25
1766015794.96833,24
1766015794.9683409,22
1766015794.968352,24
1766015794.968362,26
1766015794.968373,23
1766015794.968383,20
1766015794.968394,22
1766015794.968405,29
1766015794.968415,25
1766015794.968426,29
1766015794.968436,24
1766015794.968447,21
1766015794.968457,24
1766015794.968468,26
1766015794.968479,23
1766015794.968489,26
1766015794.9685,22
1766015794.9685109,21
1766015794.968522,19
1766015794.968533,25
1766015794.968543,25
1766015794.968554,24
1766015794.968564,24
1766015794.968575,24
1766015794.968586,25
1766015794.968596,21
1766015794.968607,23
1766015794.968618,26
1766015794.9686332,23
1766015794.9686441,25
1766015794.9686542,23
1766015794.9686651,23
1766015794.9686751,21
1766015794.968686,21
1766015794.968696,22
1766015794.968707,22
1766015794.968717,25
1766015794.968728,22
1766015794.968738,25
1766015794.968749,22
1766015794.968759,24
1766015794.96877,27
1766015794.968781,22
1766015794.968791,24
1766015794.968802,22
1766015794.968812,25
1766015794.968823,21
1766015794.968833,20
1766015794.968844,25
1766015794.9688551,24
1766015794.968867,22
1766015794.968878,22
1766015794.968888,21
1766015794.968898,23
1766015794.968909,22
1766015794.968919,26
1766015794.96893,24
1766015794.968941,20
1766015794.968951,24
1766015794.968962,25
1766015794.968975,20
1766015794.968988,20
1766015794.968998,23
1766015794.969009,24
1766015794.969019,24
1766015794.96903,23
1766015794.96904,23
1766015794.969051,21
1766015794.9690611,22
1766015794.969072,23
1766015794.969082,24
1766015794.969093,23
1766015794.969103,21
1766015794.969114,23
1766015794.969124,21
1766015794.969135,24
1766015794.969146,21
1766015794.969156,22
1766015794.969167,21
1766015794.9691782,24
1766015794.9691882,22
1766015794.9691992,25
1766015794.9692092,18
1766015794.9692202,24
1766015794.9692302,22
1766015794.9692411,22
1766015794.969252,22
1766015794.9692621,21
1766015794.9692721,22
1766015794.969283,26
1766015794.969294,23
1766015794.969304,23
1766015794.969315,23
1766015794.9693289,20
1766015794.969343,21
1766015794.969353,24
1766015794.969364,22
1766015794.969374,21
1766015794.969385,22
1766015794.9693959,24
1766015794.969406,21
1766015794.9694169,24
1766015794.9694269,21
1766015794.9694378,23
1766015794.969449,21
1766015794.969459,22
1766015794.96947,22
1766015794.96948,19
1766015794.969491,21
1766015794.969501,19
1766015794.969512,20
1766015794.969523,21
1766015794.969533,21
1766015794.969544,24
1766015794.969554,24
1766015794.969565,21
1766015794.969575,21
1766015794.969586,21
1766015794.969596,22
1766015794.9696069,22
1766015794.969617,25
1766015794.969627,22
1766015794.9696379,23
1766015794.9696488,24
1766015794.9696589,22
1766015794.9696698,20
1766015794.969683,22
1766015794.969696,21
1766015794.969706,23
1766015794.969717,24
1766015794.969727,21
1766015794.969738,23
1766015794.969748,20
1766015794.969759,20
1766015794.969769,23
1766015794.96978,23
1766015794.96979,22
1766015794.9698,22
1766015794.969812,25
1766015794.969822,21
1766015794.969832,22
1766015794.969843,25
1766015794.969853,19
1766015794.969864,21
1766015794.969874,24
1766015794.969884,20
1766015794.969895,21
1766015794.969905,20
1766015794.9699159,22
1766015794.9699259,23
1766015794.9699368,22
1766015794.9699478,24
1766015794.969959,22
1766015794.9699688,22
1766015794.96998,20
1766015794.9699898,19
1766015794.970001,21
1766015794.970012,23
1766015794.970022,22
1766015794.970037,22
1766015794.970048,20
1766015794.970059,20
1766015794.970069,21
1766015794.97008,19
1766015794.97009,22
1766015794.9701009,20
1766015794.970111,20
1766015794.970122,22
1766015794.970133,20
1766015794.970143,23
1766015794.970154,22
1766015794.970164,22
1766015794.970175,20
1766015794.970185,21
1766015794.970196,21
1766015794.970207,22
1766015794.970217,23
1766015794.970228,21
1766015794.970238,25
1766015794.970249,22
1766015794.97026,23
1766015794.9702709,25
1766015794.970281,20
1766015794.9702919,21
1766015794.970303,21
1766015794.970314,22
1766015794.970324,22
1766015794.970335,22
1766015794.970346,22
1766015794.970356,25
1766015794.970367,22
1766015794.97038,19
1766015794.970391,20
1766015794.970402,22
1766015794.970412,21
1766015794.970423,19
1766015794.970433,20
1766015794.970444,22
1766015794.970454,22
1766015794.970465,23
1766015794.9704762,21
1766015794.970486,24
1766015794.9704971,20
1766015794.970507,20
1766015794.970518,23
1766015794.970528,21
1766015794.970539,22
1766015794.970549,22
1766015794.97056,21
1766015794.97057,24
1766015794.970581,20
1766015794.970591,20
1766015794.970602,20
1766015794.970613,21
1766015794.970623,18
1766015794.970634,21
1766015794.970645,19
1766015794.970655,23
1766015794.970666,22
1766015794.970676,21
1766015794.970687,22
1766015794.970697,19
1766015794.970708,22
1766015794.9707189,22
1766015794.9707332,22
1766015794.970743,24
1766015794.9707541,23
1766015794.970765,22
1766015794.970776,19
1766015794.970786,24
1766015794.970796,22
1766015794.970807,23
1766015794.970817,19
1766015794.970828,24
1766015794.970839,24
1766015794.970849,21
1766015794.97086,22
1766015794.97087,23
1766015794.970881,20
1766015794.970891,20
1766015794.970902,23
1766015794.970913,22
1766015794.970923,22
1766015794.970934,21
1766015794.970944,22
1766015794.970955,23
1766015794.970965,22
1766015794.970976,20
1766015794.970986,21
1766015794.970997,23
1766015794.9710069,23
1766015794.971018,23
1766015794.9710279,23
1766015794.971039,20
1766015794.97105,21
1766015794.97106,22
1766015794.971071,23
1766015794.971082,24
1766015794.971092,24
1766015794.971103,23
1766015794.971113,23
1766015794.971124,22
1766015794.971135,21
1766015794.971145,22
1766015794.971156,22
1766015794.971167,19
1766015794.9711769,25
1766015794.971188,21
1766015794.971199,23
1766015794.971209,25
1766015794.97122,21
1766015794.97123,22
1766015794.971241,25
1766015794.971251,24
1766015794.971262,23
1766015794.971272,22
1766015794.971283,20
1766015794.971293,25
1766015794.971304,23
1766015794.971315,23
1766015794.971325,24
1766015794.971335,20
1766015794.971346,22
1766015794.971356,27
1766015794.971367,23
1766015794.9713778,24
1766015794.9713879,24
1766015794.9713988,25
1766015794.9714088,25
1766015794.9714198,24
1766015794.9714298,26
1766015794.9714408,21
1766015794.9714508,25
1766015794.9714618,24
1766015794.971473,24
1766015794.971483,22
1766015794.971494,23
1766015794.9715042,23
1766015794.971516,24
1766015794.9715269,23
1766015794.9715369,26
1766015794.9715478,25
1766015794.9715579,26
1766015794.9715688,26
1766015794.9715788,26
1766015794.9715898,26
1766015794.9715998,28
1766015794.9716108,26
1766015794.971621,24
1766015794.9716322,26
1766015794.971643,23
1766015794.9716532,26
1766015794.971663,27
1766015794.9716742,25
1766015794.971684,25
1766015794.9716952,26
1766015794.9717062,23
1766015794.9717162,23
1766015794.9717271,26
1766015794.971738,26
1766015794.971748,25
1766015794.971759,25
1766015794.97177,28
1766015794.97178,28
1766015794.971791,28
1766015794.971801,29
1766015794.971812,26
1766015794.9718232,26
1766015794.971833,26
1766015794.9718442,26
1766015794.971854,26
1766015794.9718652,25
1766015794.9718752,28
1766015794.9718862,27
1766015794.9718962,28
1766015794.9719071,27
1766015794.971918,29
1766015794.9719281,28
1766015794.971939,26
1766015794.971949,26
1766015794.97196,27
1766015794.97197,28
1766015794.971981,28
1766015794.971991,25
1766015794.972002,27
1766015794.972012,26
1766015794.972022,25
1766015794.972033,28
1766015794.972043,29
1766015794.972054,30
1766015794.972064,28
1766015794.972075,26
1766015794.972085,28
1766015794.972096,28
1766015794.972107,27
1766015794.972117,26
1766015794.972128,29
1766015794.972138,28
1766015794.972149,29
1766015794.97216,32
1766015794.9721699,29
1766015794.972181,31
1766015794.972192,29
1766015794.972203,29
1766015794.972213,27
1766015794.972224,29
1766015794.972234,28
1766015794.972245,29
1766015794.972255,28
1766015794.972265,31
1766015794.972276,29
1766015794.972287,29
1766015794.972297,29
1766015794.972308,30
1766015794.972318,30
1766015794.972329,31
1766015794.972339,28
1766015794.97235,30
1766015794.9723608,29
1766015794.972372,26
1766015794.972382,28
1766015794.972393,30
1766015794.972403,31
1766015794.972414,29
1766015794.972425,27
1766015794.972435,30
1766015794.972446,28
1766015794.972456,29
1766015794.972467,31
1766015794.972477,27
1766015794.972488,28
1766015794.972498,28
1766015794.972509,28
1766015794.972519,28
1766015794.97253,31
1766015794.97254,27
1766015794.9725509,27
1766015794.972561,30
1766015794.9725718,27
1766015794.9725828,29
1766015794.9725928,28
1766015794.9726038,29
1766015794.9726138,31
1766015794.9726238,29
1766015794.9726348,29
1766015794.972646,33
1766015794.972656,29
1766015794.972667,30
1766015794.9726772,30
1766015794.972687,31
1766015794.9726982,31
1766015794.972708,31
1766015794.9727192,31
1766015794.9727292,30
1766015794.9727402,28
1766015794.9727502,30
1766015794.97276,29
1766015794.9727712,30
1766015794.9727821,29
1766015794.9727921,29
1766015794.972803,30
1766015794.9728131,30
1766015794.972824,29
1766015794.972835,30
1766015794.972846,28
1766015794.972856,29
1766015794.972867,27
1766015794.972877,29
1766015794.972888,29
1766015794.972899,30
1766015794.972909,31
1766015794.9729202,30
1766015794.9729311,28
1766015794.9729412,30
1766015794.9729521,27
1766015794.972963,28
1766015794.972973,29
1766015794.972984,29
1766015794.972994,27
1766015794.973005,27
1766015794.973016,30
1766015794.973026,30
1766015794.973036,25
1766015794.973047,28
1766015794.973058,28
1766015794.973068,28
1766015794.973079,28
1766015794.973089,28
1766015794.9731,27
1766015794.97311,29
1766015794.973126,30
1766015794.973136,28
1766015794.973147,27
1766015794.9731572,27
1766015794.9731681,28
1766015794.9731789,24
1766015794.9731898,25
1766015794.9732008,31
1766015794.973212,25
1766015794.973223,28
1766015794.973233,25
1766015794.973244,27
1766015794.973254,25
1766015794.973265,28
1766015794.973275,28
1766015794.973286,26
1766015794.9732962,27
1766015794.973307,26
1766015794.9733171,27
1766015794.9733279,27
1766015794.9742742,25
1766015794.975243,28
1766015794.976232,27
1766015794.977228,26
1766015794.978209,27
1766015794.979254,24
1766015794.980244,25
1766015794.981247,25
1766015794.982249,23
1766015794.9832509,26
1766015794.98426,28
1766015794.9852648,29
1766015794.986254,28
1766015794.987273,28
1766015794.98826,23
1766015794.989266,24
1766015794.990259,28
1766015794.991284,24
1766015794.9922922,24
1766015794.993282,28
1766015794.994304,24
1766015794.995302,25
1766015794.996316,26
1766015794.9973161,28
1766015794.998322,26
1766015794.9993012,23
1766015795.000326,27
1766015795.001327,25
1766015795.002317,27
1766015795.003309,23
1766015795.004389,25
1766015795.0053592,25
1766015795.0063329,25
1766015795.0073102,27
1766015795.008331,27
1766015795.009345,27
1766015795.010303,23
1766015795.011331,26
1766015795.012355,21
1766015795.013333,21
1766015795.014348,25
1766015795.015311,26
1766015795.016358,22
1766015795.017323,25
1766015795.0183659,25
1766015795.019319,23
1766015795.0203378,24
1766015795.021336,24
1766015795.022388,23
1766015795.0233228,26
1766015795.024367,22
1766015795.0253708,24
1766015795.02638,24
1766015795.0273988,23
1766015795.02844,24
1766015795.0294101,22
1766015795.030397,25
1766015795.0313962,24
1766015795.0323992,24
1766015795.033386,23
1766015795.034403,24
1766015795.0354052,22
1766015795.036396,20
1766015795.037385,21
1766015795.0384068,23
1766015795.039406,22
1766015795.040402,21
1766015795.041499,21
1766015795.0424252,23
1766015795.043415,24
1766015795.0444171,22
1766015795.0454059,21
1766015795.046431,26
1766015795.047442,26
1766015795.048448,23
1766015795.0494359,24
1766015795.050432,24
1766015795.0514271,22
1766015795.052448,24
1766015795.0534542,25
1766015795.054454,24
1766015795.055441,23
1766015795.05647,24
1766015795.057465,21
1766015795.058453,23
1766015795.0594518,25
1766015795.060451,22
1766015795.06148,24
1766015795.062476,24
1766015795.063488,23
1766015795.064502,24
1766015795.065501,25
1766015795.066488,22
1766015795.067492,28
1766015795.068507,25
1766015795.0695,23
1766015795.070501,25
1766015795.071501,22
1766015795.072499,22
1766015795.073525,27
1766015795.074502,23
1766015795.075524,22
1766015795.076513,24
1766015795.077526,28
1766015795.07852,26
1766015795.079535,23
1766015795.080533,23
1766015795.0815392,23
1766015795.082529,24
1766015795.0835352,25
1766015795.084539,26
1766015795.085579,22
1766015795.0865521,25
1766015795.0875552,25
1766015795.088552,24
1766015795.0895581,25
1766015795.090552,24
1766015795.091562,25
1766015795.092555,23
1766015795.093567,21
1766015795.0945752,21
1766015795.0955882,25
1766015795.096583,23
1766015795.097585,24
1766015795.098581,23
1766015795.0995882,26
1766015795.1005828,21
1766015795.101587,25
1766015795.102592,22
1766015795.103591,25
1766015795.104613,22
1766015795.1056051,24
1766015795.106621,24
1766015795.107608,24
1766015795.108626,23
1766015795.109612,22
1766015795.110613,24
1766015795.111618,23
1766015795.112617,26
1766015795.113616,23
1766015795.114613,23
1766015795.115624,20
1766015795.1166568,23
1766015795.1176581,22
1766015795.1186402,22
1766015795.119648,21
1766015795.120647,21
1766015795.1216471,25
1766015795.1226509,22
1766015795.123657,26
1766015795.124655,23
1766015795.125659,22
1766015795.126663,23
1766015795.1276648,23
1766015795.128664,22
1766015795.1296809,22
1766015795.130686,22
1766015795.131691,25
1766015795.13268,20
1766015795.1336691,23
1766015795.1346838,19
1766015795.135707,21
1766015795.13669,21
1766015795.137693,22
1766015795.138696,23
1766015795.13969,24
1766015795.140691,21
1766015795.14169,25
1766015795.142716,20
1766015795.143702,24
1766015795.1447082,21
1766015795.1457112,20
1766015795.1467159,25
1766015795.1477172,21
1766015795.148722,22
1766015795.1497211,22
1766015795.150723,25
1766015795.1517298,21
1766015795.152744,23
1766015795.1537201,23
1766015795.154746,22
1766015795.155733,23
1766015795.1567428,25
1766015795.157738,24
1766015795.158752,24
1766015795.15975,26
1766015795.1607602,21
1766015795.1617432,21
1766015795.162764,23
1766015795.163766,22
1766015795.1647758,21
1766015795.16577,24
1766015795.16678,24
1766015795.167765,26
1766015795.168781,24
1766015795.169773,22
1766015795.170795,27
1766015795.171793,26
1766015795.172797,21
1766015795.1737769,22
1766015795.174782,23
1766015795.175811,21
1766015795.176811,22
1766015795.1777952,24
1766015795.1788108,24
1766015795.179827,21
1766015795.1808279,23
1766015795.181834,23
1766015795.1828191,23
1766015795.183836,23
1766015795.184808,22
1766015795.185846,22
1766015795.186823,20
1766015795.1878269,23
1766015795.1888242,23
1766015795.1898088,20
1766015795.1908228,26
1766015795.191807,21
1766015795.192811,23
1766015795.1938062,25
1766015795.194828,23
1766015795.195862,26
1766015795.196854,20
1766015795.197838,25
1766015795.198824,24
1766015795.199862,21
1766015795.200861,23
1766015795.201847,25
1766015795.2028642,24
1766015795.203891,22
1766015795.2048798,22
1766015795.205868,21
1766015795.206883,21
1766015795.207874,24
1766015795.2088761,20
1766015795.209873,22
1766015795.2108889,21
1766015795.211891,24
1766015795.212893,22
1766015795.213897,23
1766015795.214901,24
1766015795.2159,25
1766015795.2168908,28
1766015795.2179,26
1766015795.218902,25
1766015795.219913,25
1766015795.22091,23
1766015795.2219148,25
1766015795.222914,25
1766015795.2239192,25
1766015795.224923,24
1766015795.2259278,27
1766015795.2269282,27
1766015795.2279308,26
1766015795.22893,28
1766015795.229932,24
1766015795.230927,26
1766015795.231929,23
1766015795.23293,24
1766015795.2339451,23
1766015795.234947,25
1766015795.2359538,25
1766015795.23695,25
1766015795.237959,27
1766015795.238966,25
1766015795.239948,26
1766015795.240971,25
1766015795.2419589,25
1766015795.242961,27
1766015795.243971,24
1766015795.2449799,26
1766015795.2459881,28
1766015795.246986,27
1766015795.2479959,24
1766015795.248995,25
1766015795.249988,25
1766015795.250988,27
1766015795.251988,26
1766015795.2530031,26
1766015795.2540128,24
1766015795.254986,27
1766015795.256005,28
1766015795.257003,29
1766015795.258007,30
1766015795.259021,30
1766015795.2600162,27
1766015795.261034,28
1766015795.2620318,28
1766015795.263042,24
1766015795.2640262,31
1766015795.265028,25
1766015795.26605,27
1766015795.2670279,29
1766015795.2680352,27
1766015795.269043,28
1766015795.270047,27
1766015795.271033,25
1766015795.272034,27
1766015795.273055,25
1766015795.274069,25
1766015795.275074,24
1766015795.276074,27
1766015795.277062,29
1766015795.2780821,25
1766015795.279072,27
1766015795.2800589,24
1766015795.281076,29
1766015795.282071,25
1766015795.283072,25
1766015795.284071,28
1766015795.28508,26
1766015795.2860951,26
1766015795.2870898,25
1766015795.288095,27
1766015795.2890959,23
1766015795.290101,25
1766015795.291094,25
1766015795.292096,26
1766015795.2931142,26
1766015795.294107,25
1766015795.295114,28
1766015795.2961102,25
1766015795.2971258,26
1766015795.298112,26
1766015795.299111,28
1766015795.300132,25
1766015795.301137,30
1766015795.302138,28
1766015795.303146,33
1766015795.3041542,32
1766015795.305152,33
1766015795.306138,30
1766015795.3072388,33
1766015795.308251,35
1766015795.309248,34
1766015795.310245,31
1766015795.31124,33
1766015795.3123279,32
1766015795.3132539,33
1766015795.314247,35
1766015795.315238,33
1766015795.3162398,33
1766015795.3172421,35
1766015795.3182468,35
1766015795.319239,30
1766015795.320244,34
1766015795.321263,35
1766015795.3222442,35
1766015795.323252,39
1766015795.324246,38
1766015795.325251,39
1766015795.326253,41
1766015795.327244,43
1766015795.3282418,42
1766015795.3292532,47
1766015795.330245,44
1766015795.331248,45
1766015795.332246,44
1766015795.333249,43
1766015795.3342469,44
1766015795.335246,45
1766015795.336245,43
1766015795.337237,41
1766015795.338251,43
1766015795.3392482,45
1766015795.340244,42
1766015795.341245,42
1766015795.342243,46
1766015795.3432379,42
1766015795.344241,42
1766015795.3452501,42
1766015795.346244,42
1766015795.347262,45
1766015795.3482502,41
1766015795.349251,40
1766015795.3502579,41
1766015795.351268,45
1766015795.352266,42
1766015795.3532631,42
1766015795.3542578,45
1766015795.3552792,43
1766015795.35627,46
1766015795.3572822,44
1766015795.358273,42
1766015795.359286,44
1766015795.360286,42
1766015795.3612769,45
1766015795.36228,44
1766015795.363302,44
1766015795.36431,43
1766015795.365303,43
1766015795.366295,43
1766015795.367316,42
1766015795.368302,43
1766015795.369308,49
1766015795.3702981,52
1766015795.371316,56
1766015795.3723168,65
1766015795.373327,72
1766015795.374337,75
1766015795.37533,78
1766015795.376321,82
1766015795.377333,88
1766015795.3783512,87
1766015795.379331,87
1766015795.380343,85
1766015795.381334,87
1766015795.382355,90
1766015795.3833401,87
1766015795.3843389,90
1766015795.3853471,93
1766015795.386349,90
1766015795.3873641,89
1766015795.38835,89
1766015795.3893518,89
1766015795.3903549,91
1766015795.391357,89
1766015795.392361,89
1766015795.393381,91
1766015795.3943622,94
1766015795.39537,94
1766015795.396462,102
1766015795.3974779,104
1766015795.398468,108
1766015795.399474,114
1766015795.400476,128
1766015795.401483,138
1766015795.4024909,148
1766015795.403502,152
1766015795.404505,160
1766015795.405495,166
1766015795.40651,163
1766015795.407507,168
1766015795.4085069,166
1766015795.409513,170
1766015795.41051,166
1766015795.411513,168
1766015795.412523,166
1766015795.4135191,163
1766015795.414521,163
1766015795.41553,162
1766015795.416534,162
1766015795.417544,159
1766015795.418515,154
1766015795.419532,157
1766015795.420533,153
1766015795.421546,152
1766015795.422534,151
1766015795.4235551,155
1766015795.424531,150
1766015795.4255528,150
1766015795.4265442,148
1766015795.427553,149
1766015795.4285471,150
1766015795.429549,150
1766015795.430552,156
1766015795.431555,160
1766015795.432555,160
1766015795.433565,163
1766015795.434557,162
1766015795.435581,164
1766015795.4365828,161
1766015795.437587,161
1766015795.4385831,161
1766015795.439578,162
1766015795.440586,158
1766015795.441588,156
1766015795.442601,156
1766015795.4435892,152
1766015795.444601,151
1766015795.445607,151
1766015795.4466062,152
1766015795.4476118,152
1766015795.448596,150
1766015795.449625,151
1766015795.450623,149
1766015795.451618,148
1766015795.4526248,148
1766015795.453629,144
1766015795.4546392,145
1766015795.455613,147
1766015795.456628,145
1766015795.457636,147
1766015795.458636,141
1766015795.45965,144
1766015795.460657,143
1766015795.461656,143
1766015795.462662,143
1766015795.4636438,147
1766015795.4646442,150
1766015795.465655,147
1766015795.466665,145
1766015795.467668,151
1766015795.468641,162
1766015795.469671,174
1766015795.470676,187
1766015795.4716558,196
1766015795.472666,202
1766015795.473676,200
1766015795.474675,203
1766015795.475696,204
1766015795.476667,204
1766015795.477671,203
1766015795.478687,205
1766015795.4796858,206
1766015795.480683,204
1766015795.481687,203
1766015795.4826958,204
1766015795.483687,200
1766015795.484687,200
1766015795.4857018,199
1766015795.4867141,197
1766015795.487697,192
1766015795.4887092,190
1766015795.4896991,190
1766015795.490716,189
1766015795.491712,187
1766015795.4927208,186
1766015795.49372,183
1766015795.494723,183
1766015795.495729,181
1766015795.496732,179
1766015795.497728,180
1766015795.498729,175
1766015795.499743,177
1766015795.5007339,178
1766015795.5017421,176
1766015795.502744,179
1766015795.5037482,175
1766015795.504745,178
1766015795.505749,179
1766015795.506745,175
1766015795.50776,173
1766015795.508769,173
1766015795.5097651,168
1766015795.510765,168
1766015795.511765,168
1766015795.512774,167
1766015795.513779,170
1766015795.51476,173
1766015795.515788,178
1766015795.516767,176
1766015795.517775,173
1766015795.518784,174
1766015795.519784,169
1766015795.520782,168
1766015795.521792,169
1766015795.522798,168
1766015795.523796,166
1766015795.524796,165
1766015795.525801,161
1766015795.526786,163
1766015795.527821,160
1766015795.528799,161
1766015795.529818,155
1766015795.530828,151
1766015795.5318341,150
1766015795.53284,151
1766015795.533837,153
1766015795.5348392,148
1766015795.5358431,147
1766015795.536844,144
1766015795.537837,147
1766015795.538838,143
1766015795.539853,141
1766015795.540839,141
1766015795.541857,138
1766015795.542856,139
1766015795.5438652,139
1766015795.5448608,134
1766015795.545862,137
1766015795.54686,134
1766015795.547864,134
1766015795.548856,132
1766015795.549877,130
1766015795.550875,128
1766015795.551875,128
1766015795.5528698,126
1766015795.553897,127
1766015795.5548642,127
1766015795.555865,131
1766015795.556903,135
1766015795.557875,139
1766015795.558887,145
1766015795.559903,144
1766015795.560919,145
1766015795.561913,146
1766015795.562908,141
1766015795.5639098,142
1766015795.564903,141
1766015795.565909,139
1766015795.566905,140
1766015795.567924,138
1766015795.568945,138
1766015795.5699232,136
1766015795.5709162,137
1766015795.571939,133
1766015795.572953,135
1766015795.5739362,133
1766015795.574955,128
1766015795.575943,132
1766015795.576952,128
1766015795.57793,130
1766015795.578947,124
1766015795.5799491,129
1766015795.580959,130
1766015795.5819688,130
1766015795.582965,127
1766015795.5839622,123
1766015795.584979,126
1766015795.5859652,127
1766015795.58697,124
1766015795.587971,125
1766015795.5889769,124
1766015795.58998,122
1766015795.590976,122
1766015795.5919738,121
1766015795.5929952,119
1766015795.5939982,118
1766015795.594986,121
1766015795.595988,116
1766015795.5969868,115
1766015795.597999,114
1766015795.599,108
1766015795.599995,113
1766015795.601002,110
1766015795.602004,109
1766015795.603008,108
1766015795.604007,111
1766015795.605025,108
1766015795.6060202,108
1766015795.607018,110
1766015795.608022,110
1766015795.609025,114
1766015795.610044,114
1766015795.61105,114
1766015795.612048,112
1766015795.6130502,116
1766015795.614044,110
1766015795.615063,111
1766015795.616061,109
1766015795.617067,107
1766015795.618064,109
1766015795.619065,106
1766015795.62006,106
1766015795.621063,107
1766015795.622085,106
1766015795.6230788,105
1766015795.624086,104
1766015795.625081,102
1766015795.62609,101
1766015795.626991,98
1766015795.628086,100
1766015795.629088,100
1766015795.629986,97
1766015795.630987,96
1766015795.632015,98
1766015795.633004,98
1766015795.634007,94
1766015795.634999,96
1766015795.6360052,96
1766015795.637003,93
1766015795.638009,96
1766015795.639023,96
1766015795.64003,92
1766015795.641004,93
1766015795.642018,94
1766015795.643032,92
1766015795.644033,89
1766015795.645032,89
1766015795.6460469,92
1766015795.64704,90
1766015795.648041,95
1766015795.649041,94
1766015795.6500502,96
1766015795.651051,97
1766015795.6520472,97
1766015795.653059,95
1766015795.6540642,95
1766015795.6550488,94
1766015795.6560729,93
1766015795.6570728,91
1766015795.6580758,96
1766015795.6590688,93
1766015795.6600802,93
1766015795.6610749,91
1766015795.6620958,91
1766015795.6630988,90
1766015795.664106,90
1766015795.665092,90
1766015795.6661088,88
1766015795.667103,87
1766015795.6681018,87
1766015795.6691048,87
1766015795.6701171,82
1766015795.6711109,83
1766015795.672113,84
1766015795.673121,83
1766015795.674129,81
1766015795.675134,83
1766015795.676131,82
1766015795.677139,80
1766015795.6781492,83
1766015795.679153,82
1766015795.68013,80
1766015795.6811562,80
1766015795.6821408,82
1766015795.683153,76
1766015795.684144,75
1766015795.685245,76
1766015795.686238,78
1766015795.687241,77
1766015795.6882439,78
1766015795.6892421,77
1766015795.690239,78
1766015795.6912482,75
1766015795.692242,76
1766015795.693245,77
1766015795.694249,81
1766015795.6952388,81
1766015795.696243,85
1766015795.6972458,80
1766015795.69825,82
1766015795.6992488,78
1766015795.7002418,80
1766015795.7012448,82
1766015795.702246,81
1766015795.703244,81
1766015795.704245,84
1766015795.705246,82
1766015795.706249,78
1766015795.707243,81
1766015795.7082398,78
1766015795.709246,84
1766015795.7102451,79
1766015795.711246,82
1766015795.712245,81
1766015795.713247,75
1766015795.7142458,76
1766015795.715248,77
1766015795.716241,73
1766015795.717244,75
1766015795.718248,75
1766015795.7192361,72
1766015795.7202501,76
1766015795.721233,73
1766015795.722265,74
1766015795.7232482,71
1766015795.724255,69
1766015795.725234,70
1766015795.726279,73
1766015795.727241,73
1766015795.728262,74
1766015795.7292428,77
1766015795.73026,79
1766015795.731276,77
1766015795.732252,75
1766015795.733276,77
1766015795.73426,74
1766015795.735271,76
1766015795.73628,75
1766015795.7372851,77
1766015795.738299,72
1766015795.739297,72
1766015795.740291,70
1766015795.741296,73
1766015795.7422981,68
1766015795.743317,74
1766015795.7443001,72
1766015795.7453032,73
1766015795.7463129,74
1766015795.747315,73
1766015795.748325,74
1766015795.749322,76
1766015795.750327,78
1766015795.7513301,77
1766015795.7523332,79
1766015795.7533371,78
1766015795.754336,78
1766015795.755337,82
1766015795.756335,80
1766015795.757335,79
1766015795.758348,77
1766015795.759337,83
1766015795.7603478,82
1766015795.7613509,80
1766015795.7623522,83
1766015795.7633579,80
1766015795.764365,79
1766015795.765373,80
1766015795.7663538,83
1766015795.767381,79
1766015795.76836,77
1766015795.769363,78
1766015795.770369,79
1766015795.7713852,81
1766015795.772379,77
1766015795.773382,77
1766015795.774389,78
1766015795.7753909,77
1766015795.776391,78
1766015795.777407,81
1766015795.7784152,75
1766015795.779391,72
1766015795.780403,73
1766015795.781417,73
1766015795.782419,78
1766015795.783402,75
1766015795.784433,76
1766015795.785434,77
1766015795.786437,76
1766015795.787435,81
1766015795.788439,80
1766015795.789442,77
1766015795.790436,76
1766015795.791447,76
1766015795.7924511,77
1766015795.7934341,76
1766015795.794435,76
1766015795.795447,75
1766015795.796457,75
1766015795.797466,73
1766015795.798456,76
1766015795.7994611,71
1766015795.800464,73
1766015795.8014631,70
1766015795.8024378,69
1766015795.803463,70
1766015795.80444,73
1766015795.8054469,68
1766015795.806462,74
1766015795.807461,72
1766015795.808471,69
1766015795.809483,73
1766015795.810463,71
1766015795.8115,69
1766015795.812489,71
1766015795.813487,71
1766015795.814473,69
1766015795.815496,68
1766015795.8165052,71
1766015795.817512,66
1766015795.818528,67
1766015795.8195012,71
1766015795.820499,67
1766015795.821526,65
1766015795.8225431,65
1766015795.8235362,64
1766015795.824529,67
1766015795.825536,67
1766015795.826541,63
1766015795.827532,63
1766015795.828543,65
1766015795.829547,64
1766015795.830556,62
1766015795.831539,64
1766015795.8325481,62
1766015795.83355,63
1766015795.8345542,60
1766015795.835552,59
1766015795.836554,60
1766015795.837566,59
1766015795.838573,61
1766015795.8395772,58
1766015795.840565,62
1766015795.841559,63
1766015795.842586,58
1766015795.843582,65
1766015795.844576,65
1766015795.8455849,70
1766015795.8465972,69
1766015795.847593,66
1766015795.8486102,66
1766015795.8496032,68
1766015795.850606,68
1766015795.851615,72
1766015795.8526132,68
1766015795.853608,69
1766015795.854614,71
1766015795.8556108,67
1766015795.856627,66
1766015795.857623,68
1766015795.8586082,70
1766015795.859623,68
1766015795.860641,70
1766015795.861641,65
1766015795.8626392,67
1766015795.8636422,67
1766015795.864645,66
1766015795.86565,66
1766015795.8666492,62
1766015795.8676732,64
1766015795.8686662,67
1766015795.869653,65
1766015795.870678,65
1766015795.871664,63
1766015795.8726661,64
1766015795.873666,64
1766015795.874681,64
1766015795.875674,64
1766015795.8766851,64
1766015795.877698,65
1766015795.878667,66
1766015795.879681,62
1766015795.880681,66
1766015795.8816729,64
1766015795.882705,62
1766015795.883703,64
1766015795.8846788,64
1766015795.885694,62
1766015795.88671,63
1766015795.8876941,63
1766015795.888709,65
1766015795.8897102,61
1766015795.890697,61
1766015795.8917,63
1766015795.8926988,62
1766015795.893709,58
1766015795.8947132,57
1766015795.89571,59
1766015795.896717,62
1766015795.897729,61
1766015795.898734,61
1766015795.899742,56
1766015795.900739,59
1766015795.901738,57
1766015795.90274,58
1766015795.9037492,59
1766015795.9047492,59
1766015795.9057379,54
1766015795.9067578,59
1766015795.907747,56
1766015795.908749,57
1766015795.9097521,58
1766015795.910763,56
1766015795.911756,54
1766015795.9127629,57
1766015795.913772,58
1766015795.914774,51
1766015795.915765,53
1766015795.91677,56
1766015795.9177759,57
1766015795.918784,58
1766015795.91979,62
1766015795.9207911,62
1766015795.9217951,66
1766015795.922796,67
1766015795.9237928,68
1766015795.924791,69
1766015795.925795,67
1766015795.926796,64
1766015795.9278169,68
1766015795.928805,66
1766015795.929836,66
1766015795.930815,63
1766015795.931805,69
1766015795.932818,63
1766015795.933804,64
1766015795.934838,66
1766015795.9358358,68
1766015795.936806,69
1766015795.937835,66
1766015795.938844,68
1766015795.9398348,68
1766015795.940835,69
1766015795.941841,69
1766015795.9428532,78
1766015795.943839,76
1766015795.944849,76
1766015795.945848,74
1766015795.9468591,78
1766015795.947864,78
