timestamp,emg_value
1766015798.299683,81
1766015798.299716,84
1766015798.299743,82
1766015798.2997708,85
1766015798.299798,85
1766015798.299826,81
1766015798.2998521,85
1766015798.299878,88
1766015798.299905,85
1766015798.299932,82
1766015798.299958,85
1766015798.299984,84
1766015798.300012,85
1766015798.30004,81
1766015798.3000672,82
1766015798.300093,86
1766015798.300119,83
1766015798.300147,79
1766015798.300173,78
1766015798.3001988,78
1766015798.300225,78
1766015798.3002508,81
1766015798.300278,78
1766015798.3003032,79
1766015798.300329,78
1766015798.300365,77
1766015798.300392,78
1766015798.3004181,76
1766015798.300444,76
1766015798.30047,76
1766015798.3004959,75
1766015798.300521,77
1766015798.3005729,72
1766015798.3006,71
1766015798.300618,70
1766015798.300632,73
1766015798.300647,69
1766015798.3006651,69
1766015798.300682,68
1766015798.300697,69
1766015798.3007119,70
1766015798.300735,68
1766015798.30075,66
1766015798.300765,68
1766015798.30078,64
1766015798.3008032,65
1766015798.300818,66
1766015798.30084,67
1766015798.300855,66
1766015798.300871,66
1766015798.300886,63
1766015798.3009012,61
1766015798.300917,65
1766015798.300935,62
1766015798.300952,61
1766015798.300967,61
1766015798.300982,63
1766015798.300996,64
1766015798.3010108,63
1766015798.301026,67
1766015798.3010418,66
1766015798.301056,72
1766015798.3010712,78
1766015798.301086,77
1766015798.301118,80
1766015798.30114,83
1766015798.301163,84
1766015798.3011782,83
1766015798.301193,82
1766015798.301208,81
1766015798.3012228,83
1766015798.301238,82
1766015798.301253,82
1766015798.301269,80
1766015798.301287,79
1766015798.3013031,82
1766015798.3013198,83
1766015798.301343,81
1766015798.3013592,80
1766015798.301375,81
1766015798.3013918,79
1766015798.301408,77
1766015798.301423,80
1766015798.301446,78
1766015798.3014631,76
1766015798.3014872,74
1766015798.301503,76
1766015798.301518,75
1766015798.301533,74
1766015798.301548,73
1766015798.3015628,73
1766015798.301579,74
1766015798.301594,74
1766015798.3016121,73
1766015798.3016288,69
1766015798.301644,68
1766015798.301665,68
1766015798.301683,68
1766015798.301698,71
1766015798.301714,70
1766015798.3017302,67
1766015798.3017468,71
1766015798.301771,69
1766015798.301795,67
1766015798.301811,66
1766015798.301826,66
1766015798.3018491,67
1766015798.301872,65
1766015798.301888,65
1766015798.301919,63
1766015798.3019361,62
1766015798.30195,66
1766015798.301965,64
1766015798.30198,65
1766015798.301995,63
1766015798.302012,64
1766015798.302027,63
1766015798.302042,62
1766015798.302057,62
1766015798.302072,64
1766015798.3020868,58
1766015798.302103,61
1766015798.3021178,61
1766015798.302141,61
1766015798.302163,60
1766015798.30218,60
1766015798.302197,58
1766015798.302212,56
1766015798.302229,60
1766015798.30225,60
1766015798.3022652,56
1766015798.30228,60
1766015798.302295,61
1766015798.302312,58
1766015798.3023272,59
1766015798.302342,58
1766015798.302356,58
1766015798.302398,61
1766015798.3024142,67
1766015798.302429,72
1766015798.302443,72
1766015798.302458,74
1766015798.302473,73
1766015798.302489,71
1766015798.302505,71
1766015798.30252,75
1766015798.3025339,76
1766015798.30255,80
1766015798.302565,78
1766015798.3025799,79
1766015798.302594,76
1766015798.302607,76
1766015798.30262,77
1766015798.302633,76
1766015798.302645,78
1766015798.302658,77
1766015798.3026712,76
1766015798.302697,74
1766015798.30271,73
1766015798.3027232,75
1766015798.302737,76
1766015798.302749,73
1766015798.302764,71
1766015798.302777,72
1766015798.3027892,72
1766015798.302804,72
1766015798.302817,71
1766015798.30283,70
1766015798.3028429,72
1766015798.302855,69
1766015798.302868,71
1766015798.302881,71
1766015798.302895,70
1766015798.302909,68
1766015798.302923,69
1766015798.302936,69
1766015798.30295,70
1766015798.302963,68
1766015798.302976,66
1766015798.302989,69
1766015798.3030012,69
1766015798.3030221,67
1766015798.3030348,64
1766015798.303048,63
1766015798.30306,65
1766015798.303073,65
1766015798.303086,65
1766015798.3030982,62
1766015798.3031108,63
1766015798.303125,65
1766015798.303138,64
1766015798.303156,63
1766015798.303169,60
1766015798.3031821,61
1766015798.303197,58
1766015798.30321,60
1766015798.3032231,60
1766015798.303235,63
1766015798.303248,60
1766015798.303261,61
1766015798.303274,60
1766015798.303286,60
1766015798.3032992,62
1766015798.3033118,62
1766015798.303325,62
1766015798.303349,63
1766015798.3033621,62
1766015798.303375,61
1766015798.3033879,62
1766015798.3034,63
1766015798.303413,64
1766015798.303426,64
1766015798.3034391,66
1766015798.303453,71
1766015798.303468,70
1766015798.303481,69
1766015798.303494,73
1766015798.303506,70
1766015798.303519,71
1766015798.3035321,68
1766015798.303545,69
1766015798.30357,73
1766015798.303583,71
1766015798.303595,73
1766015798.303616,75
1766015798.3036292,72
1766015798.303642,76
1766015798.3036559,76
1766015798.303669,75
1766015798.303684,72
1766015798.303696,73
1766015798.303709,72
1766015798.303722,72
1766015798.303735,72
1766015798.3037481,69
1766015798.3037598,75
1766015798.303773,68
1766015798.303787,68
1766015798.3038,73
1766015798.303814,70
1766015798.303827,68
1766015798.30384,69
1766015798.303852,68
1766015798.3038669,69
1766015798.303879,67
1766015798.303904,66
1766015798.3039172,69
1766015798.303929,63
1766015798.303942,66
1766015798.3039548,63
1766015798.303967,63
1766015798.30398,62
1766015798.303993,65
1766015798.304019,64
1766015798.304032,64
1766015798.304044,62
1766015798.3040571,64
1766015798.30407,63
1766015798.3040829,65
1766015798.3041081,62
1766015798.304123,59
1766015798.304137,59
1766015798.3041549,61
1766015798.304168,62
1766015798.304181,58
1766015798.304194,61
1766015798.304207,57
1766015798.3042219,56
1766015798.304234,57
1766015798.304248,56
1766015798.3042612,60
1766015798.304273,56
1766015798.304286,57
1766015798.304299,59
1766015798.304312,58
1766015798.3043242,57
1766015798.3043368,55
1766015798.304363,60
1766015798.3043761,59
1766015798.304388,61
1766015798.304401,64
1766015798.304414,64
1766015798.304427,62
1766015798.304439,63
1766015798.3044522,63
1766015798.304478,65
1766015798.304491,65
1766015798.3045042,66
1766015798.304516,67
1766015798.304529,65
1766015798.304542,66
1766015798.304557,67
1766015798.304571,64
1766015798.304585,66
1766015798.304598,65
1766015798.304619,64
1766015798.304631,65
1766015798.304644,66
1766015798.304657,63
1766015798.304671,62
1766015798.30469,63
1766015798.3047051,64
1766015798.304718,63
1766015798.304731,64
1766015798.3047512,60
1766015798.3047638,64
1766015798.304777,64
1766015798.304789,61
1766015798.304802,60
1766015798.304827,60
1766015798.3048398,58
1766015798.304853,61
1766015798.3048651,64
1766015798.304878,64
1766015798.3048909,63
1766015798.304904,63
1766015798.304928,62
1766015798.304953,61
1766015798.30497,62
1766015798.304986,62
1766015798.3050072,61
1766015798.3050208,61
1766015798.305034,64
1766015798.305046,61
1766015798.305061,60
1766015798.305078,61
1766015798.3050911,61
1766015798.3051038,64
1766015798.305117,64
1766015798.305129,66
1766015798.305142,70
1766015798.305161,75
1766015798.305174,73
1766015798.3051882,74
1766015798.3052,72
1766015798.305215,76
1766015798.305228,77
1766015798.3052402,78
1766015798.305253,78
1766015798.305268,79
1766015798.305281,79
1766015798.305295,79
1766015798.3053079,79
1766015798.3053281,80
1766015798.305341,81
1766015798.3053539,79
1766015798.305367,79
1766015798.305381,78
1766015798.305394,78
1766015798.305415,76
1766015798.305435,78
1766015798.305449,74
1766015798.305461,77
1766015798.305474,74
1766015798.3054872,77
1766015798.3054998,73
1766015798.305513,73
1766015798.305529,71
1766015798.305542,73
1766015798.3055549,70
1766015798.305568,69
1766015798.3055801,67
1766015798.3056011,72
1766015798.305613,69
1766015798.305632,67
1766015798.3056462,68
1766015798.305661,66
1766015798.305673,64
1766015798.305687,66
1766015798.305707,63
1766015798.305721,65
1766015798.305734,61
1766015798.305748,62
1766015798.305762,67
1766015798.3057752,63
1766015798.3057878,66
1766015798.3058,63
1766015798.305813,64
1766015798.305826,64
1766015798.305839,67
1766015798.305851,69
1766015798.305877,67
1766015798.305898,68
1766015798.305911,69
1766015798.305932,68
1766015798.3059509,66
1766015798.3059661,67
1766015798.305978,65
1766015798.305999,65
1766015798.30602,65
1766015798.306036,65
1766015798.306049,65
1766015798.306061,67
1766015798.3060741,64
1766015798.306087,64
1766015798.3061,65
1766015798.306112,61
1766015798.306133,61
1766015798.3061461,63
1766015798.3061628,62
1766015798.306176,63
1766015798.306189,60
1766015798.3062022,61
1766015798.3062148,58
1766015798.306227,58
1766015798.306241,56
1766015798.3062541,61
1766015798.3062668,58
1766015798.30628,64
1766015798.306296,63
1766015798.30631,62
1766015798.306323,62
1766015798.306336,62
1766015798.306349,62
1766015798.3063622,63
1766015798.306375,61
1766015798.306387,66
1766015798.306401,61
1766015798.306415,63
1766015798.306429,61
1766015798.306442,62
1766015798.3064551,63
1766015798.306498,63
1766015798.306515,62
1766015798.306529,58
1766015798.3065422,61
1766015798.3065548,60
1766015798.306568,63
1766015798.306581,62
1766015798.306595,61
1766015798.3066082,58
1766015798.3066208,58
1766015798.306634,57
1766015798.306647,56
1766015798.306659,58
1766015798.306675,53
1766015798.306688,57
1766015798.306701,54
1766015798.3067148,57
1766015798.306728,56
1766015798.306741,57
1766015798.306754,54
1766015798.306767,53
1766015798.3067799,51
1766015798.306793,55
1766015798.306806,54
1766015798.3068202,53
1766015798.3068318,52
1766015798.306845,52
1766015798.306859,50
1766015798.306871,51
1766015798.306885,51
1766015798.3068979,48
1766015798.306911,51
1766015798.306924,47
1766015798.306941,47
1766015798.306956,47
1766015798.3069701,49
1766015798.3069818,46
1766015798.306995,47
1766015798.307008,46
1766015798.3070211,48
1766015798.307034,47
1766015798.307047,45
1766015798.30706,46
1766015798.307074,45
1766015798.3070872,47
1766015798.3070998,44
1766015798.307113,46
1766015798.307126,46
1766015798.3071392,48
1766015798.307153,43
1766015798.3071659,43
1766015798.3071811,43
1766015798.307195,44
1766015798.307209,42
1766015798.307221,44
1766015798.307235,41
1766015798.307248,45
1766015798.307261,43
1766015798.307274,43
1766015798.307286,41
1766015798.3073,43
1766015798.307313,38
1766015798.307327,43
1766015798.3073401,38
1766015798.307353,41
1766015798.307368,41
1766015798.307384,41
1766015798.3073978,43
1766015798.307411,40
1766015798.307424,41
1766015798.307437,42
1766015798.30745,39
1766015798.307463,39
1766015798.307476,41
1766015798.307489,40
1766015798.307502,41
1766015798.307515,37
1766015798.307528,40
1766015798.307541,37
1766015798.307554,39
1766015798.307568,34
1766015798.307581,37
1766015798.307594,35
1766015798.307606,34
1766015798.307619,38
1766015798.3076322,37
1766015798.3076448,35
1766015798.307659,37
1766015798.307671,36
1766015798.3076842,37
1766015798.3076968,37
1766015798.30771,38
1766015798.307723,36
1766015798.3077362,37
1766015798.307749,35
1766015798.307762,37
1766015798.307775,36
1766015798.30779,37
1766015798.307808,38
1766015798.3078241,33
1766015798.307837,36
1766015798.30785,34
1766015798.307863,38
1766015798.307876,36
1766015798.307889,38
1766015798.3079019,38
1766015798.307915,37
1766015798.307928,38
1766015798.3079412,36
1766015798.3079538,37
1766015798.307967,37
1766015798.3079832,36
1766015798.307997,36
1766015798.308012,35
1766015798.3080251,34
1766015798.3080409,38
1766015798.308054,38
1766015798.308067,37
1766015798.3080802,34
1766015798.3080928,37
1766015798.308106,34
1766015798.308119,35
1766015798.3081322,38
1766015798.308144,39
1766015798.308158,37
1766015798.308171,37
1766015798.3081868,36
1766015798.308201,40
1766015798.308213,36
1766015798.308226,36
1766015798.308241,35
1766015798.308256,37
1766015798.308269,38
1766015798.3082821,38
1766015798.3082938,38
1766015798.308307,41
1766015798.30832,38
1766015798.3083332,38
1766015798.308346,38
1766015798.308359,36
1766015798.308372,38
1766015798.3083851,39
1766015798.308397,36
1766015798.3084102,35
1766015798.3084228,38
1766015798.308436,37
1766015798.308449,32
1766015798.3084621,31
1766015798.3084748,35
1766015798.3084888,34
1766015798.308505,36
1766015798.308518,36
1766015798.308532,36
1766015798.308547,37
1766015798.30856,39
1766015798.308573,35
1766015798.308586,40
1766015798.308599,37
1766015798.3086112,34
1766015798.3086238,37
1766015798.308637,35
1766015798.30865,36
1766015798.3086631,38
1766015798.3086789,34
1766015798.308695,36
1766015798.308707,36
1766015798.30872,35
1766015798.308733,32
1766015798.308745,33
1766015798.308758,36
1766015798.3087711,34
1766015798.3087842,36
1766015798.308797,31
1766015798.30881,32
1766015798.308822,34
1766015798.308836,32
1766015798.3088489,35
1766015798.308861,30
1766015798.308874,32
1766015798.308887,30
1766015798.3089,31
1766015798.308913,30
1766015798.3089259,32
1766015798.308939,34
1766015798.308952,31
1766015798.3089652,32
1766015798.3089778,34
1766015798.30899,34
1766015798.309004,32
1766015798.309016,33
1766015798.309029,31
1766015798.309042,32
1766015798.309055,30
1766015798.309068,32
1766015798.309081,35
1766015798.3090932,36
1766015798.309111,32
1766015798.3091252,33
1766015798.3091378,34
1766015798.309151,34
1766015798.309164,32
1766015798.309178,36
1766015798.309193,36
1766015798.309206,32
1766015798.309218,35
1766015798.309231,33
1766015798.309244,32
1766015798.309257,33
1766015798.309269,33
1766015798.309282,35
1766015798.3092952,32
1766015798.3093069,36
1766015798.30932,33
1766015798.309333,36
1766015798.309345,32
1766015798.3093581,30
1766015798.309371,33
1766015798.3093839,31
1766015798.309397,35
1766015798.3094091,35
1766015798.309422,33
1766015798.309435,32
1766015798.3094468,30
1766015798.30946,32
1766015798.309473,34
1766015798.3094862,30
1766015798.309501,32
1766015798.309516,34
1766015798.3095338,36
1766015798.30955,33
1766015798.3095639,35
1766015798.309577,32
1766015798.30959,35
1766015798.309602,35
1766015798.3096151,34
1766015798.309628,31
1766015798.309641,30
1766015798.309654,34
1766015798.309667,34
1766015798.3096802,33
1766015798.3096929,35
1766015798.309705,35
1766015798.3097181,35
1766015798.3097322,35
1766015798.3097441,35
1766015798.309757,38
1766015798.3097699,37
1766015798.309783,34
1766015798.309796,37
1766015798.309808,35
1766015798.309821,36
1766015798.309834,37
1766015798.309847,36
1766015798.30986,35
1766015798.3098729,36
1766015798.309886,37
1766015798.309898,36
1766015798.309911,35
1766015798.3099241,38
1766015798.309937,36
1766015798.309949,35
1766015798.309966,35
1766015798.30998,33
1766015798.309994,33
1766015798.310006,38
1766015798.310019,33
1766015798.310032,37
1766015798.3100438,33
1766015798.310057,36
1766015798.31007,33
1766015798.310082,38
1766015798.310095,32
1766015798.310108,36
1766015798.310121,35
1766015798.310134,35
1766015798.310147,33
1766015798.31016,37
1766015798.310174,36
1766015798.310187,35
1766015798.3102,34
1766015798.310213,34
1766015798.310226,35
1766015798.310238,35
1766015798.310251,34
1766015798.310264,36
1766015798.310276,37
1766015798.310287,33
1766015798.3102982,33
1766015798.31031,33
1766015798.3103209,34
1766015798.3103318,31
1766015798.310343,32
1766015798.310354,34
1766015798.310368,33
1766015798.3103812,33
1766015798.310394,37
1766015798.310405,35
1766015798.310416,32
1766015798.310428,32
1766015798.3104389,37
1766015798.3104498,34
1766015798.310461,36
1766015798.310474,33
1766015798.310487,36
1766015798.310499,34
1766015798.3105102,34
1766015798.310522,34
1766015798.310535,33
1766015798.310546,31
1766015798.310557,34
1766015798.3105679,35
1766015798.31058,34
1766015798.310591,34
1766015798.310602,35
1766015798.310613,33
1766015798.310625,36
1766015798.310636,34
1766015798.310647,35
1766015798.310658,35
1766015798.310669,33
1766015798.3106802,33
1766015798.310692,33
1766015798.310705,32
1766015798.310716,33
1766015798.310727,34
1766015798.3107378,34
1766015798.310751,31
1766015798.310762,29
1766015798.310774,31
1766015798.310785,36
1766015798.310796,31
1766015798.310807,34
1766015798.310818,34
1766015798.31083,32
1766015798.310841,33
1766015798.310852,33
1766015798.310863,31
1766015798.3108742,32
1766015798.3108852,30
1766015798.3108969,31
1766015798.3109078,33
1766015798.31092,33
1766015798.310931,32
1766015798.310942,32
1766015798.310954,31
1766015798.310965,32
1766015798.310976,33
1766015798.311004,34
1766015798.311015,34
1766015798.311027,34
1766015798.311038,36
1766015798.311049,30
1766015798.31106,35
1766015798.311071,37
1766015798.311082,33
1766015798.311094,33
1766015798.311105,37
1766015798.311116,34
1766015798.311129,33
1766015798.311143,33
1766015798.311156,34
1766015798.311168,34
1766015798.311181,32
1766015798.311193,32
1766015798.3112051,34
1766015798.311216,34
1766015798.3112268,31
1766015798.3112378,33
1766015798.3112488,31
1766015798.31126,36
1766015798.311271,33
1766015798.3112829,28
1766015798.3112938,28
1766015798.311305,28
1766015798.311316,30
1766015798.311327,30
1766015798.311339,31
1766015798.31135,31
1766015798.311361,30
1766015798.311372,29
1766015798.311383,33
1766015798.311394,30
1766015798.3114061,34
1766015798.311418,32
1766015798.311429,32
1766015798.31144,32
1766015798.311451,33
1766015798.311462,35
1766015798.311473,31
1766015798.3114848,29
1766015798.311496,30
1766015798.311511,34
1766015798.311523,31
1766015798.3115342,33
1766015798.3115451,30
1766015798.311556,34
1766015798.31157,31
1766015798.311583,28
1766015798.311596,32
1766015798.311609,30
1766015798.31162,33
1766015798.311632,32
1766015798.311643,31
1766015798.3116539,31
1766015798.3116648,31
1766015798.3116758,30
1766015798.311687,31
1766015798.311699,32
1766015798.31171,30
1766015798.3117208,32
1766015798.311732,32
1766015798.311744,31
1766015798.311755,36
1766015798.311766,30
1766015798.311777,35
1766015798.311789,34
1766015798.3118,33
1766015798.311811,32
1766015798.3118222,31
1766015798.3118331,30
1766015798.311845,31
1766015798.311856,31
1766015798.311867,33
1766015798.311878,33
1766015798.311897,31
1766015798.31191,33
1766015798.311921,30
1766015798.3119318,32
1766015798.311944,32
1766015798.311955,34
1766015798.311966,29
1766015798.311978,30
1766015798.311989,31
1766015798.312,33
1766015798.312011,33
1766015798.312023,32
1766015798.3120341,33
1766015798.312045,35
1766015798.312056,33
1766015798.3120692,31
1766015798.31208,31
1766015798.3120909,37
1766015798.3121018,34
1766015798.312114,36
1766015798.312125,35
1766015798.312136,37
1766015798.3121479,34
1766015798.312159,33
1766015798.312172,34
1766015798.312184,33
1766015798.312195,34
1766015798.312206,33
1766015798.312217,35
1766015798.3122292,35
1766015798.3122401,34
1766015798.3122509,34
1766015798.312264,35
1766015798.312278,38
1766015798.31229,34
1766015798.3123012,32
1766015798.3123121,35
1766015798.312323,38
1766015798.312335,37
1766015798.3123462,38
1766015798.3123572,33
1766015798.3123682,35
1766015798.312379,34
1766015798.3123899,37
1766015798.312402,36
1766015798.312413,36
1766015798.312424,34
1766015798.312435,32
1766015798.3124459,35
1766015798.3124568,34
1766015798.312468,34
1766015798.31248,37
1766015798.312491,31
1766015798.312502,36
1766015798.312513,36
1766015798.312524,31
1766015798.312535,37
1766015798.312546,35
1766015798.3125582,39
1766015798.3125691,38
1766015798.31258,38
1766015798.312591,38
1766015798.312602,37
1766015798.312614,39
1766015798.312625,37
1766015798.312639,38
1766015798.312652,40
1766015798.312663,38
1766015798.312675,40
1766015798.312686,40
1766015798.3126972,40
1766015798.3127081,36
1766015798.3127198,36
1766015798.3127308,38
1766015798.312742,37
1766015798.312753,37
1766015798.3127658,37
1766015798.312777,37
1766015798.312789,39
1766015798.3128,39
1766015798.312811,40
1766015798.312823,41
1766015798.312834,42
1766015798.312845,40
1766015798.312856,43
1766015798.3128672,38
1766015798.3128781,41
1766015798.31289,41
1766015798.312901,42
1766015798.312913,42
1766015798.312924,41
1766015798.3129349,41
1766015798.3129458,41
1766015798.312958,41
1766015798.312969,43
1766015798.31298,42
1766015798.312991,39
1766015798.313004,40
1766015798.313018,41
1766015798.313031,41
1766015798.313042,42
1766015798.313053,44
1766015798.3130639,45
1766015798.313076,43
1766015798.313087,46
1766015798.313098,42
1766015798.313109,49
1766015798.31312,48
1766015798.313131,49
1766015798.313142,48
1766015798.313154,50
1766015798.3131661,49
1766015798.31318,52
1766015798.313192,52
1766015798.3132029,53
1766015798.313214,52
1766015798.313226,54
1766015798.313237,52
1766015798.313248,51
1766015798.3132591,50
1766015798.313271,51
1766015798.313282,56
1766015798.3132942,52
1766015798.3133051,57
1766015798.313319,55
1766015798.313333,60
1766015798.313344,59
1766015798.313357,58
1766015798.313368,56
1766015798.313379,57
1766015798.3133929,59
1766015798.313407,59
1766015798.313418,56
1766015798.31343,58
1766015798.313441,58
1766015798.313452,58
1766015798.313465,53
1766015798.313477,56
1766015798.3134878,54
1766015798.313499,58
1766015798.313511,54
1766015798.3135219,60
1766015798.313535,58
1766015798.313546,60
1766015798.313558,59
1766015798.313569,58
1766015798.313589,59
1766015798.3136,59
1766015798.313611,57
1766015798.313622,61
1766015798.313633,60
1766015798.313644,62
1766015798.3136551,59
1766015798.313666,63
1766015798.313677,61
1766015798.313689,59
1766015798.3137002,58
1766015798.3137112,61
1766015798.3137221,65
1766015798.313733,59
1766015798.3137438,64
1766015798.3137548,64
1766015798.313766,63
1766015798.313781,62
1766015798.3137941,62
1766015798.313805,62
1766015798.3138182,62
1766015798.3138292,66
1766015798.3138402,67
1766015798.3138509,67
1766015798.3138618,64
1766015798.313874,63
1766015798.313885,64
1766015798.313896,65
1766015798.313907,66
1766015798.3139179,67
1766015798.3139288,67
1766015798.31394,66
1766015798.313951,67
1766015798.313962,67
1766015798.313973,67
1766015798.313985,65
1766015798.313996,66
1766015798.314007,63
1766015798.314018,64
1766015798.314029,63
1766015798.31404,62
1766015798.3140512,64
1766015798.314062,62
1766015798.314073,64
1766015798.314084,63
1766015798.3140962,62
1766015798.314107,60
1766015798.314118,60
1766015798.3141289,58
1766015798.314142,64
1766015798.314156,63
1766015798.3141692,60
1766015798.314181,58
1766015798.3141918,57
1766015798.3142028,59
1766015798.314214,60
1766015798.314223,61
1766015798.314233,57
1766015798.314243,59
1766015798.314253,59
1766015798.314263,56
1766015798.314273,56
1766015798.314282,59
1766015798.314292,56
1766015798.314302,57
1766015798.314312,58
1766015798.314324,57
1766015798.314333,55
1766015798.314343,59
1766015798.314353,60
1766015798.3143628,59
1766015798.314373,58
1766015798.314383,61
1766015798.314392,64
1766015798.314402,65
1766015798.314412,61
1766015798.3144221,64
1766015798.314432,62
1766015798.314443,63
1766015798.314453,62
1766015798.314463,59
1766015798.314473,61
1766015798.314486,63
1766015798.314498,63
1766015798.314508,62
1766015798.314518,60
1766015798.314528,61
1766015798.314538,62
1766015798.314548,59
1766015798.3145568,60
1766015798.3145669,61
1766015798.3145769,59
1766015798.3145869,60
1766015798.3145971,65
1766015798.3146071,64
1766015798.3146172,62
1766015798.3146272,63
1766015798.314637,64
1766015798.314647,60
1766015798.314657,62
1766015798.314666,62
1766015798.314676,63
1766015798.314686,59
1766015798.3146958,61
1766015798.3147058,59
1766015798.3147159,60
1766015798.3147259,59
1766015798.3147361,58
1766015798.3147452,61
1766015798.3147562,55
1766015798.314765,61
1766015798.314775,61
1766015798.314785,59
1766015798.314795,58
1766015798.314807,56
1766015798.314819,55
1766015798.31483,53
1766015798.31484,54
1766015798.31485,55
1766015798.314859,56
1766015798.314869,56
1766015798.314879,54
1766015798.314889,53
1766015798.314899,53
1766015798.314909,55
1766015798.3149178,56
1766015798.314929,54
1766015798.314938,53
1766015798.314948,53
1766015798.314958,51
1766015798.314969,53
1766015798.3149781,52
1766015798.3149881,52
1766015798.314998,48
1766015798.315009,50
1766015798.315018,48
1766015798.315028,50
1766015798.315038,47
1766015798.315048,48
1766015798.315058,45
1766015798.315068,47
1766015798.3150778,47
1766015798.315089,47
1766015798.3150988,48
1766015798.315109,50
1766015798.315119,45
1766015798.315129,45
1766015798.315142,45
1766015798.3151538,47
1766015798.3151639,48
1766015798.315176,43
1766015798.315187,47
1766015798.315197,44
1766015798.315207,45
1766015798.3152168,46
1766015798.3152268,44
1766015798.315237,46
1766015798.315247,45
1766015798.315257,46
1766015798.315267,43
1766015798.3152761,41
1766015798.315286,45
1766015798.315296,41
1766015798.315306,44
1766015798.315316,43
1766015798.315326,43
1766015798.315336,42
1766015798.315346,44
1766015798.315357,45
1766015798.315368,42
1766015798.315378,41
1766015798.315388,40
1766015798.315398,40
1766015798.315409,42
1766015798.315419,39
1766015798.3154292,41
1766015798.315439,40
1766015798.3154519,43
1766015798.3154619,42
1766015798.3154728,40
1766015798.3154838,43
1766015798.3154938,43
1766015798.315504,40
1766015798.315514,40
1766015798.315524,39
1766015798.315534,43
1766015798.315545,40
1766015798.3155541,41
1766015798.315564,37
1766015798.315574,42
1766015798.315584,36
1766015798.315595,39
1766015798.315605,40
1766015798.315614,40
1766015798.315624,41
1766015798.315634,41
1766015798.3156438,41
1766015798.3156538,41
1766015798.3156638,41
1766015798.315674,45
1766015798.315684,38
1766015798.3156931,40
1766015798.315704,39
1766015798.3157141,38
1766015798.3157241,42
1766015798.315733,39
1766015798.315777,39
1766015798.315796,40
1766015798.315806,40
1766015798.3158169,38
1766015798.315827,39
1766015798.315837,40
1766015798.31585,37
1766015798.31586,41
1766015798.31587,40
1766015798.3158798,38
1766015798.3158898,40
1766015798.3158998,36
1766015798.3159099,37
1766015798.3159199,42
1766015798.3159301,40
1766015798.3159611,40
1766015798.315976,39
1766015798.3159869,40
1766015798.315997,40
1766015798.316007,40
1766015798.3160179,36
1766015798.3160279,38
1766015798.3160372,39
1766015798.3160472,37
1766015798.3160572,36
1766015798.316115,38
1766015798.316125,37
1766015798.316136,39
1766015798.3161879,37
1766015798.316201,38
1766015798.316285,39
1766015798.316295,40
1766015798.316304,39
1766015798.3163142,35
1766015798.316324,36
1766015798.316333,36
1766015798.316343,37
1766015798.316353,37
1766015798.316363,38
1766015798.316376,36
1766015798.316386,39
1766015798.316396,38
1766015798.316406,37
1766015798.316418,36
1766015798.3164291,39
1766015798.316533,39
1766015798.3165429,38
1766015798.316555,38
1766015798.316565,37
1766015798.3166132,36
1766015798.3166249,38
1766015798.316635,34
1766015798.316677,35
1766015798.316701,38
1766015798.316716,40
1766015798.316742,36
1766015798.3167539,38
1766015798.316767,33
1766015798.31678,39
1766015798.316792,37
1766015798.3168051,39
1766015798.316818,37
1766015798.31683,39
1766015798.316843,38
1766015798.3168561,35
1766015798.316868,37
1766015798.316881,37
1766015798.316894,40
1766015798.316906,36
1766015798.316919,36
1766015798.316931,37
1766015798.316944,37
1766015798.316962,39
1766015798.316975,40
1766015798.3169868,38
1766015798.317,37
1766015798.317012,32
1766015798.317025,34
1766015798.317037,38
1766015798.3170502,35
1766015798.317062,36
1766015798.317075,36
1766015798.317087,36
1766015798.3171,34
1766015798.317112,37
1766015798.317125,37
1766015798.317137,36
1766015798.317158,36
1766015798.3171709,34
1766015798.317184,38
1766015798.3171961,37
1766015798.317209,37
1766015798.3172212,33
1766015798.3172338,35
1766015798.317282,34
1766015798.317308,37
1766015798.317322,38
1766015798.317336,34
1766015798.3173492,37
1766015798.3173618,33
1766015798.317374,35
1766015798.317387,37
1766015798.3174,34
1766015798.317413,34
1766015798.317429,35
1766015798.3174431,32
1766015798.3174558,33
1766015798.317469,38
1766015798.317482,35
1766015798.317494,36
1766015798.317507,35
1766015798.31752,34
1766015798.317533,35
1766015798.317546,35
1766015798.317558,35
1766015798.3175712,34
1766015798.3175838,34
1766015798.317597,32
1766015798.317609,34
1766015798.317622,34
1766015798.317635,32
1766015798.3176472,33
1766015798.3176599,34
1766015798.317672,37
1766015798.317685,35
1766015798.317698,33
1766015798.3177102,35
1766015798.3177228,34
1766015798.317736,32
1766015798.317748,34
1766015798.317761,32
1766015798.317774,31
1766015798.317787,32
1766015798.3177989,33
1766015798.317812,35
1766015798.317825,34
1766015798.317837,30
1766015798.317853,33
1766015798.317866,32
1766015798.317879,35
1766015798.317892,31
1766015798.3179038,33
1766015798.3179169,33
1766015798.31793,35
1766015798.317942,32
1766015798.317955,34
1766015798.317968,36
1766015798.317981,34
1766015798.317993,36
1766015798.318006,36
1766015798.3180192,34
1766015798.3180318,35
1766015798.318044,34
1766015798.318057,35
1766015798.31807,35
1766015798.31812,37
1766015798.318134,35
1766015798.318146,35
1766015798.318166,34
1766015798.31818,36
1766015798.3181922,35
1766015798.3182049,32
1766015798.318218,33
1766015798.31823,36
1766015798.318243,34
1766015798.3182552,34
1766015798.3182678,31
1766015798.31828,33
1766015798.318293,35
1766015798.318306,31
1766015798.318327,31
1766015798.31834,35
1766015798.318352,32
1766015798.3183649,33
1766015798.318378,34
1766015798.318401,34
1766015798.318413,33
1766015798.3184261,32
1766015798.318439,35
1766015798.318452,33
1766015798.318464,33
1766015798.3184772,33
1766015798.31849,33
1766015798.318502,30
1766015798.3185139,30
1766015798.318527,34
1766015798.31854,31
1766015798.318552,28
1766015798.3185651,37
1766015798.3185768,30
1766015798.31859,36
1766015798.318602,33
1766015798.318615,32
1766015798.318636,33
1766015798.318649,33
1766015798.318662,31
1766015798.3186738,33
1766015798.318687,32
1766015798.3187,32
1766015798.3187132,32
1766015798.318725,32
1766015798.318738,33
1766015798.318759,35
1766015798.318773,32
1766015798.3187861,32
1766015798.318798,33
1766015798.318811,34
1766015798.318829,31
1766015798.3188422,33
1766015798.3188548,32
1766015798.31887,34
1766015798.3188832,35
1766015798.318896,32
1766015798.318908,30
1766015798.3189209,33
1766015798.318934,32
1766015798.3189461,34
1766015798.318959,34
1766015798.3189719,36
1766015798.318984,33
1766015798.318997,31
1766015798.319009,32
1766015798.3190222,33
1766015798.3190348,34
1766015798.319048,35
1766015798.31906,33
1766015798.319073,30
1766015798.3190851,35
1766015798.319098,31
1766015798.31911,36
1766015798.319125,33
1766015798.319137,30
1766015798.3191621,33
1766015798.3191738,32
1766015798.319187,32
1766015798.319204,31
1766015798.319216,29
1766015798.319229,32
1766015798.319245,29
1766015798.319257,33
1766015798.31927,34
1766015798.319283,33
1766015798.319298,32
1766015798.3193102,33
1766015798.3193228,29
1766015798.319335,33
1766015798.3193479,30
1766015798.31936,29
1766015798.3193731,33
1766015798.319385,28
1766015798.319398,27
1766015798.3194098,31
1766015798.319423,31
1766015798.319436,29
1766015798.319448,31
1766015798.319461,29
1766015798.319474,31
1766015798.319487,32
1766015798.3195,32
1766015798.319513,32
1766015798.319525,30
1766015798.3195379,29
1766015798.31955,29
1766015798.319563,31
1766015798.319576,29
1766015798.3195882,28
1766015798.3196008,29
1766015798.319614,28
1766015798.319628,29
1766015798.319641,29
1766015798.31966,30
1766015798.319674,30
1766015798.319687,28
1766015798.319699,30
1766015798.319715,29
1766015798.3197281,30
1766015798.3197398,31
1766015798.319753,26
1766015798.319765,28
1766015798.319778,28
1766015798.319791,29
1766015798.319804,29
1766015798.319818,30
1766015798.3198311,29
1766015798.319843,27
1766015798.3198562,28
1766015798.3198678,25
1766015798.319881,30
1766015798.319893,28
1766015798.319906,28
1766015798.319919,31
1766015798.3199308,29
1766015798.319943,29
1766015798.319956,29
1766015798.319968,25
1766015798.319981,29
1766015798.3199942,27
1766015798.320006,27
1766015798.320019,30
1766015798.320031,29
1766015798.320044,28
1766015798.320056,29
1766015798.3200681,25
1766015798.3200839,26
1766015798.320144,28
1766015798.3201652,29
1766015798.3201768,27
1766015798.3201878,28
1766015798.3201978,30
1766015798.3202088,26
1766015798.32022,28
1766015798.320231,27
1766015798.320241,28
1766015798.320252,25
1766015798.320262,26
1766015798.320273,26
1766015798.320283,28
1766015798.320294,28
1766015798.3203049,28
1766015798.320332,29
1766015798.320353,28
1766015798.320364,29
1766015798.320375,25
1766015798.320385,27
1766015798.320396,27
1766015798.320406,28
1766015798.320417,30
1766015798.320427,26
1766015798.320438,28
1766015798.320448,27
1766015798.320459,26
1766015798.32047,27
1766015798.32048,27
1766015798.320491,27
1766015798.320501,28
1766015798.320512,27
1766015798.3205261,31
1766015798.32054,29
1766015798.320551,28
1766015798.320561,26
1766015798.320572,30
1766015798.320582,27
1766015798.3205929,28
1766015798.320603,28
1766015798.3206139,26
1766015798.3206348,29
1766015798.320645,27
1766015798.3206558,26
1766015798.320666,26
1766015798.320677,30
1766015798.320687,25
1766015798.320698,28
1766015798.320708,26
1766015798.320719,23
1766015798.320729,22
1766015798.32074,25
1766015798.32075,26
1766015798.3207612,26
1766015798.320771,26
1766015798.3207822,23
1766015798.320792,25
1766015798.3208032,26
1766015798.3208141,26
1766015798.3208241,25
1766015798.320835,26
1766015798.3208451,25
1766015798.3208551,28
1766015798.320866,25
1766015798.3208761,29
1766015798.320894,25
1766015798.320906,28
1766015798.320916,29
1766015798.320927,28
1766015798.320937,25
1766015798.320947,26
1766015798.320958,26
1766015798.320968,27
1766015798.3209789,27
1766015798.320989,26
1766015798.3209999,29
1766015798.3210099,25
1766015798.3210208,26
1766015798.3210309,24
1766015798.3210418,25
1766015798.3210518,25
1766015798.3210628,28
1766015798.3210728,22
1766015798.321086,26
1766015798.321096,24
1766015798.321107,27
1766015798.321117,26
1766015798.321128,27
1766015798.321138,25
1766015798.3211489,25
1766015798.321171,24
1766015798.321182,26
1766015798.321193,26
1766015798.321203,22
1766015798.321214,24
1766015798.321224,25
1766015798.321235,26
1766015798.321245,27
1766015798.321263,25
1766015798.321274,29
1766015798.321285,28
1766015798.321295,28
1766015798.3213062,30
1766015798.3213172,25
1766015798.3213272,27
1766015798.3213382,28
1766015798.3213482,27
1766015798.321358,26
1766015798.3213692,26
1766015798.3213792,30
1766015798.3213902,23
1766015798.3214002,27
1766015798.3214111,25
1766015798.3214211,30
1766015798.321432,26
1766015798.3214421,28
1766015798.321453,27
1766015798.321463,24
1766015798.321474,28
1766015798.321485,30
1766015798.321495,28
1766015798.321506,27
1766015798.321516,26
1766015798.321527,28
1766015798.321537,28
1766015798.321548,29
1766015798.321558,29
1766015798.321569,27
1766015798.32158,27
1766015798.32159,27
1766015798.321601,27
1766015798.321619,26
1766015798.321632,26
1766015798.321643,27
1766015798.321653,27
1766015798.321664,28
1766015798.3216739,28
1766015798.321685,26
1766015798.321695,28
1766015798.321706,29
1766015798.321716,28
1766015798.321727,28
1766015798.321737,28
1766015798.321748,27
1766015798.321758,28
1766015798.321769,29
1766015798.32178,26
1766015798.32179,28
1766015798.3218,26
1766015798.321811,24
1766015798.321821,26
1766015798.321832,28
1766015798.321842,28
1766015798.321853,25
1766015798.321863,26
1766015798.321874,26
1766015798.321884,25
1766015798.321895,27
1766015798.321905,29
1766015798.3219159,29
1766015798.3219259,28
1766015798.3219368,30
1766015798.3219469,28
1766015798.3219578,26
1766015798.321975,28
1766015798.321988,27
1766015798.3219998,27
1766015798.32201,29
1766015798.322021,28
1766015798.322031,26
1766015798.3220422,24
1766015798.322052,31
1766015798.3220632,28
1766015798.3220742,28
1766015798.3220842,30
1766015798.3220952,24
1766015798.3221061,28
1766015798.3221161,30
1766015798.322127,27
1766015798.322138,28
1766015798.322149,30
1766015798.322172,29
1766015798.322182,30
1766015798.322192,28
1766015798.322203,25
1766015798.3222132,29
1766015798.3222241,30
1766015798.3222349,28
1766015798.3222451,29
1766015798.3222551,27
1766015798.322266,26
1766015798.322276,30
1766015798.322287,27
1766015798.322297,26
1766015798.322308,30
1766015798.322318,27
1766015798.322329,29
1766015798.322339,29
1766015798.322356,27
1766015798.322369,29
1766015798.32238,27
1766015798.32239,29
1766015798.322401,29
1766015798.322411,28
1766015798.322422,24
1766015798.322432,27
1766015798.322443,27
1766015798.322453,29
1766015798.322464,26
1766015798.322474,29
1766015798.322484,28
1766015798.322495,27
1766015798.322505,29
1766015798.322516,27
1766015798.322526,26
1766015798.322537,28
1766015798.322547,27
1766015798.322558,29
1766015798.322568,31
1766015798.322579,27
1766015798.322589,25
1766015798.3226,29
1766015798.32261,30
1766015798.3226209,29
1766015798.322631,28
1766015798.322641,27
1766015798.322656,30
1766015798.322666,27
1766015798.322676,26
1766015798.322687,30
1766015798.322697,33
1766015798.322714,28
1766015798.322727,27
1766015798.322738,33
1766015798.322748,28
1766015798.322759,27
1766015798.322769,27
1766015798.32278,32
1766015798.32279,29
1766015798.3228009,27
1766015798.322811,28
1766015798.3228219,30
1766015798.3228319,28
1766015798.3228428,29
1766015798.322853,29
1766015798.322863,30
1766015798.322874,26
1766015798.322884,29
1766015798.322895,25
1766015798.322905,28
1766015798.322916,29
1766015798.322926,28
1766015798.322937,26
1766015798.322948,26
1766015798.322958,27
1766015798.322968,27
1766015798.322979,28
1766015798.3229902,30
1766015798.323,27
1766015798.3230112,26
1766015798.3230212,28
1766015798.3230321,28
1766015798.3230422,29
1766015798.3230531,28
1766015798.32307,26
1766015798.323083,28
1766015798.323093,26
1766015798.323104,27
1766015798.323114,26
1766015798.323124,27
1766015798.323135,28
1766015798.323145,27
1766015798.323167,28
1766015798.323178,25
1766015798.323188,25
1766015798.323199,26
1766015798.32321,26
1766015798.32322,29
1766015798.323231,27
1766015798.323241,23
1766015798.323252,21
1766015798.323262,24
1766015798.323273,24
1766015798.323283,25
1766015798.323294,26
1766015798.323305,25
1766015798.323315,26
1766015798.3233259,25
1766015798.323337,26
1766015798.3233469,26
1766015798.32336,25
1766015798.323371,24
1766015798.323382,23
1766015798.323392,26
1766015798.323402,24
1766015798.323413,25
1766015798.323423,28
1766015798.32344,27
1766015798.323452,24
1766015798.323463,25
1766015798.323474,26
1766015798.323484,24
1766015798.323495,26
1766015798.323505,25
1766015798.323516,27
1766015798.323526,24
1766015798.3235369,27
1766015798.323547,26
1766015798.3235579,25
1766015798.323568,27
1766015798.3235788,24
1766015798.323589,24
1766015798.3235998,22
1766015798.32361,25
1766015798.32362,27
1766015798.323631,24
1766015798.323641,24
1766015798.323652,21
1766015798.323662,25
1766015798.323673,23
1766015798.323683,27
1766015798.323694,27
1766015798.3237052,26
1766015798.323715,25
1766015798.323725,21
1766015798.323736,23
1766015798.3237472,23
1766015798.3237572,22
1766015798.323767,24
1766015798.3237782,25
1766015798.3237891,25
1766015798.323806,25
1766015798.323817,23
1766015798.323828,25
1766015798.323838,25
1766015798.323849,25
1766015798.323859,24
1766015798.32387,25
1766015798.32388,23
1766015798.323891,24
1766015798.323901,24
1766015798.323912,22
1766015798.323922,22
1766015798.323933,22
1766015798.323943,23
1766015798.32396,22
1766015798.323971,23
1766015798.323981,24
1766015798.323992,23
1766015798.324002,22
1766015798.324012,22
1766015798.324023,22
1766015798.324033,23
1766015798.324044,21
1766015798.324054,20
1766015798.324065,26
1766015798.324075,25
1766015798.324085,20
1766015798.324096,24
1766015798.3241038,21
1766015798.324113,23
1766015798.324123,22
1766015798.3241322,24
1766015798.324141,24
1766015798.324152,26
1766015798.324163,23
1766015798.324172,24
1766015798.324181,26
1766015798.324192,23
1766015798.3242009,27
1766015798.32421,24
1766015798.324219,24
1766015798.324228,23
1766015798.324237,23
1766015798.324246,22
1766015798.324256,22
1766015798.324265,23
1766015798.3242738,24
1766015798.324283,21
1766015798.3242922,24
1766015798.324301,23
1766015798.32431,21
1766015798.324319,23
1766015798.324328,24
1766015798.324337,20
1766015798.324346,22
1766015798.3243551,22
1766015798.324364,21
1766015798.324373,24
1766015798.324382,24
1766015798.324391,25
1766015798.3244002,23
1766015798.324409,24
1766015798.324418,23
1766015798.324427,22
1766015798.324436,23
1766015798.324445,20
1766015798.324457,23
1766015798.324467,20
1766015798.324478,22
1766015798.324487,21
1766015798.3244958,23
1766015798.324505,21
1766015798.3245142,21
1766015798.324523,21
1766015798.324532,22
1766015798.3245409,21
1766015798.32455,26
1766015798.3245592,21
1766015798.324568,24
1766015798.324577,25
1766015798.324586,22
1766015798.324595,20
1766015798.3246038,21
1766015798.324613,23
1766015798.3246222,21
1766015798.324631,27
1766015798.32464,24
1766015798.32465,21
1766015798.3246589,21
1766015798.324668,22
1766015798.3246772,22
1766015798.324686,25
1766015798.324695,25
1766015798.324704,24
1766015798.324713,23
1766015798.3247218,22
1766015798.3247309,21
1766015798.3247402,19
1766015798.324749,22
1766015798.324758,21
1766015798.32477,26
1766015798.324781,24
1766015798.32479,22
1766015798.324799,23
1766015798.324808,20
1766015798.324817,24
1766015798.324826,23
1766015798.324835,22
1766015798.3248441,24
1766015798.324853,25
1766015798.324862,19
1766015798.324872,26
1766015798.3248808,23
1766015798.3248901,25
1766015798.324899,24
1766015798.324908,22
1766015798.324917,23
1766015798.324926,23
1766015798.324935,24
1766015798.3249438,22
1766015798.324953,21
1766015798.3249621,22
1766015798.324971,26
1766015798.32498,25
1766015798.32499,21
1766015798.3249989,25
1766015798.325008,23
1766015798.325017,25
1766015798.325026,25
1766015798.325035,20
1766015798.325044,19
1766015798.325053,24
1766015798.3250618,23
1766015798.325074,26
1766015798.325085,22
1766015798.325095,24
1766015798.3251042,23
1766015798.325113,26
1766015798.325122,24
1766015798.325131,23
1766015798.32514,24
1766015798.3251488,23
1766015798.3251579,24
1766015798.3251672,24
1766015798.325176,21
1766015798.325186,23
1766015798.325195,25
1766015798.325204,25
1766015798.325213,26
1766015798.3252218,23
1766015798.325231,23
1766015798.3252401,23
1766015798.325249,22
1766015798.325258,21
1766015798.3252668,23
1766015798.325276,25
1766015798.325286,24
1766015798.3252952,21
1766015798.325304,24
1766015798.325314,21
1766015798.325323,22
1766015798.325332,24
1766015798.325341,23
1766015798.325351,24
1766015798.32536,20
1766015798.3253691,24
1766015798.325381,25
1766015798.325391,21
1766015798.325401,21
1766015798.3254101,20
1766015798.325419,22
1766015798.325428,21
1766015798.3254368,23
1766015798.325446,23
1766015798.325456,21
1766015798.3254652,24
1766015798.325474,25
1766015798.325483,23
1766015798.325492,23
1766015798.325501,23
1766015798.325511,21
1766015798.3255198,22
1766015798.325529,25
1766015798.3255382,21
1766015798.325548,22
1766015798.325557,26
1766015798.325566,22
1766015798.3255749,21
1766015798.325584,23
1766015798.325593,24
1766015798.325602,23
1766015798.325611,22
1766015798.325621,23
1766015798.32563,24
1766015798.325639,25
1766015798.3256478,25
1766015798.3256571,22
1766015798.325666,22
1766015798.325675,23
1766015798.325685,21
1766015798.325697,23
1766015798.325709,21
1766015798.325718,24
1766015798.325727,19
1766015798.325736,24
1766015798.3257449,22
1766015798.3257542,23
1766015798.325763,23
1766015798.325772,22
1766015798.325782,23
1766015798.325791,21
1766015798.3258,22
1766015798.325809,22
1766015798.325818,24
1766015798.3258271,24
1766015798.325836,25
1766015798.325845,22
1766015798.325854,24
1766015798.325863,25
1766015798.3258722,22
1766015798.325881,23
1766015798.32589,23
1766015798.3258991,24
1766015798.325909,22
1766015798.325918,23
1766015798.325927,24
1766015798.325936,25
1766015798.3259451,22
1766015798.325954,22
1766015798.325963,21
1766015798.325972,23
1766015798.325981,21
1766015798.32599,22
1766015798.3260028,21
1766015798.326014,23
1766015798.3260229,22
1766015798.326032,22
1766015798.326041,22
1766015798.326051,22
1766015798.326136,25
1766015798.326145,23
1766015798.326155,26
1766015798.326164,19
1766015798.3261728,21
1766015798.326182,22
1766015798.3261912,19
1766015798.3262,24
1766015798.326209,22
1766015798.326218,22
1766015798.326227,23
1766015798.326237,23
1766015798.3262458,24
1766015798.326255,24
1766015798.3262641,23
1766015798.326273,24
1766015798.326282,22
1766015798.3262908,24
1766015798.3263,20
1766015798.32631,24
1766015798.3263192,21
1766015798.326328,24
1766015798.326337,22
1766015798.326346,20
1766015798.326355,21
1766015798.3263638,21
1766015798.3263738,23
1766015798.3263848,22
1766015798.3263948,24
1766015798.326404,21
1766015798.3264132,26
1766015798.326422,23
1766015798.326432,22
1766015798.326441,20
1766015798.3264499,24
1766015798.326459,21
1766015798.326468,23
1766015798.326477,19
1766015798.326486,23
1766015798.326495,24
1766015798.326504,19
1766015798.3265128,19
1766015798.326522,22
1766015798.3265321,22
1766015798.326541,21
1766015798.32655,23
1766015798.326559,21
1766015798.326568,21
1766015798.326577,23
1766015798.326586,22
1766015798.326595,24
1766015798.3266041,20
1766015798.326613,22
1766015798.326622,24
1766015798.3266308,23
1766015798.3266408,21
1766015798.3266501,25
1766015798.326659,21
1766015798.326668,25
1766015798.326677,22
1766015798.326688,25
1766015798.326702,21
1766015798.3267121,23
1766015798.326721,23
1766015798.32673,25
1766015798.3267388,23
1766015798.326748,25
1766015798.3267572,24
1766015798.326766,23
1766015798.326775,24
1766015798.326784,22
1766015798.326793,24
1766015798.326802,22
1766015798.3268108,25
1766015798.3268201,26
1766015798.326829,24
1766015798.326838,24
1766015798.326847,24
1766015798.3268569,23
1766015798.326866,24
1766015798.326875,26
1766015798.326884,23
1766015798.326893,24
1766015798.326902,24
1766015798.326911,23
1766015798.32692,24
1766015798.3269289,24
1766015798.3269382,22
1766015798.326947,21
1766015798.326957,22
1766015798.326966,22
1766015798.3269749,25
1766015798.326984,27
1766015798.326993,22
1766015798.327002,25
1766015798.327011,26
1766015798.32702,26
1766015798.327029,28
1766015798.327038,26
1766015798.3270478,26
1766015798.327057,25
1766015798.3270662,24
1766015798.327075,26
1766015798.327084,22
1766015798.327093,24
1766015798.327102,25
1766015798.327111,22
1766015798.3271208,25
1766015798.32713,24
1766015798.3271391,26
1766015798.327148,24
1766015798.327157,23
1766015798.3271658,26
1766015798.327175,24
1766015798.327184,25
1766015798.3271942,25
1766015798.327204,24
1766015798.327213,24
1766015798.327222,23
1766015798.327231,25
1766015798.32724,27
1766015798.3272488,23
1766015798.327258,25
1766015798.3272681,26
1766015798.327277,25
1766015798.327286,25
1766015798.327295,26
1766015798.327304,25
1766015798.327313,24
1766015798.327322,28
1766015798.327331,29
1766015798.3273401,23
1766015798.327349,28
1766015798.327358,27
1766015798.3273668,27
1766015798.3273768,27
1766015798.3273861,26
1766015798.327395,25
1766015798.327404,24
1766015798.327413,26
1766015798.327422,26
1766015798.327431,26
1766015798.3274398,24
1766015798.327449,26
1766015798.3274581,27
1766015798.327468,27
1766015798.327477,25
1766015798.327486,26
1766015798.3274949,30
1766015798.327504,27
1766015798.327513,28
1766015798.327522,25
1766015798.327531,26
1766015798.32754,28
1766015798.327549,25
1766015798.3275578,23
1766015798.327567,28
1766015798.3275762,25
1766015798.327585,27
1766015798.327594,24
1766015798.327604,28
1766015798.3276129,27
1766015798.327622,27
1766015798.327631,28
1766015798.32764,26
1766015798.327649,27
1766015798.327658,30
1766015798.327667,29
1766015798.3276758,27
1766015798.327685,28
1766015798.3276942,28
1766015798.327703,27
1766015798.327712,29
1766015798.327722,29
1766015798.327731,29
1766015798.32774,26
1766015798.327749,28
1766015798.327758,27
1766015798.3277671,29
1766015798.327776,30
1766015798.327785,30
1766015798.3277938,31
1766015798.327803,28
1766015798.3278122,29
1766015798.327821,30
1766015798.327831,29
1766015798.32784,31
1766015798.327849,31
1766015798.327858,30
1766015798.3278668,32
1766015798.327876,30
1766015798.327886,29
1766015798.327895,31
1766015798.327904,29
1766015798.327913,28
1766015798.3279219,28
1766015798.327931,28
1766015798.32794,31
1766015798.327949,28
1766015798.327958,32
1766015798.327967,33
1766015798.327976,29
1766015798.327986,31
1766015798.3279948,32
1766015798.3280041,31
1766015798.328013,30
1766015798.328022,33
1766015798.328031,29
1766015798.32804,33
1766015798.328049,34
1766015798.328058,29
1766015798.328067,29
1766015798.3280761,31
1766015798.328085,30
1766015798.328094,30
1766015798.3281028,29
1766015798.3281121,32
1766015798.3281212,29
1766015798.32813,34
1766015798.32814,33
1766015798.328149,34
1766015798.328158,34
1766015798.328167,32
1766015798.328176,33
1766015798.328185,30
1766015798.3281941,33
1766015798.328204,33
1766015798.328213,33
1766015798.328222,37
1766015798.3282309,32
1766015798.3282402,33
1766015798.328249,31
1766015798.328258,34
1766015798.328267,33
1766015798.328276,32
1766015798.328285,35
1766015798.3282938,34
1766015798.328304,34
1766015798.328313,34
1766015798.328322,36
1766015798.328331,33
1766015798.32834,33
1766015798.3283489,32
1766015798.328358,35
1766015798.328367,31
1766015798.328376,35
1766015798.328385,34
1766015798.328394,35
1766015798.328404,34
1766015798.328413,32
1766015798.3284218,36
1766015798.3284311,33
1766015798.32844,34
1766015798.328449,34
1766015798.328458,33
1766015798.328467,31
1766015798.328476,32
1766015798.328485,33
1766015798.328494,32
1766015798.328504,30
1766015798.328513,34
1766015798.328522,33
1766015798.328531,32
1766015798.328541,33
1766015798.3285499,30
1766015798.3285592,35
1766015798.328568,31
1766015798.328577,31
1766015798.328586,33
1766015798.328595,26
1766015798.328605,29
1766015798.328614,32
1766015798.328623,30
1766015798.328632,30
1766015798.328641,33
1766015798.32865,32
1766015798.3286772,30
1766015798.3286872,30
1766015798.3286972,29
1766015798.328706,31
1766015798.328715,27
1766015798.328725,29
1766015798.328734,30
1766015798.328743,29
1766015798.328753,27
1766015798.328762,28
1766015798.328771,28
1766015798.3287811,32
1766015798.32879,29
1766015798.328799,28
1766015798.3288078,27
1766015798.328817,28
1766015798.328827,30
1766015798.3288362,29
1766015798.328845,30
1766015798.328854,28
1766015798.328863,28
1766015798.328872,30
1766015798.328882,29
1766015798.3288908,29
1766015798.3289,29
1766015798.3289092,30
1766015798.329227,28
1766015798.330249,27
1766015798.331275,27
1766015798.332266,28
1766015798.3332858,28
1766015798.334267,27
1766015798.335285,25
1766015798.3362718,27
1766015798.337277,24
1766015798.3382971,28
1766015798.339303,28
1766015798.3403,27
1766015798.34131,25
1766015798.342274,29
1766015798.343323,29
1766015798.344308,25
1766015798.3452868,26
1766015798.346316,26
1766015798.3473222,28
1766015798.34832,27
1766015798.349314,27
1766015798.3503098,24
1766015798.3513138,27
1766015798.352313,29
1766015798.353317,27
1766015798.3543072,27
1766015798.355343,26
1766015798.35634,26
1766015798.3573382,25
1766015798.358343,26
1766015798.359353,25
1766015798.36036,28
1766015798.361357,24
1766015798.3623402,26
1766015798.3633611,26
1766015798.364361,24
1766015798.365355,26
1766015798.366339,23
1766015798.3673441,24
1766015798.368358,25
1766015798.369331,25
1766015798.3703601,28
1766015798.371378,27
1766015798.372381,26
1766015798.3733969,24
1766015798.3743858,25
1766015798.375396,25
1766015798.376405,27
1766015798.377385,26
1766015798.378405,26
1766015798.379392,25
1766015798.380403,25
1766015798.381403,27
1766015798.382421,25
1766015798.3834,25
1766015798.384462,26
1766015798.3853672,24
1766015798.3864179,24
1766015798.3873641,22
1766015798.388402,23
1766015798.389363,22
1766015798.39039,27
1766015798.39142,26
1766015798.392423,23
1766015798.393446,26
1766015798.394428,25
1766015798.395392,25
1766015798.396424,22
1766015798.397451,22
1766015798.398457,22
1766015798.399442,24
1766015798.4004421,23
1766015798.401456,23
1766015798.4024389,26
1766015798.403429,24
1766015798.404455,22
1766015798.40546,25
1766015798.4064798,23
1766015798.407468,27
1766015798.408462,22
1766015798.409468,24
1766015798.410483,23
1766015798.4114392,24
1766015798.412443,22
1766015798.413474,27
1766015798.414494,21
1766015798.415493,23
1766015798.41649,24
1766015798.417461,24
1766015798.418463,26
1766015798.419502,23
1766015798.420476,22
1766015798.421481,22
1766015798.422548,24
1766015798.42351,21
1766015798.424505,21
1766015798.4254878,22
1766015798.426529,20
1766015798.427516,23
1766015798.4285219,23
1766015798.4294982,21
1766015798.430505,22
1766015798.4315221,20
1766015798.43252,22
1766015798.4335449,22
1766015798.434551,23
1766015798.435532,22
1766015798.436543,24
1766015798.437546,22
1766015798.438554,22
1766015798.439564,24
1766015798.44056,23
1766015798.441557,24
1766015798.442562,25
1766015798.443563,24
1766015798.4445708,20
1766015798.445576,24
1766015798.446576,24
1766015798.447592,23
1766015798.448585,23
1766015798.449592,24
1766015798.45059,21
1766015798.451585,24
1766015798.4525928,21
1766015798.453579,22
1766015798.454598,22
1766015798.455602,22
1766015798.456596,23
1766015798.4576268,22
1766015798.4586,20
1766015798.459605,19
1766015798.460618,22
1766015798.461617,24
1766015798.462629,23
1766015798.463611,20
1766015798.464643,25
1766015798.465634,26
1766015798.466624,19
1766015798.4676428,23
1766015798.468642,21
1766015798.469651,25
1766015798.470634,20
1766015798.471644,20
1766015798.472663,24
1766015798.473643,22
1766015798.4746659,23
1766015798.4756742,23
1766015798.476644,22
1766015798.477673,23
1766015798.478664,19
1766015798.479664,23
1766015798.4806771,24
1766015798.481683,23
1766015798.48268,21
1766015798.4836879,19
1766015798.4846919,21
1766015798.485701,20
1766015798.486711,23
1766015798.487705,22
1766015798.488693,19
1766015798.489707,22
1766015798.4906938,24
1766015798.4917178,22
1766015798.492717,22
1766015798.493721,21
1766015798.494699,21
1766015798.495728,21
1766015798.496725,23
1766015798.497731,22
1766015798.4987352,24
1766015798.499727,22
1766015798.500729,24
1766015798.5017211,23
1766015798.502723,21
1766015798.503736,25
1766015798.504747,22
1766015798.5057359,24
1766015798.506753,26
1766015798.507754,23
1766015798.5087419,22
1766015798.509757,21
1766015798.510762,25
1766015798.511759,22
1766015798.512755,24
1766015798.513761,23
1766015798.514753,22
1766015798.515759,22
1766015798.516767,19
1766015798.51777,24
1766015798.5187788,18
1766015798.519775,23
1766015798.520782,24
1766015798.521783,20
1766015798.522795,19
1766015798.523797,20
1766015798.5248058,21
1766015798.5257878,21
1766015798.52679,23
1766015798.527798,25
1766015798.528809,23
1766015798.529817,23
1766015798.5308201,21
1766015798.531809,23
1766015798.53282,23
1766015798.533839,22
1766015798.534838,24
1766015798.535827,21
1766015798.5368278,23
1766015798.537848,23
1766015798.5388281,22
1766015798.539833,22
1766015798.540838,24
1766015798.541842,21
1766015798.542857,21
1766015798.5438578,25
1766015798.5448692,25
1766015798.545869,23
1766015798.5468469,22
1766015798.5478568,25
1766015798.5488682,23
1766015798.5498939,26
1766015798.550872,24
1766015798.551875,23
1766015798.5528781,24
1766015798.553876,21
1766015798.554878,24
1766015798.555883,23
1766015798.5568829,22
1766015798.557915,21
1766015798.558901,23
1766015798.559896,26
1766015798.560891,24
1766015798.5619168,27
1766015798.5628889,24
1766015798.563916,24
1766015798.5649211,25
1766015798.565912,24
1766015798.566924,23
1766015798.5679228,23
1766015798.568924,25
1766015798.569935,23
1766015798.570923,25
1766015798.571925,23
1766015798.5729358,25
1766015798.5739331,22
1766015798.574947,25
1766015798.575953,25
1766015798.5769339,22
1766015798.577966,22
1766015798.5789618,26
1766015798.579942,25
1766015798.5809631,23
1766015798.58198,21
1766015798.582954,25
1766015798.583976,24
1766015798.5849779,24
1766015798.585967,28
1766015798.586977,25
1766015798.5879822,23
1766015798.588983,23
1766015798.5899892,27
1766015798.590986,22
1766015798.591975,24
1766015798.592979,24
1766015798.5939798,27
1766015798.5949922,28
1766015798.595999,28
1766015798.596998,25
1766015798.598006,23
1766015798.599024,25
1766015798.6000168,25
1766015798.601023,25
1766015798.602008,27
1766015798.603015,27
1766015798.604021,25
1766015798.605032,24
1766015798.606045,24
1766015798.607018,22
1766015798.608039,23
1766015798.6090372,24
1766015798.610035,24
1766015798.6110358,23
1766015798.61203,24
1766015798.613054,26
1766015798.6140711,26
1766015798.615048,23
1766015798.6160488,27
1766015798.617066,24
1766015798.618069,25
1766015798.6190531,26
1766015798.620054,26
1766015798.6210601,26
1766015798.622071,24
1766015798.623086,25
1766015798.624068,27
1766015798.625074,26
1766015798.6260731,26
1766015798.627072,24
1766015798.6280808,24
1766015798.6290848,23
1766015798.6300852,23
1766015798.6311092,27
1766015798.6321,29
1766015798.633107,28
1766015798.634114,28
1766015798.6351109,30
1766015798.636106,30
1766015798.6371121,29
1766015798.638113,32
1766015798.639132,30
1766015798.640123,31
1766015798.641115,31
1766015798.642123,29
1766015798.6431391,30
1766015798.644133,29
1766015798.64514,31
1766015798.646134,29
1766015798.647155,29
1766015798.64815,30
1766015798.649143,33
1766015798.650149,34
1766015798.651155,33
1766015798.6522381,31
1766015798.653242,31
1766015798.654148,29
1766015798.6552398,33
1766015798.6562319,36
1766015798.657244,34
1766015798.658239,34
1766015798.6592379,32
1766015798.660233,35
1766015798.6612349,34
1766015798.66224,34
1766015798.6632378,30
1766015798.6642308,30
1766015798.665229,34
1766015798.666236,33
1766015798.66723,34
1766015798.668237,30
1766015798.669237,32
1766015798.6702368,35
1766015798.671232,31
1766015798.672231,32
1766015798.673242,30
1766015798.6742442,33
1766015798.675241,29
1766015798.676237,32
1766015798.677241,35
1766015798.678249,32
1766015798.679235,33
1766015798.680238,31
1766015798.681231,34
1766015798.682246,38
1766015798.6832461,38
1766015798.684253,34
1766015798.685249,38
1766015798.68625,35
1766015798.687252,37
1766015798.68825,36
1766015798.689253,36
1766015798.6902568,36
1766015798.691254,35
1766015798.6922681,35
1766015798.693269,33
1766015798.694262,33
1766015798.6952891,39
1766015798.696307,34
1766015798.697293,34
1766015798.698286,36
1766015798.699286,36
1766015798.700289,35
1766015798.701288,39
1766015798.702297,36
1766015798.703289,37
1766015798.704293,34
1766015798.705291,35
1766015798.7063072,37
1766015798.707304,38
1766015798.708305,34
1766015798.7093089,38
1766015798.710309,37
1766015798.711307,40
1766015798.712318,36
1766015798.713315,37
1766015798.714331,36
1766015798.715326,39
1766015798.7163498,43
1766015798.7173388,49
1766015798.7183292,53
1766015798.719323,56
1766015798.72034,63
1766015798.721338,64
1766015798.722355,65
1766015798.7233548,68
1766015798.724351,63
1766015798.725367,64
1766015798.726352,64
1766015798.727371,63
1766015798.728361,64
1766015798.729365,66
1766015798.730379,67
1766015798.731383,67
1766015798.7323809,64
1766015798.73337,65
1766015798.734387,63
1766015798.7353861,65
1766015798.736385,63
1766015798.737391,63
1766015798.7383978,69
1766015798.739403,71
1766015798.740389,73
1766015798.741409,76
1766015798.74241,76
1766015798.743414,78
1766015798.7444081,81
1766015798.745405,77
1766015798.74641,76
1766015798.747411,82
1766015798.748409,79
1766015798.749418,81
1766015798.750429,77
1766015798.751424,82
1766015798.752417,80
1766015798.753421,81
1766015798.754424,80
1766015798.75542,82
1766015798.7564218,80
1766015798.757418,85
1766015798.758443,89
1766015798.759456,95
1766015798.760458,99
1766015798.7615309,100
1766015798.762563,104
1766015798.7635431,103
1766015798.7645571,103
1766015798.7655602,106
1766015798.76656,111
1766015798.7675672,111
1766015798.768557,119
1766015798.769557,124
1766015798.770572,125
1766015798.771567,126
1766015798.7725718,127
1766015798.773584,131
1766015798.7745972,127
1766015798.7755818,129
1766015798.776598,130
1766015798.7775948,132
1766015798.7786071,128
1766015798.7796,128
1766015798.7806,128
1766015798.781593,132
1766015798.7826,133
1766015798.783595,134
1766015798.7846231,140
1766015798.785602,139
1766015798.786622,133
1766015798.787617,138
1766015798.7886221,137
1766015798.7896261,138
1766015798.790617,138
1766015798.7916338,138
1766015798.792638,135
1766015798.793628,139
1766015798.794633,136
1766015798.795629,134
1766015798.79665,133
1766015798.797648,133
1766015798.798653,132
1766015798.7996511,127
1766015798.8006442,128
1766015798.8016481,128
1766015798.802662,125
1766015798.803672,124
1766015798.804676,124
1766015798.805653,124
1766015798.8066728,124
1766015798.8077571,122
1766015798.808705,122
1766015798.809665,122
1766015798.810661,119
1766015798.8116548,118
1766015798.8126369,118
1766015798.813649,118
1766015798.814652,121
1766015798.815674,127
1766015798.816661,133
1766015798.817665,140
1766015798.818669,141
1766015798.8196712,145
1766015798.8206851,145
1766015798.821701,147
1766015798.822697,143
1766015798.823694,141
1766015798.824694,139
1766015798.8257222,138
1766015798.82672,137
1766015798.827731,137
1766015798.828726,135
1766015798.829737,137
1766015798.830722,134
1766015798.831723,136
1766015798.832735,135
1766015798.83376,133
1766015798.83478,134
1766015798.835725,136
1766015798.836759,140
1766015798.837783,144
1766015798.838733,145
1766015798.839763,153
1766015798.84076,156
1766015798.841773,155
1766015798.842752,155
1766015798.843762,158
1766015798.8447738,157
1766015798.845819,161
1766015798.8467782,159
1766015798.8477929,156
1766015798.848793,154
1766015798.84981,155
1766015798.8507981,155
1766015798.8518028,153
1766015798.8528042,150
1766015798.853792,148
1766015798.85481,146
1766015798.855791,145
1766015798.8568141,148
1766015798.85781,149
1766015798.858834,148
1766015798.859804,144
1766015798.8608158,144
1766015798.861815,146
1766015798.862832,142
1766015798.8638341,142
1766015798.864832,143
1766015798.865834,140
1766015798.866841,140
1766015798.867855,141
1766015798.868841,138
1766015798.869836,135
1766015798.870846,131
1766015798.871829,133
1766015798.872892,131
1766015798.873822,127
1766015798.874818,130
1766015798.875808,126
1766015798.876856,125
1766015798.8778071,126
1766015798.878814,126
1766015798.8798668,123
1766015798.8808699,124
1766015798.88186,123
1766015798.8828611,124
1766015798.883915,125
1766015798.884882,125
1766015798.8858309,124
1766015798.8868322,122
1766015798.887892,123
1766015798.888875,122
1766015798.889904,118
1766015798.890898,121
1766015798.891915,122
1766015798.892868,120
1766015798.893863,117
1766015798.894876,118
1766015798.895872,113
1766015798.89687,117
1766015798.8978822,115
1766015798.898876,113
1766015798.89988,111
1766015798.900912,112
1766015798.90192,111
1766015798.9029398,111
1766015798.903878,112
1766015798.90488,108
1766015798.905906,110
1766015798.906945,107
1766015798.9079092,108
1766015798.908916,107
1766015798.909973,107
1766015798.9109251,106
1766015798.9119208,104
1766015798.912936,105
1766015798.9139159,105
1766015798.914916,106
1766015798.91593,104
1766015798.916912,101
1766015798.917922,102
1766015798.919451,100
1766015798.919849,97
1766015798.920927,100
1766015798.921996,103
1766015798.922941,110
1766015798.9239838,111
1766015798.924999,118
1766015798.925994,119
1766015798.926995,118
1766015798.928014,118
1766015798.928994,117
1766015798.930034,117
1766015798.930975,113
1766015798.932012,111
1766015798.933022,111
1766015798.934013,114
1766015798.9349718,113
1766015798.93597,111
1766015798.936979,112
1766015798.938036,107
1766015798.939039,108
1766015798.9400399,106
1766015798.940983,105
1766015798.9420311,106
1766015798.943063,105
1766015798.9440372,102
1766015798.9450681,101
1766015798.946042,101
1766015798.947011,100
1766015798.948013,101
1766015798.9490318,105
1766015798.950051,109
1766015798.951062,110
1766015798.952081,106
1766015798.953027,111
1766015798.954037,110
1766015798.955082,109
1766015798.956073,104
1766015798.957042,108
1766015798.958078,106
1766015798.959084,102
1766015798.96008,103
1766015798.9610581,102
1766015798.9620962,102
1766015798.963066,103
1766015798.964092,100
1766015798.965019,98
1766015798.9660108,96
1766015798.966984,97
1766015798.967996,96
1766015798.968992,94
1766015798.970023,93
1766015798.971039,92
1766015798.9720361,92
1766015798.973023,90
1766015798.974028,89
1766015798.97504,91
1766015798.9760482,93
1766015798.977052,91
1766015798.978045,94
1766015798.979059,97
1766015798.980045,96
1766015798.981072,98
1766015798.982163,100
1766015798.983055,97
1766015798.984067,94
1766015798.98508,96
1766015798.9860768,94
1766015798.9870842,92
1766015798.988069,95
1766015798.989098,91
1766015798.990083,91
1766015798.991085,91
1766015798.992088,90
1766015798.993093,87
1766015798.99409,91
1766015798.995094,87
1766015798.996106,88
1766015798.9971058,87
1766015798.998097,89
1766015798.999119,86
1766015799.000118,89
1766015799.0011141,88
1766015799.002126,90
1766015799.003127,88
1766015799.0041258,84
1766015799.005135,89
1766015799.006133,91
1766015799.007133,95
1766015799.0081458,94
1766015799.00914,94
1766015799.010148,93
1766015799.01113,90
1766015799.012144,94
1766015799.013149,90
1766015799.0142348,91
1766015799.015237,92
1766015799.016153,92
1766015799.0172338,89
1766015799.01824,88
1766015799.019239,83
1766015799.020235,86
1766015799.021239,85
1766015799.022239,86
1766015799.023238,86
1766015799.024235,84
1766015799.025244,86
1766015799.02624,84
1766015799.0272388,82
1766015799.028237,86
1766015799.0292501,86
1766015799.0302432,82
1766015799.0312488,84
1766015799.032244,83
1766015799.033236,83
1766015799.034236,83
1766015799.035233,82
1766015799.036233,81
1766015799.037236,81
1766015799.038229,79
1766015799.0392299,79
1766015799.040231,78
1766015799.0412412,76
1766015799.042232,80
1766015799.0432498,78
1766015799.044238,74
1766015799.045237,76
1766015799.0462542,77
1766015799.04724,73
1766015799.0482402,78
1766015799.0492501,78
1766015799.050252,75
1766015799.05126,74
1766015799.052276,74
1766015799.053272,71
1766015799.054274,70
1766015799.0552802,71
1766015799.056277,71
1766015799.057278,72
1766015799.058274,69
1766015799.059277,70
1766015799.060273,69
1766015799.061294,68
1766015799.062311,70
1766015799.0632892,68
1766015799.06429,68
1766015799.0652952,67
1766015799.0662951,68
1766015799.0673091,67
1766015799.06831,69
1766015799.069321,70
1766015799.0703208,70
1766015799.071313,72
1766015799.0723221,74
1766015799.0733309,76
1766015799.074315,82
1766015799.075316,84
1766015799.076319,81
1766015799.077322,81
1766015799.078331,83
1766015799.079343,85
1766015799.0803552,87
1766015799.081347,83
1766015799.082346,82
1766015799.083355,86
1766015799.084346,84
1766015799.0853481,82
1766015799.086345,84
1766015799.087342,79
1766015799.088358,81
1766015799.0893571,79
1766015799.0903602,77
1766015799.09136,78
1766015799.092364,77
1766015799.093386,78
1766015799.094385,75
1766015799.0953841,72
1766015799.0963998,77
1766015799.097383,76
1766015799.0984051,77
1766015799.099401,77
1766015799.100409,73
1766015799.1013892,71
1766015799.102415,72
1766015799.103416,70
1766015799.104411,71
1766015799.105427,70
1766015799.1064372,68
1766015799.107441,71
1766015799.108437,73
1766015799.1094542,74
1766015799.11044,73
1766015799.1114602,76
1766015799.112446,75
1766015799.113416,77
1766015799.1144252,77
1766015799.115425,78
1766015799.116441,74
1766015799.117435,74
1766015799.118434,75
1766015799.1194282,75
1766015799.120438,73
1766015799.12143,71
1766015799.1224692,71
1766015799.123457,75
1766015799.1244311,71
1766015799.12544,71
1766015799.1264482,69
1766015799.127456,71
1766015799.128452,69
1766015799.129475,66
1766015799.130464,66
1766015799.131478,64
1766015799.1325161,67
1766015799.133492,66
1766015799.134485,65
1766015799.135467,70
1766015799.136488,74
1766015799.137503,78
1766015799.1385112,74
1766015799.139481,71
1766015799.1404889,74
1766015799.1415098,70
1766015799.1425102,74
1766015799.1436002,77
1766015799.144521,76
1766015799.1455,72
1766015799.146507,76
1766015799.147518,70
1766015799.148509,74
1766015799.149515,72
1766015799.1505039,71
1766015799.1515021,73
1766015799.152506,73
1766015799.153526,72
1766015799.154498,75
1766015799.1555068,76
1766015799.156501,73
1766015799.157506,73
1766015799.158498,72
1766015799.159512,72
1766015799.160512,72
1766015799.161514,77
1766015799.162517,77
1766015799.163511,84
1766015799.1645288,82
1766015799.165524,85
1766015799.166562,85
1766015799.167543,88
1766015799.168536,90
1766015799.169535,92
1766015799.1705542,94
1766015799.171529,92
1766015799.172557,96
1766015799.1735628,92
1766015799.1746109,91
1766015799.1756,92
1766015799.1765928,89
1766015799.177587,90
1766015799.178601,88
1766015799.179614,86
1766015799.1806028,86
1766015799.181615,86
1766015799.182615,85
1766015799.183611,83
1766015799.184622,83
1766015799.1856399,82
1766015799.1866298,83
1766015799.187638,84
1766015799.1886358,83
1766015799.189631,82
1766015799.190634,80
1766015799.1916292,79
1766015799.192652,81
1766015799.19364,80
1766015799.194645,80
1766015799.195648,80
1766015799.196643,78
1766015799.197647,83
1766015799.198648,82
1766015799.199668,81
1766015799.200671,83
1766015799.201656,82
1766015799.2026508,83
1766015799.203656,79
1766015799.204669,82
1766015799.205678,79
1766015799.20668,80
1766015799.207686,79
1766015799.20868,79
1766015799.20969,77
1766015799.2107,77
1766015799.211705,81
1766015799.2127,75
1766015799.213716,76
1766015799.214723,74
1766015799.2157068,70
1766015799.2167099,71
1766015799.217723,69
1766015799.218733,71
1766015799.219726,68
1766015799.2207282,72
1766015799.22173,69
1766015799.222729,70
1766015799.223743,73
1766015799.2247171,71
1766015799.225739,70
1766015799.226735,69
1766015799.227732,71
1766015799.2287328,71
1766015799.229735,68
1766015799.230732,69
1766015799.231746,71
1766015799.232749,68
1766015799.233759,67
1766015799.23476,64
1766015799.2357519,65
1766015799.2367601,67
1766015799.2377658,65
1766015799.2387578,63
1766015799.239763,66
1766015799.2407591,63
1766015799.241766,68
1766015799.242775,68
1766015799.243776,70
1766015799.2447832,72
1766015799.245764,74
1766015799.246794,70
1766015799.247793,75
1766015799.248779,73
1766015799.2497852,74
1766015799.250794,77
1766015799.251786,76
1766015799.252801,76
1766015799.2538,76
1766015799.254804,76
1766015799.255806,74
1766015799.2568011,75
1766015799.257812,76
1766015799.258828,75
1766015799.259817,75
1766015799.2608252,73
1766015799.261832,72
1766015799.2628329,74
1766015799.26384,71
1766015799.264866,68
1766015799.265842,71
1766015799.2668312,69
1766015799.267831,69
1766015799.2688582,68
1766015799.269854,68
1766015799.270853,68
1766015799.27184,64
1766015799.272871,69
1766015799.2738612,68
1766015799.2748458,70
1766015799.2758558,73
1766015799.276858,74
1766015799.277866,74
1766015799.2788632,74
1766015799.2798772,76
1766015799.280877,76
1766015799.281882,74
1766015799.2828832,77
1766015799.283884,77
1766015799.284899,73
1766015799.2858949,73
1766015799.286897,76
1766015799.2878919,76
1766015799.288896,75
1766015799.289906,74
1766015799.290896,70
1766015799.291902,72
1766015799.292918,70
1766015799.293906,69
1766015799.294912,71
1766015799.2959108,69
1766015799.296911,71
1766015799.297904,71
1766015799.2989178,73
1766015799.2999308,74
