timestamp,emg_value
1766015804.2965,90
1766015804.296522,93
1766015804.296538,95
1766015804.296554,98
1766015804.296569,95
1766015804.2965848,95
1766015804.296601,97
1766015804.296617,97
1766015804.296633,97
1766015804.296648,95
1766015804.296664,98
1766015804.296681,97
1766015804.296696,97
1766015804.296712,97
1766015804.296727,95
1766015804.296742,95
1766015804.296757,92
1766015804.296774,90
1766015804.2967901,90
1766015804.2968051,92
1766015804.29682,90
1766015804.2968361,90
1766015804.2968519,93
1766015804.2968671,95
1766015804.296886,100
1766015804.296905,100
1766015804.2969248,100
1766015804.2969432,102
1766015804.296962,100
1766015804.2969768,98
1766015804.297024,98
1766015804.297088,100
1766015804.297128,96
1766015804.2971451,97
1766015804.29716,98
1766015804.2971761,96
1766015804.297191,98
1766015804.297206,98
1766015804.2972212,97
1766015804.297237,96
1766015804.2972522,99
1766015804.297268,94
1766015804.297309,95
1766015804.2973282,92
1766015804.297344,92
1766015804.297359,91
1766015804.297374,91
1766015804.297389,90
1766015804.297411,91
1766015804.297428,88
1766015804.2974458,89
1766015804.297462,88
1766015804.297478,86
1766015804.297494,83
1766015804.2975092,86
1766015804.297524,88
1766015804.297539,89
1766015804.297554,88
1766015804.297569,87
1766015804.297584,88
1766015804.2976,84
1766015804.2976158,84
1766015804.2976341,84
1766015804.297653,88
1766015804.297666,87
1766015804.297683,84
1766015804.297696,83
1766015804.297708,82
1766015804.2977211,81
1766015804.2977338,81
1766015804.297747,82
1766015804.29776,83
1766015804.2977731,85
1766015804.297786,86
1766015804.2977998,84
1766015804.297813,85
1766015804.297826,84
1766015804.297843,85
1766015804.297857,80
1766015804.2978702,80
1766015804.2978828,82
1766015804.297896,79
1766015804.297909,82
1766015804.297923,81
1766015804.297936,79
1766015804.2979488,78
1766015804.297962,80
1766015804.297975,81
1766015804.2979882,79
1766015804.2980008,76
1766015804.298014,80
1766015804.298027,83
1766015804.2980402,80
1766015804.298055,84
1766015804.2980711,83
1766015804.2980878,84
1766015804.298101,83
1766015804.298113,84
1766015804.2981272,85
1766015804.2981398,82
1766015804.2981608,82
1766015804.2981749,84
1766015804.298197,80
1766015804.298211,84
1766015804.298225,79
1766015804.298238,80
1766015804.2982578,79
1766015804.2982788,81
1766015804.2982998,78
1766015804.2983198,78
1766015804.298333,76
1766015804.298346,73
1766015804.2983592,75
1766015804.298372,77
1766015804.298385,75
1766015804.298399,74
1766015804.2984169,73
1766015804.29843,72
1766015804.298443,72
1766015804.298456,75
1766015804.298469,73
1766015804.298481,73
1766015804.2984939,71
1766015804.298507,76
1766015804.29852,76
1766015804.298532,73
1766015804.298547,71
1766015804.298561,74
1766015804.2985752,69
1766015804.298592,70
1766015804.298604,69
1766015804.2986171,69
1766015804.29863,66
1766015804.2986429,69
1766015804.298655,71
1766015804.2986681,68
1766015804.298692,66
1766015804.2987049,72
1766015804.298717,69
1766015804.29873,65
1766015804.2987452,64
1766015804.298757,66
1766015804.29877,65
1766015804.298783,64
1766015804.298796,63
1766015804.298816,65
1766015804.298829,66
1766015804.2988422,61
1766015804.298856,63
1766015804.298869,63
1766015804.298882,65
1766015804.2988951,62
1766015804.298908,67
1766015804.298933,66
1766015804.298954,76
1766015804.2989671,73
1766015804.2989812,75
1766015804.2989938,74
1766015804.299011,72
1766015804.2990239,78
1766015804.299039,83
1766015804.299053,83
1766015804.299065,90
1766015804.299078,87
1766015804.2990909,89
1766015804.299103,88
1766015804.2991161,88
1766015804.2991412,89
1766015804.2991538,85
1766015804.299175,87
1766015804.299188,86
1766015804.299208,87
1766015804.299221,87
1766015804.2992342,88
1766015804.299247,86
1766015804.2992609,90
1766015804.299274,90
1766015804.299295,91
1766015804.299307,91
1766015804.29932,89
1766015804.299333,89
1766015804.2993448,90
1766015804.299358,92
1766015804.299383,93
1766015804.299395,91
1766015804.2994208,92
1766015804.299434,89
1766015804.299447,89
1766015804.299459,86
1766015804.2994719,85
1766015804.299486,86
1766015804.299499,87
1766015804.299513,85
1766015804.299527,84
1766015804.2995389,80
1766015804.299552,81
1766015804.299565,81
1766015804.2995782,80
1766015804.2995908,80
1766015804.299605,79
1766015804.299618,79
1766015804.299632,79
1766015804.299645,79
1766015804.299666,79
1766015804.299679,76
1766015804.299691,77
1766015804.299704,78
1766015804.299718,80
1766015804.299731,79
1766015804.299743,78
1766015804.299756,79
1766015804.2997692,78
1766015804.299781,78
1766015804.299794,72
1766015804.2998168,74
1766015804.299829,78
1766015804.2998421,73
1766015804.299857,73
1766015804.2998688,72
1766015804.299882,72
1766015804.299895,73
1766015804.2999082,73
1766015804.299934,71
1766015804.299946,70
1766015804.2999601,72
1766015804.299975,72
1766015804.299988,70
1766015804.300001,67
1766015804.300013,67
1766015804.3000262,64
1766015804.3000388,66
1766015804.300052,67
1766015804.300064,65
1766015804.3000908,70
1766015804.300104,64
1766015804.300116,62
1766015804.300129,60
1766015804.300142,64
1766015804.300155,62
1766015804.3001668,61
1766015804.30018,63
1766015804.3002062,65
1766015804.3002188,67
1766015804.300232,66
1766015804.3002439,69
1766015804.300257,67
1766015804.30027,67
1766015804.30029,67
1766015804.3003032,66
1766015804.3003168,67
1766015804.30033,65
1766015804.3003452,65
1766015804.300357,66
1766015804.30037,64
1766015804.300383,64
1766015804.3003972,65
1766015804.30041,62
1766015804.30043,64
1766015804.300447,63
1766015804.300461,65
1766015804.3004742,69
1766015804.3004858,65
1766015804.300499,65
1766015804.300512,67
1766015804.3005261,63
1766015804.3005419,69
1766015804.300554,67
1766015804.3005672,69
1766015804.30058,70
1766015804.300593,69
1766015804.300606,66
1766015804.300618,67
1766015804.300631,64
1766015804.3006568,65
1766015804.30067,62
1766015804.300682,64
1766015804.300695,63
1766015804.300708,65
1766015804.300721,63
1766015804.3007412,61
1766015804.3007538,60
1766015804.3007748,60
1766015804.300787,62
1766015804.300808,60
1766015804.300821,59
1766015804.300833,61
1766015804.300846,58
1766015804.300867,59
1766015804.300879,58
1766015804.3009,58
1766015804.3009138,59
1766015804.300928,62
1766015804.300941,56
1766015804.3009548,60
1766015804.300968,57
1766015804.300989,60
1766015804.301001,56
1766015804.301022,57
1766015804.301035,58
1766015804.301048,58
1766015804.3010612,54
1766015804.301074,59
1766015804.301087,59
1766015804.301107,55
1766015804.30112,55
1766015804.301135,56
1766015804.301158,54
1766015804.3011782,55
1766015804.3011909,59
1766015804.3012118,58
1766015804.301224,59
1766015804.301245,62
1766015804.301258,61
1766015804.3012779,63
1766015804.301301,66
1766015804.3013241,65
1766015804.3013382,66
1766015804.301352,67
1766015804.301366,65
1766015804.301381,67
1766015804.301394,66
1766015804.3014138,68
1766015804.301427,63
1766015804.3014421,64
1766015804.301455,67
1766015804.301467,67
1766015804.30148,67
1766015804.301493,70
1766015804.301506,68
1766015804.3015199,67
1766015804.301534,69
1766015804.301547,69
1766015804.3015602,69
1766015804.301573,68
1766015804.301585,70
1766015804.3015978,71
1766015804.301611,71
1766015804.301624,73
1766015804.301636,72
1766015804.3016489,69
1766015804.301662,68
1766015804.301675,67
1766015804.301687,70
1766015804.3017,69
1766015804.301724,68
1766015804.301739,69
1766015804.30176,66
1766015804.301773,72
1766015804.301787,69
1766015804.3018,69
1766015804.301821,71
1766015804.301833,70
1766015804.3018482,70
1766015804.3018801,66
1766015804.301894,69
1766015804.301915,69
1766015804.30193,68
1766015804.301943,68
1766015804.3019571,66
1766015804.301971,67
1766015804.301985,67
1766015804.302006,68
1766015804.302026,67
1766015804.3020391,62
1766015804.3020532,65
1766015804.3020658,65
1766015804.302079,63
1766015804.302092,61
1766015804.302104,65
1766015804.3021178,67
1766015804.302131,68
1766015804.302144,66
1766015804.3021572,64
1766015804.30217,68
1766015804.302182,66
1766015804.3021948,68
1766015804.302208,65
1766015804.3022342,68
1766015804.3022468,64
1766015804.302259,67
1766015804.30228,67
1766015804.302293,66
1766015804.302314,65
1766015804.302334,66
1766015804.3023481,64
1766015804.302369,67
1766015804.302389,63
1766015804.302407,66
1766015804.302423,62
1766015804.302437,62
1766015804.30245,61
1766015804.302465,62
1766015804.3024771,61
1766015804.302491,61
1766015804.3025038,58
1766015804.3025181,60
1766015804.302531,59
1766015804.3025439,64
1766015804.302557,61
1766015804.302569,63
1766015804.302582,62
1766015804.302603,63
1766015804.3026161,63
1766015804.3026292,65
1766015804.3026419,65
1766015804.302655,64
1766015804.302667,65
1766015804.30268,64
1766015804.3026931,65
1766015804.302714,66
1766015804.3027258,68
1766015804.3027468,67
1766015804.30276,74
1766015804.302772,67
1766015804.302785,72
1766015804.302798,68
1766015804.302811,72
1766015804.3028321,70
1766015804.302845,66
1766015804.3028579,68
1766015804.302871,66
1766015804.302887,68
1766015804.302902,67
1766015804.3029141,67
1766015804.302932,66
1766015804.3029451,65
1766015804.302958,65
1766015804.3029702,63
1766015804.3029828,63
1766015804.302996,63
1766015804.303009,66
1766015804.3030221,67
1766015804.3030348,66
1766015804.303048,61
1766015804.30306,62
1766015804.303073,61
1766015804.303086,64
1766015804.303099,63
1766015804.303112,63
1766015804.303126,61
1766015804.303139,61
1766015804.3031528,62
1766015804.3031669,61
1766015804.3031812,63
1766015804.303194,59
1766015804.303207,61
1766015804.3032188,62
1766015804.303233,61
1766015804.303246,61
1766015804.303259,58
1766015804.303272,61
1766015804.303284,60
1766015804.303297,62
1766015804.3033128,62
1766015804.303326,61
1766015804.303339,61
1766015804.303352,58
1766015804.303369,63
1766015804.303383,61
1766015804.3033988,58
1766015804.303412,62
1766015804.303427,58
1766015804.3034408,61
1766015804.303457,60
1766015804.303471,56
1766015804.303484,60
1766015804.303497,60
1766015804.30351,57
1766015804.303526,58
1766015804.303541,57
1766015804.3035562,55
1766015804.3035688,59
1766015804.303582,59
1766015804.303595,55
1766015804.3036082,56
1766015804.303621,53
1766015804.303634,55
1766015804.303647,54
1766015804.30366,56
1766015804.303673,57
1766015804.303686,56
1766015804.303699,57
1766015804.303713,58
1766015804.3037262,59
1766015804.3037388,55
1766015804.303752,57
1766015804.303796,53
1766015804.303811,57
1766015804.303825,59
1766015804.303839,56
1766015804.303852,54
1766015804.3038652,56
1766015804.303879,51
1766015804.303892,57
1766015804.303905,56
1766015804.3039181,54
1766015804.303932,54
1766015804.303945,55
1766015804.303958,51
1766015804.303971,52
1766015804.3039842,54
1766015804.303997,54
1766015804.30401,52
1766015804.304024,52
1766015804.304037,53
1766015804.30405,50
1766015804.304063,52
1766015804.304076,49
1766015804.304089,49
1766015804.304103,51
1766015804.304116,51
1766015804.3041291,51
1766015804.304142,50
1766015804.3041558,50
1766015804.304169,51
1766015804.304184,50
1766015804.304197,52
1766015804.30421,50
1766015804.304229,50
1766015804.304242,51
1766015804.304256,49
1766015804.304272,53
1766015804.3042848,53
1766015804.304299,53
1766015804.304312,53
1766015804.304325,49
1766015804.304338,47
1766015804.304351,50
1766015804.304364,51
1766015804.304377,52
1766015804.30439,51
1766015804.304404,48
1766015804.3044171,51
1766015804.3044322,49
1766015804.304445,47
1766015804.304458,49
1766015804.304472,53
1766015804.304485,53
1766015804.304498,54
1766015804.304511,54
1766015804.304524,52
1766015804.304537,55
1766015804.30455,52
1766015804.304563,51
1766015804.304576,52
1766015804.30459,55
1766015804.3046029,54
1766015804.304616,53
1766015804.304629,53
1766015804.304642,55
1766015804.304655,54
1766015804.304673,54
1766015804.304686,54
1766015804.304699,53
1766015804.3047118,56
1766015804.304725,56
1766015804.304738,53
1766015804.3047512,51
1766015804.3047638,54
1766015804.304777,53
1766015804.30479,53
1766015804.3048031,56
1766015804.304817,55
1766015804.3048298,51
1766015804.304843,54
1766015804.304856,56
1766015804.3048692,51
1766015804.3048818,54
1766015804.304895,52
1766015804.304908,53
1766015804.3049212,55
1766015804.3049338,48
1766015804.304947,50
1766015804.30496,54
1766015804.3049731,51
1766015804.304986,48
1766015804.3049989,52
1766015804.305013,56
1766015804.305026,54
1766015804.3050392,53
1766015804.3050518,53
1766015804.305065,54
1766015804.305078,55
1766015804.305093,53
1766015804.305108,54
1766015804.3051221,51
1766015804.305135,54
1766015804.305148,55
1766015804.305161,56
1766015804.305174,61
1766015804.305187,60
1766015804.3052,60
1766015804.305213,62
1766015804.305228,64
1766015804.305242,63
1766015804.305255,62
1766015804.305268,67
1766015804.305281,65
1766015804.305294,68
1766015804.305307,66
1766015804.305321,71
1766015804.305334,70
1766015804.3053482,69
1766015804.3053608,67
1766015804.305373,65
1766015804.305387,66
1766015804.3054001,64
1766015804.305413,66
1766015804.305426,66
1766015804.3054411,64
1766015804.3054552,64
1766015804.3054678,64
1766015804.305481,62
1766015804.305494,62
1766015804.3055072,61
1766015804.305521,62
1766015804.305536,64
1766015804.305551,60
1766015804.305563,64
1766015804.305575,61
1766015804.3055859,63
1766015804.305598,60
1766015804.305609,58
1766015804.305621,60
1766015804.305632,59
1766015804.305644,60
1766015804.305655,62
1766015804.3056672,62
1766015804.3056781,58
1766015804.305689,59
1766015804.305701,59
1766015804.3057122,59
1766015804.305724,59
1766015804.3057358,56
1766015804.305747,56
1766015804.305758,56
1766015804.30577,57
1766015804.305781,59
1766015804.305793,58
1766015804.305804,57
1766015804.305815,63
1766015804.3058271,58
1766015804.305839,61
1766015804.30585,61
1766015804.3058612,59
1766015804.305873,65
1766015804.305884,65
1766015804.3058949,65
1766015804.305909,62
1766015804.305923,65
1766015804.3059351,61
1766015804.3059468,63
1766015804.3059578,57
1766015804.305969,64
1766015804.305981,64
1766015804.305992,61
1766015804.306004,64
1766015804.306016,62
1766015804.306029,57
1766015804.30604,61
1766015804.306051,60
1766015804.3060632,58
1766015804.3060749,56
1766015804.3060858,58
1766015804.3060968,57
1766015804.306109,59
1766015804.306124,57
1766015804.3061361,57
1766015804.306147,56
1766015804.306158,55
1766015804.3061702,53
1766015804.3061812,52
1766015804.3061929,57
1766015804.306205,51
1766015804.306217,52
1766015804.306228,53
1766015804.306239,53
1766015804.306251,53
1766015804.306262,53
1766015804.306274,55
1766015804.3062851,56
1766015804.3063,54
1766015804.306317,50
1766015804.306329,53
1766015804.3063412,52
1766015804.3063521,51
1766015804.3063629,51
1766015804.306375,51
1766015804.306386,48
1766015804.306398,50
1766015804.306409,51
1766015804.3064198,51
1766015804.306432,48
1766015804.3064451,51
1766015804.306457,52
1766015804.306468,47
1766015804.3064792,50
1766015804.306491,48
1766015804.3065028,49
1766015804.306516,49
1766015804.306527,46
1766015804.306539,45
1766015804.30655,44
1766015804.306562,46
1766015804.3065732,46
1766015804.306585,46
1766015804.306596,47
1766015804.3066082,47
1766015804.306619,45
1766015804.30663,45
1766015804.3066409,44
1766015804.306653,43
1766015804.306664,44
1766015804.306677,46
1766015804.3066921,41
1766015804.306705,43
1766015804.306716,40
1766015804.306728,40
1766015804.3067389,43
1766015804.30675,45
1766015804.306761,41
1766015804.306773,43
1766015804.306784,41
1766015804.306796,39
1766015804.306807,42
1766015804.306818,42
1766015804.306829,40
1766015804.3068411,41
1766015804.306852,39
1766015804.306864,41
1766015804.306875,39
1766015804.306887,42
1766015804.3068979,41
1766015804.30691,39
1766015804.306921,41
1766015804.306932,39
1766015804.306944,37
1766015804.306956,37
1766015804.306967,40
1766015804.306978,40
1766015804.3069901,37
1766015804.307001,40
1766015804.307012,38
1766015804.3070238,36
1766015804.307035,38
1766015804.307046,39
1766015804.307061,36
1766015804.307075,38
1766015804.307086,40
1766015804.3070982,36
1766015804.307109,39
1766015804.30712,39
1766015804.3071308,35
1766015804.307143,34
1766015804.307154,39
1766015804.307165,35
1766015804.307177,37
1766015804.307188,36
1766015804.307199,35
1766015804.307211,35
1766015804.3072221,38
1766015804.307234,40
1766015804.307246,35
1766015804.3072572,35
1766015804.3072681,36
1766015804.3072798,33
1766015804.3072908,35
1766015804.307303,34
1766015804.307314,33
1766015804.3073258,37
1766015804.307337,36
1766015804.307348,34
1766015804.30736,34
1766015804.307371,32
1766015804.307383,34
1766015804.307394,32
1766015804.307405,33
1766015804.3074172,35
1766015804.307429,33
1766015804.307443,36
1766015804.307455,36
1766015804.307466,33
1766015804.3074791,35
1766015804.30749,36
1766015804.307501,31
1766015804.307513,34
1766015804.3075242,33
1766015804.3075352,36
1766015804.3075461,31
1766015804.3075578,34
1766015804.3075688,33
1766015804.30758,33
1766015804.307591,34
1766015804.307603,35
1766015804.3076138,35
1766015804.307625,38
1766015804.307636,36
1766015804.307648,41
1766015804.307659,40
1766015804.30767,37
1766015804.307681,38
1766015804.307693,38
1766015804.307704,40
1766015804.3077152,38
1766015804.3077261,35
1766015804.307738,39
1766015804.307749,37
1766015804.3077602,40
1766015804.307771,36
1766015804.307783,37
1766015804.3077939,36
1766015804.307808,37
1766015804.307822,37
1766015804.3078341,36
1766015804.307845,35
1766015804.3078558,37
1766015804.307868,39
1766015804.307879,34
1766015804.30789,36
1766015804.3079019,37
1766015804.307913,39
1766015804.307924,38
1766015804.307936,35
1766015804.307947,33
1766015804.3079581,32
1766015804.307969,38
1766015804.307981,35
1766015804.307992,36
1766015804.3080032,37
1766015804.308015,38
1766015804.308026,36
1766015804.308037,39
1766015804.308049,38
1766015804.30806,36
1766015804.308071,31
1766015804.308083,34
1766015804.308094,35
1766015804.308105,32
1766015804.308116,35
1766015804.308128,35
1766015804.308139,33
1766015804.308151,34
1766015804.308162,35
1766015804.3081741,35
1766015804.308188,33
1766015804.3082,37
1766015804.3082108,34
1766015804.308225,36
1766015804.308237,37
1766015804.308249,35
1766015804.3082602,33
1766015804.3082712,37
1766015804.3082821,37
1766015804.3082938,38
1766015804.3083048,37
1766015804.308316,36
1766015804.308327,35
1766015804.30834,35
1766015804.308351,34
1766015804.308362,37
1766015804.308373,32
1766015804.3083851,37
1766015804.308397,33
1766015804.308408,38
1766015804.308419,35
1766015804.3084311,39
1766015804.308442,36
1766015804.3084538,39
1766015804.308467,40
1766015804.30848,35
1766015804.308491,37
1766015804.308502,34
1766015804.308514,41
1766015804.308525,38
1766015804.308537,37
1766015804.3085482,32
1766015804.3085618,37
1766015804.308576,40
1766015804.308587,38
1766015804.308599,36
1766015804.30861,35
1766015804.3086212,37
1766015804.308633,34
1766015804.308644,35
1766015804.308655,34
1766015804.308667,35
1766015804.308678,37
1766015804.3086889,36
1766015804.3086998,36
1766015804.308712,35
1766015804.308723,37
1766015804.308735,35
1766015804.308746,38
1766015804.308757,36
1766015804.308769,36
1766015804.30878,37
1766015804.308791,36
1766015804.308803,36
1766015804.308814,38
1766015804.308825,35
1766015804.308836,37
1766015804.3088481,39
1766015804.3088589,40
1766015804.3088698,37
1766015804.3088808,36
1766015804.308893,37
1766015804.308904,34
1766015804.3089159,36
1766015804.308928,33
1766015804.308943,32
1766015804.308955,34
1766015804.308966,32
1766015804.3089778,33
1766015804.3089888,35
1766015804.309,34
1766015804.309012,36
1766015804.309023,37
1766015804.3090339,34
1766015804.309045,37
1766015804.309056,37
1766015804.309068,33
1766015804.309079,33
1766015804.3090901,38
1766015804.309101,38
1766015804.309113,33
1766015804.309124,36
1766015804.3091352,33
1766015804.3091462,36
1766015804.3091578,33
1766015804.3091688,36
1766015804.30918,35
1766015804.309191,32
1766015804.309203,35
1766015804.309215,33
1766015804.309226,35
1766015804.309237,33
1766015804.309249,33
1766015804.3092601,33
1766015804.309271,34
1766015804.309283,33
1766015804.309294,31
1766015804.309309,32
1766015804.309323,37
1766015804.309334,34
1766015804.309346,32
1766015804.3093572,34
1766015804.3093681,31
1766015804.309379,32
1766015804.309391,32
1766015804.3094022,32
1766015804.3094132,33
1766015804.3094249,29
1766015804.309438,29
1766015804.30945,32
1766015804.3094609,31
1766015804.309473,31
1766015804.309484,34
1766015804.309495,31
1766015804.309505,31
1766015804.309515,30
1766015804.3095272,31
1766015804.309539,30
1766015804.309549,29
1766015804.309559,32
1766015804.3095691,29
1766015804.309579,28
1766015804.309589,27
1766015804.309599,30
1766015804.30961,29
1766015804.309619,27
1766015804.30963,27
1766015804.309641,31
1766015804.309651,31
1766015804.309663,28
1766015804.309676,28
1766015804.309688,28
1766015804.309698,29
1766015804.309708,32
1766015804.3097181,26
1766015804.309728,28
1766015804.309738,29
1766015804.309748,27
1766015804.309758,27
1766015804.309768,29
1766015804.309778,26
1766015804.309788,27
1766015804.309798,25
1766015804.309808,29
1766015804.309819,30
1766015804.309828,26
1766015804.309838,29
1766015804.309848,27
1766015804.309858,29
1766015804.309868,29
1766015804.309878,26
1766015804.309888,26
1766015804.309898,30
1766015804.309908,29
1766015804.309918,26
1766015804.309928,27
1766015804.309939,27
1766015804.309948,29
1766015804.309958,29
1766015804.3099678,29
1766015804.309978,26
1766015804.309988,27
1766015804.310001,26
1766015804.3100128,27
1766015804.310024,28
1766015804.3100328,27
1766015804.3100429,25
1766015804.310053,25
1766015804.3100631,29
1766015804.3100731,26
1766015804.3100832,29
1766015804.3100932,26
1766015804.3101041,25
1766015804.3101141,27
1766015804.310124,23
1766015804.310134,27
1766015804.310144,25
1766015804.310154,27
1766015804.310164,27
1766015804.310174,28
1766015804.310184,28
1766015804.310194,32
1766015804.310206,30
1766015804.310216,32
1766015804.310227,28
1766015804.310237,33
1766015804.310248,32
1766015804.310258,30
1766015804.31027,32
1766015804.3102798,30
1766015804.3102899,34
1766015804.3102999,34
1766015804.3103108,31
1766015804.3103209,34
1766015804.3103318,30
1766015804.310344,33
1766015804.310357,32
1766015804.310368,34
1766015804.310378,30
1766015804.3103878,29
1766015804.3103979,33
1766015804.3104079,31
1766015804.310418,32
1766015804.310428,36
1766015804.3104389,28
1766015804.310449,32
1766015804.310461,34
1766015804.310473,31
1766015804.310484,31
1766015804.310494,31
1766015804.310504,33
1766015804.310514,31
1766015804.310525,29
1766015804.310535,32
1766015804.310545,33
1766015804.310555,30
1766015804.3105652,30
1766015804.310575,31
1766015804.310585,30
1766015804.310595,32
1766015804.310606,29
1766015804.310616,32
1766015804.310626,32
1766015804.310636,32
1766015804.310647,30
1766015804.310657,31
1766015804.310667,29
1766015804.3106802,31
1766015804.310693,32
1766015804.310703,30
1766015804.310713,32
1766015804.310723,30
1766015804.310733,31
1766015804.310743,29
1766015804.310754,29
1766015804.310764,30
1766015804.310774,29
1766015804.310784,29
1766015804.3107939,32
1766015804.310804,30
1766015804.310814,30
1766015804.310824,31
1766015804.310834,32
1766015804.310844,33
1766015804.310854,30
1766015804.310865,29
1766015804.310875,33
1766015804.3108852,32
1766015804.310903,34
1766015804.310913,31
1766015804.310925,29
1766015804.310935,34
1766015804.310946,31
1766015804.310956,30
1766015804.310969,32
1766015804.3109791,33
1766015804.310991,28
1766015804.311002,33
1766015804.311012,32
1766015804.311023,31
1766015804.311035,30
1766015804.3110468,28
1766015804.3110569,29
1766015804.3110669,29
1766015804.311077,33
1766015804.3110871,30
1766015804.3110971,27
1766015804.3111072,31
1766015804.3111172,27
1766015804.311127,31
1766015804.311137,33
1766015804.311147,30
1766015804.311157,30
1766015804.311167,27
1766015804.311177,30
1766015804.311187,32
1766015804.311197,32
1766015804.3112068,31
1766015804.3112168,31
1766015804.3112268,32
1766015804.311237,29
1766015804.311247,30
1766015804.311258,30
1766015804.3112671,33
1766015804.311278,30
1766015804.311288,29
1766015804.3112981,33
1766015804.3113081,30
1766015804.311319,31
1766015804.311328,29
1766015804.311339,32
1766015804.311349,35
1766015804.311361,31
1766015804.311373,30
1766015804.311384,32
1766015804.311394,33
1766015804.311404,30
1766015804.311414,31
1766015804.31151,31
1766015804.311529,33
1766015804.311543,33
1766015804.311556,31
1766015804.3115678,34
1766015804.311581,31
1766015804.311594,32
1766015804.3116071,36
1766015804.31162,35
1766015804.311632,33
1766015804.311646,36
1766015804.311659,33
1766015804.311671,35
1766015804.3116841,33
1766015804.311697,36
1766015804.31171,34
1766015804.311723,36
1766015804.311736,33
1766015804.311748,32
1766015804.311761,36
1766015804.311774,36
1766015804.311787,38
1766015804.311799,36
1766015804.3118122,34
1766015804.3118248,34
1766015804.311838,36
1766015804.311855,30
1766015804.311871,35
1766015804.311884,36
1766015804.311897,32
1766015804.31199,31
1766015804.3120031,35
1766015804.312087,35
1766015804.312154,36
1766015804.312208,33
1766015804.312223,35
1766015804.312236,37
1766015804.3122492,36
1766015804.3122618,35
1766015804.312274,36
1766015804.312288,36
1766015804.3123012,37
1766015804.312314,35
1766015804.312326,33
1766015804.3123388,34
1766015804.312352,35
1766015804.312365,36
1766015804.312377,35
1766015804.3123899,32
1766015804.312403,34
1766015804.312416,33
1766015804.312429,34
1766015804.312441,37
1766015804.312454,34
1766015804.3124669,35
1766015804.31248,34
1766015804.3124921,35
1766015804.312505,34
1766015804.312518,37
1766015804.3125372,36
1766015804.312551,36
1766015804.312564,35
1766015804.3126369,33
1766015804.312656,36
1766015804.31267,38
1766015804.312682,35
1766015804.312695,37
1766015804.3127081,33
1766015804.3127198,36
1766015804.312733,38
1766015804.312761,38
1766015804.312775,38
1766015804.312788,38
1766015804.3128011,37
1766015804.312814,37
1766015804.3128262,36
1766015804.3128388,36
1766015804.312852,36
1766015804.312865,35
1766015804.312877,38
1766015804.31289,39
1766015804.312903,37
1766015804.3129148,39
1766015804.312928,41
1766015804.312941,39
1766015804.312953,42
1766015804.3129659,43
1766015804.312979,37
1766015804.312994,42
1766015804.313011,38
1766015804.313024,41
1766015804.3130372,42
1766015804.3130581,46
1766015804.31307,44
1766015804.313083,48
1766015804.313096,46
1766015804.313109,46
1766015804.313121,45
1766015804.3131342,46
1766015804.313148,47
1766015804.313161,45
1766015804.313174,44
1766015804.3131871,46
1766015804.3132029,44
1766015804.313215,46
1766015804.3132281,44
1766015804.313241,44
1766015804.3132532,42
1766015804.313266,42
1766015804.313278,41
1766015804.313291,43
1766015804.313304,41
1766015804.313317,42
1766015804.31333,46
1766015804.313343,46
1766015804.313356,49
1766015804.313368,48
1766015804.3133812,46
1766015804.3133938,46
1766015804.313406,47
1766015804.31342,45
1766015804.313432,47
1766015804.313445,46
1766015804.313458,49
1766015804.31348,49
1766015804.313496,50
1766015804.31351,49
1766015804.313523,48
1766015804.313536,46
1766015804.313548,47
1766015804.3135612,46
1766015804.3135738,46
1766015804.313586,50
1766015804.3135989,47
1766015804.313612,48
1766015804.313625,46
1766015804.313638,49
1766015804.3136508,46
1766015804.313664,47
1766015804.313676,47
1766015804.313689,45
1766015804.3137019,42
1766015804.313715,47
1766015804.313728,43
1766015804.313741,46
1766015804.3137531,45
1766015804.313766,47
1766015804.3137789,47
1766015804.313792,45
1766015804.3138041,43
1766015804.313817,44
1766015804.31383,44
1766015804.3138418,44
1766015804.313855,45
1766015804.313867,44
1766015804.31388,46
1766015804.313893,45
1766015804.313906,48
1766015804.3139231,48
1766015804.313937,49
1766015804.31395,47
1766015804.313962,47
1766015804.313975,47
1766015804.3139882,45
1766015804.314,49
1766015804.314013,48
1766015804.3140259,48
1766015804.314039,50
1766015804.3140512,53
1766015804.3140638,54
1766015804.314077,53
1766015804.31409,50
1766015804.314102,52
1766015804.314115,51
1766015804.3141272,52
1766015804.3141398,52
1766015804.314153,50
1766015804.314166,52
1766015804.314178,52
1766015804.314191,54
1766015804.314204,55
1766015804.3142169,53
1766015804.314229,56
1766015804.3142421,53
1766015804.314255,53
1766015804.3142679,53
1766015804.314281,55
1766015804.314294,51
1766015804.314307,50
1766015804.3143191,53
1766015804.314332,51
1766015804.314348,54
1766015804.3143628,53
1766015804.3143759,54
1766015804.314388,53
1766015804.314401,54
1766015804.314414,55
1766015804.314427,53
1766015804.3144388,57
1766015804.314452,56
1766015804.314465,57
1766015804.3144782,56
1766015804.31449,58
1766015804.314503,58
1766015804.314516,58
1766015804.314529,59
1766015804.314541,58
1766015804.3145542,55
1766015804.314566,54
1766015804.314579,59
1766015804.314591,53
1766015804.314604,53
1766015804.3146172,54
1766015804.3146298,50
1766015804.314643,56
1766015804.314655,54
1766015804.314668,53
1766015804.314681,52
1766015804.314694,54
1766015804.3147058,57
1766015804.314719,53
1766015804.314732,54
1766015804.3147452,52
1766015804.314757,54
1766015804.3147771,55
1766015804.314792,52
1766015804.314805,50
1766015804.3148181,51
1766015804.314831,54
1766015804.314843,50
1766015804.314856,52
1766015804.314868,53
1766015804.314881,50
1766015804.314894,52
1766015804.3149068,52
1766015804.31492,54
1766015804.314933,50
1766015804.314945,54
1766015804.314958,50
1766015804.314971,53
1766015804.3149838,50
1766015804.314996,52
1766015804.315009,54
1766015804.315022,50
1766015804.3150349,48
1766015804.315048,51
1766015804.31506,48
1766015804.315073,47
1766015804.3150861,47
1766015804.3150988,48
1766015804.315111,48
1766015804.315124,46
1766015804.315136,48
1766015804.315149,47
1766015804.3151622,48
1766015804.3151739,46
1766015804.315187,47
1766015804.315207,49
1766015804.315221,48
1766015804.315233,52
1766015804.315246,48
1766015804.315259,49
1766015804.3152719,48
1766015804.315285,48
1766015804.315298,49
1766015804.3153112,48
1766015804.3153229,50
1766015804.315336,47
1766015804.315349,45
1766015804.315361,50
1766015804.3153741,46
1766015804.3153868,46
1766015804.315398,47
1766015804.315409,49
1766015804.315419,47
1766015804.31543,47
1766015804.315441,46
1766015804.3154628,44
1766015804.315474,45
1766015804.315485,44
1766015804.315496,44
1766015804.315506,45
1766015804.315517,45
1766015804.315528,44
1766015804.315538,45
1766015804.315549,47
1766015804.3155599,46
1766015804.3155708,47
1766015804.3155808,47
1766015804.315592,47
1766015804.3156102,44
1766015804.3156219,43
1766015804.3156328,46
1766015804.3156438,46
1766015804.315655,46
1766015804.315681,42
1766015804.315691,42
1766015804.315702,42
1766015804.315713,43
1766015804.3157241,41
1766015804.315734,45
1766015804.315745,44
1766015804.315756,42
1766015804.315767,43
1766015804.315777,40
1766015804.315788,40
1766015804.315799,48
1766015804.31581,41
1766015804.31582,41
1766015804.315831,41
1766015804.3158422,39
1766015804.315852,40
1766015804.3158631,42
1766015804.315874,41
1766015804.315885,40
1766015804.315895,38
1766015804.315906,40
1766015804.315917,40
1766015804.315928,40
1766015804.315938,39
1766015804.315949,39
1766015804.3159602,38
1766015804.3159711,37
1766015804.315988,41
1766015804.316,38
1766015804.3160121,37
1766015804.316022,40
1766015804.3160331,37
1766015804.316044,37
1766015804.316054,37
1766015804.316065,40
1766015804.316076,37
1766015804.316086,38
1766015804.316097,35
1766015804.316108,38
1766015804.3161201,37
1766015804.3161302,37
1766015804.3161411,36
1766015804.316152,36
1766015804.316162,37
1766015804.316173,38
1766015804.316184,39
1766015804.316195,36
1766015804.316206,39
1766015804.316216,37
1766015804.316227,39
1766015804.3162382,38
1766015804.3162482,37
1766015804.3162591,35
1766015804.31627,34
1766015804.316281,35
1766015804.316291,36
1766015804.316332,39
1766015804.3164039,35
1766015804.316416,40
1766015804.316427,37
1766015804.316438,35
1766015804.3165271,34
1766015804.316565,39
1766015804.3166022,38
1766015804.3166442,37
1766015804.316656,37
1766015804.3166668,35
1766015804.316677,37
1766015804.316687,36
1766015804.316718,37
1766015804.31673,39
1766015804.316749,36
1766015804.316761,37
1766015804.316771,36
1766015804.316782,37
1766015804.3167932,39
1766015804.316847,36
1766015804.3168588,36
1766015804.3169012,37
1766015804.316913,35
1766015804.3169239,35
1766015804.3169339,36
1766015804.3169448,37
1766015804.3169549,36
1766015804.3169658,34
1766015804.3169768,35
1766015804.316988,33
1766015804.316998,39
1766015804.317009,34
1766015804.31702,37
1766015804.31703,36
1766015804.3170402,37
1766015804.317051,37
1766015804.317077,39
1766015804.317089,38
1766015804.317099,36
1766015804.31711,36
1766015804.31712,34
1766015804.317131,36
1766015804.317141,38
1766015804.317152,36
1766015804.317162,37
1766015804.317173,33
1766015804.317183,36
1766015804.317194,35
1766015804.317204,36
1766015804.317215,36
1766015804.317225,34
1766015804.317236,35
1766015804.317246,37
1766015804.317257,35
1766015804.317267,37
1766015804.317287,37
1766015804.317297,34
1766015804.317308,35
1766015804.317319,36
1766015804.317329,34
1766015804.31734,36
1766015804.31735,36
1766015804.3173609,35
1766015804.317371,33
1766015804.3173819,32
1766015804.3173919,32
1766015804.3174028,36
1766015804.317413,36
1766015804.317424,33
1766015804.317438,32
1766015804.317452,34
1766015804.317463,32
1766015804.317473,32
1766015804.3174841,33
1766015804.317494,36
1766015804.3175051,33
1766015804.317515,33
1766015804.317526,33
1766015804.317536,31
1766015804.317547,33
1766015804.317557,31
1766015804.317568,34
1766015804.317578,33
1766015804.317589,32
1766015804.317599,32
1766015804.31761,34
1766015804.31762,32
1766015804.317631,35
1766015804.317642,34
1766015804.317652,32
1766015804.317664,31
1766015804.317675,30
1766015804.317685,30
1766015804.317695,34
1766015804.3177059,29
1766015804.317716,34
1766015804.317727,28
1766015804.317738,33
1766015804.317748,32
1766015804.317759,31
1766015804.31777,30
1766015804.31778,33
1766015804.3177931,30
1766015804.317805,30
1766015804.317815,32
1766015804.317826,31
1766015804.317836,32
1766015804.317847,27
1766015804.317857,28
1766015804.317868,31
1766015804.317879,27
1766015804.317889,29
1766015804.3179,32
1766015804.31791,28
1766015804.317921,28
1766015804.317931,31
1766015804.317942,30
1766015804.317953,28
1766015804.3179631,30
1766015804.317974,30
1766015804.317984,28
1766015804.317995,29
1766015804.318005,27
1766015804.318016,27
1766015804.318027,30
1766015804.318037,28
1766015804.318048,26
1766015804.318059,30
1766015804.318069,29
1766015804.31808,28
1766015804.318091,27
1766015804.318101,26
1766015804.318112,24
1766015804.318123,28
1766015804.3181329,28
1766015804.318146,26
1766015804.3181581,26
1766015804.3181682,27
1766015804.318178,30
1766015804.3181891,27
1766015804.3181992,27
1766015804.3182101,26
1766015804.3182201,26
1766015804.318231,27
1766015804.318242,25
1766015804.318253,28
1766015804.318263,27
1766015804.318274,25
1766015804.318285,28
1766015804.318295,25
1766015804.318305,27
1766015804.318316,25
1766015804.318327,23
1766015804.318337,24
1766015804.318348,28
1766015804.318358,26
1766015804.318369,26
1766015804.318379,26
1766015804.3183901,26
1766015804.318401,27
1766015804.318411,26
1766015804.318422,26
1766015804.318432,24
1766015804.318443,25
1766015804.318453,22
1766015804.318464,25
1766015804.318474,25
1766015804.318485,26
1766015804.318499,23
1766015804.318513,23
1766015804.318523,25
1766015804.318534,22
1766015804.318544,25
1766015804.3185549,25
1766015804.3185651,24
1766015804.318576,24
1766015804.318586,24
1766015804.318597,26
1766015804.318607,27
1766015804.318618,27
1766015804.318628,25
1766015804.318639,23
1766015804.31865,23
1766015804.31866,27
1766015804.318671,23
1766015804.318681,27
1766015804.3186922,27
1766015804.3187032,22
1766015804.3187132,23
1766015804.3187242,24
1766015804.3187351,23
1766015804.3187451,22
1766015804.318756,24
1766015804.318766,24
1766015804.3187761,25
1766015804.318789,24
1766015804.3188,24
1766015804.3188102,26
1766015804.3188212,21
1766015804.3188312,23
1766015804.3188422,23
1766015804.3188548,25
1766015804.318868,25
1766015804.318879,23
1766015804.31889,19
1766015804.3188999,24
1766015804.318911,22
1766015804.3189209,24
1766015804.3189309,26
1766015804.318942,24
1766015804.3189518,26
1766015804.318963,22
1766015804.318974,26
1766015804.318984,23
1766015804.3189938,25
1766015804.3190038,24
1766015804.319015,20
1766015804.3190248,21
1766015804.319036,26
1766015804.3190458,25
1766015804.3190558,25
1766015804.3190668,23
1766015804.319077,25
1766015804.3190882,24
1766015804.319098,23
1766015804.3191092,24
1766015804.3191192,23
1766015804.3191302,26
1766015804.3191402,23
1766015804.3191512,24
1766015804.3191621,23
1766015804.3191721,26
1766015804.319183,25
1766015804.3191931,23
1766015804.3192031,24
1766015804.319217,21
1766015804.3192298,25
1766015804.3192399,22
1766015804.319251,27
1766015804.3192608,25
1766015804.3192708,22
1766015804.3192818,25
1766015804.3192918,20
1766015804.3193028,27
1766015804.3193128,23
1766015804.3193228,23
1766015804.3193338,23
1766015804.319343,26
1766015804.3193521,23
1766015804.3193622,24
1766015804.319371,27
1766015804.31938,23
1766015804.3193889,20
1766015804.319398,24
1766015804.319407,22
1766015804.319416,24
1766015804.319425,23
1766015804.3194351,20
1766015804.319444,23
1766015804.319453,20
1766015804.319469,24
1766015804.319478,22
1766015804.319487,23
1766015804.319496,26
1766015804.319505,28
1766015804.319514,22
1766015804.319523,23
1766015804.319532,21
1766015804.319544,19
1766015804.319555,22
1766015804.319564,25
1766015804.319573,20
1766015804.319583,24
1766015804.319592,22
1766015804.3196008,24
1766015804.31961,25
1766015804.3196192,25
1766015804.319628,22
1766015804.3196359,21
1766015804.319646,24
1766015804.319654,23
1766015804.319663,22
1766015804.319673,23
1766015804.3196821,21
1766015804.319691,22
1766015804.3197,21
1766015804.3197088,22
1766015804.319718,21
1766015804.3197272,22
1766015804.319736,24
1766015804.319745,20
1766015804.319754,23
1766015804.319763,24
1766015804.319773,24
1766015804.3197818,23
1766015804.319791,23
1766015804.3198001,20
1766015804.319809,25
1766015804.319818,22
1766015804.3198268,23
1766015804.319836,21
1766015804.31985,22
1766015804.319859,25
1766015804.31987,23
1766015804.3198788,24
1766015804.3198879,23
1766015804.3198972,21
1766015804.3199072,23
1766015804.319916,22
1766015804.3199239,24
1766015804.319933,21
1766015804.319942,24
1766015804.319951,23
1766015804.31996,20
1766015804.319969,21
1766015804.319978,21
1766015804.319987,22
1766015804.3199959,22
1766015804.3200052,21
1766015804.320014,23
1766015804.320023,24
1766015804.320032,22
1766015804.320041,26
1766015804.32005,19
1766015804.3200588,20
1766015804.3200681,22
1766015804.320077,24
1766015804.320086,22
1766015804.320095,24
1766015804.320105,25
1766015804.320114,21
1766015804.320122,21
1766015804.320132,23
1766015804.320141,21
1766015804.320149,23
1766015804.320161,22
1766015804.320171,20
1766015804.320181,19
1766015804.32019,22
1766015804.320199,25
1766015804.3202078,21
1766015804.3202171,24
1766015804.320226,26
1766015804.320235,25
1766015804.320244,23
1766015804.320253,23
1766015804.320262,24
1766015804.320271,22
1766015804.32028,24
1766015804.3202891,23
1766015804.320298,23
1766015804.320307,22
1766015804.3203158,26
1766015804.3203251,21
1766015804.3203342,25
1766015804.320343,24
1766015804.320352,22
1766015804.320361,24
1766015804.32037,25
1766015804.3203788,24
1766015804.320388,25
1766015804.3203971,23
1766015804.320406,25
1766015804.320415,22
1766015804.3204238,24
1766015804.320433,24
1766015804.3204422,23
1766015804.320451,22
1766015804.32046,26
1766015804.3204732,26
1766015804.3204842,21
1766015804.320493,25
1766015804.320502,26
1766015804.3205109,24
1766015804.32052,26
1766015804.320529,24
1766015804.320538,23
1766015804.320547,23
1766015804.320556,24
1766015804.320565,25
1766015804.320574,22
1766015804.3205829,24
1766015804.320592,28
1766015804.320601,24
1766015804.32061,22
1766015804.320619,23
1766015804.320628,23
1766015804.320637,23
1766015804.3206458,22
1766015804.320655,24
1766015804.3206642,23
1766015804.320674,26
1766015804.320683,23
1766015804.3206909,25
1766015804.3207,24
1766015804.3207092,22
1766015804.320718,22
1766015804.320727,26
1766015804.3207371,23
1766015804.320746,24
1766015804.320755,23
1766015804.3207638,21
1766015804.320776,23
1766015804.320786,27
1766015804.320796,26
1766015804.320805,24
1766015804.3208141,23
1766015804.320823,25
1766015804.320832,25
1766015804.320841,22
1766015804.32085,22
1766015804.320859,23
1766015804.320868,21
1766015804.320877,24
1766015804.3208861,24
1766015804.320894,21
1766015804.3209028,24
1766015804.320912,24
1766015804.3209212,24
1766015804.32093,22
1766015804.320939,23
1766015804.320948,25
1766015804.320957,24
1766015804.320966,24
1766015804.320975,23
1766015804.3209841,25
1766015804.320993,25
1766015804.321002,23
1766015804.3210108,22
1766015804.32102,24
1766015804.3210292,26
1766015804.3210392,25
1766015804.321048,24
1766015804.321057,25
1766015804.321066,24
1766015804.321075,23
1766015804.321087,23
1766015804.321098,21
1766015804.321107,25
1766015804.321116,25
1766015804.321125,27
1766015804.321134,24
1766015804.3211432,25
1766015804.321152,21
1766015804.321161,22
1766015804.3211699,24
1766015804.321179,23
1766015804.3211882,24
1766015804.321197,23
1766015804.321206,23
1766015804.321215,22
1766015804.321224,23
1766015804.3212328,19
1766015804.321242,26
1766015804.321252,24
1766015804.3212612,21
1766015804.32127,22
1766015804.321279,26
1766015804.3212879,24
1766015804.321297,23
1766015804.3213062,22
1766015804.321316,25
1766015804.321325,23
1766015804.3213341,23
1766015804.321343,28
1766015804.321352,25
1766015804.3213608,23
1766015804.3213701,22
1766015804.3213792,24
1766015804.321388,24
1766015804.321397,23
1766015804.321406,24
1766015804.321416,23
1766015804.321425,23
1766015804.321433,27
1766015804.321443,25
1766015804.3214521,24
1766015804.321461,24
1766015804.32147,21
1766015804.3214788,25
1766015804.321488,23
1766015804.3214972,24
1766015804.321506,22
1766015804.321515,25
1766015804.321524,24
1766015804.321534,26
1766015804.321543,25
1766015804.321553,24
1766015804.321562,23
1766015804.321571,24
1766015804.32158,26
1766015804.321589,24
1766015804.321598,26
1766015804.3216078,26
1766015804.321617,27
1766015804.3216262,23
1766015804.3216362,26
1766015804.321645,22
1766015804.321654,25
1766015804.321663,26
1766015804.321672,24
1766015804.3216808,26
1766015804.321694,26
1766015804.321703,28
1766015804.321712,26
1766015804.321721,27
1766015804.3217301,24
1766015804.321739,25
1766015804.321748,24
1766015804.3217568,28
1766015804.321766,24
1766015804.3217752,25
1766015804.321785,29
1766015804.321794,27
1766015804.321802,24
1766015804.321811,27
1766015804.32182,27
1766015804.321829,26
1766015804.3218381,23
1766015804.321847,26
1766015804.321856,28
1766015804.321866,27
1766015804.3218749,26
1766015804.321884,27
1766015804.3218932,28
1766015804.321902,25
1766015804.321911,27
1766015804.321919,29
1766015804.321929,28
1766015804.321938,27
1766015804.3219469,29
1766015804.3219562,27
1766015804.321965,26
1766015804.321974,28
1766015804.3219829,27
1766015804.321992,28
1766015804.322001,29
1766015804.32201,29
1766015804.322019,29
1766015804.322028,29
1766015804.322037,27
1766015804.322046,30
1766015804.3220549,29
1766015804.322064,28
1766015804.322073,32
1766015804.322082,30
1766015804.322091,25
1766015804.3221,29
1766015804.322109,25
1766015804.3221178,26
1766015804.322127,27
1766015804.3221362,27
1766015804.322145,27
1766015804.322154,26
1766015804.3221629,25
1766015804.322172,28
1766015804.3221812,30
1766015804.32219,28
1766015804.322199,26
1766015804.322208,27
1766015804.322217,28
1766015804.3222258,27
1766015804.3222349,29
1766015804.3222442,26
1766015804.322253,28
1766015804.322262,28
1766015804.3222709,29
1766015804.32228,29
1766015804.322289,28
1766015804.322298,28
1766015804.322307,30
1766015804.322316,30
1766015804.322325,27
1766015804.322334,30
1766015804.3223429,28
1766015804.3223522,27
1766015804.322361,29
1766015804.32245,33
1766015804.322459,30
1766015804.322468,28
1766015804.322477,30
1766015804.322486,29
1766015804.322495,29
1766015804.322504,30
1766015804.3225129,31
1766015804.3225229,31
1766015804.3225331,31
1766015804.3225422,28
1766015804.322551,29
1766015804.32256,28
1766015804.322569,28
1766015804.322578,30
1766015804.3225868,28
1766015804.322596,27
1766015804.3226051,30
1766015804.322614,32
1766015804.322623,30
1766015804.3226318,25
1766015804.322641,29
1766015804.3226502,29
1766015804.322659,29
1766015804.322668,26
1766015804.322677,28
1766015804.322686,28
1766015804.322695,29
1766015804.3227038,31
1766015804.3227131,29
1766015804.322722,31
1766015804.322731,28
1766015804.32274,26
1766015804.322749,26
1766015804.322758,28
1766015804.322767,29
1766015804.322776,30
1766015804.3227851,27
1766015804.322794,28
1766015804.322803,29
1766015804.3228118,28
1766015804.322828,30
1766015804.322838,32
1766015804.322847,29
1766015804.322856,30
1766015804.322864,28
1766015804.322874,29
1766015804.3228831,28
1766015804.322892,26
1766015804.322901,28
1766015804.32291,27
1766015804.322919,26
1766015804.3229282,30
1766015804.322937,30
1766015804.322946,29
1766015804.322955,28
1766015804.322964,23
1766015804.322973,26
1766015804.3229818,27
1766015804.3229911,26
1766015804.323,29
1766015804.323009,27
1766015804.323018,29
1766015804.323027,29
1766015804.323036,29
1766015804.323045,26
1766015804.323054,26
1766015804.3230631,27
1766015804.323072,26
1766015804.323081,25
1766015804.3230898,26
1766015804.323099,27
1766015804.3231082,27
1766015804.323117,26
1766015804.323126,25
1766015804.323135,26
1766015804.323144,26
1766015804.3231528,27
1766015804.323162,26
1766015804.3231711,26
1766015804.32318,26
1766015804.323189,26
1766015804.3231978,21
1766015804.323207,26
1766015804.323216,26
1766015804.323225,27
1766015804.323234,27
1766015804.323243,26
1766015804.323252,26
1766015804.323547,28
1766015804.3245592,26
1766015804.325564,25
1766015804.3265522,27
1766015804.327578,25
1766015804.328587,25
1766015804.329556,24
1766015804.33058,24
1766015804.33158,26
1766015804.332603,27
1766015804.3336132,26
1766015804.3346071,24
1766015804.3356102,23
1766015804.336601,24
1766015804.337565,25
1766015804.338589,23
1766015804.339593,29
1766015804.340597,22
1766015804.341608,25
1766015804.3426418,26
1766015804.343631,26
1766015804.3446138,23
1766015804.345626,25
1766015804.346632,25
1766015804.3476312,23
1766015804.348615,25
1766015804.3496058,27
1766015804.35061,26
1766015804.351635,25
1766015804.35263,24
1766015804.353659,29
1766015804.35471,27
1766015804.355711,26
1766015804.356707,25
1766015804.357734,29
1766015804.3587232,23
1766015804.359723,25
1766015804.360677,29
1766015804.361717,27
1766015804.3626938,24
1766015804.3636942,26
1766015804.364682,26
1766015804.3657548,23
1766015804.366712,23
1766015804.367687,26
1766015804.3686929,24
1766015804.3696718,28
1766015804.370674,26
1766015804.3716931,28
1766015804.372708,31
1766015804.373697,27
1766015804.374706,26
1766015804.375715,28
1766015804.3767,27
1766015804.377751,24
1766015804.37873,29
1766015804.3797162,25
1766015804.380678,25
1766015804.381723,27
1766015804.382773,28
1766015804.383743,24
1766015804.384785,26
1766015804.385747,25
1766015804.386762,26
1766015804.387754,26
1766015804.3887439,28
1766015804.389753,27
1766015804.390715,26
1766015804.3917172,27
1766015804.392761,29
1766015804.393766,24
1766015804.39478,26
1766015804.395788,25
1766015804.3967848,24
1766015804.397792,27
1766015804.398748,26
1766015804.39975,27
1766015804.400794,30
1766015804.401796,26
1766015804.4028,28
1766015804.403787,26
1766015804.404757,29
1766015804.405789,27
1766015804.406785,29
1766015804.407775,25
1766015804.40876,27
1766015804.409801,24
1766015804.410798,28
1766015804.411818,27
1766015804.412781,29
1766015804.4138072,24
1766015804.414815,29
1766015804.415791,27
1766015804.4167948,25
1766015804.417805,22
1766015804.4188118,25
1766015804.419799,26
1766015804.420821,25
1766015804.421831,27
1766015804.422815,27
1766015804.423815,25
1766015804.424839,28
1766015804.425848,24
1766015804.4268339,26
1766015804.427852,29
1766015804.428847,25
1766015804.4298391,25
1766015804.430835,29
1766015804.4318569,24
1766015804.432866,26
1766015804.4338508,25
1766015804.4348722,25
1766015804.435884,27
1766015804.436857,25
1766015804.4378722,27
1766015804.438873,28
1766015804.439877,30
1766015804.4408698,28
1766015804.441878,24
1766015804.442904,26
1766015804.4438982,27
1766015804.4449012,26
1766015804.445899,24
1766015804.446914,26
1766015804.4478972,29
1766015804.4489028,23
1766015804.44991,29
1766015804.4509099,27
1766015804.451908,26
1766015804.4529228,27
1766015804.453941,26
1766015804.454914,27
1766015804.4559329,30
1766015804.456934,25
1766015804.457929,28
1766015804.4589329,24
1766015804.459936,30
1766015804.460941,27
1766015804.461944,28
1766015804.4629388,31
1766015804.463951,26
1766015804.464957,28
1766015804.465964,29
1766015804.466961,28
1766015804.4679549,28
1766015804.468962,25
1766015804.46995,27
1766015804.4709802,28
1766015804.47196,27
1766015804.472974,28
1766015804.473973,28
1766015804.474985,29
1766015804.47599,26
1766015804.476984,26
1766015804.4779892,29
1766015804.479001,25
1766015804.480009,28
1766015804.481036,27
1766015804.482004,27
1766015804.4830122,30
1766015804.484013,25
1766015804.4850209,29
1766015804.486016,28
1766015804.4870038,28
1766015804.4880278,30
1766015804.4890308,30
1766015804.490029,26
1766015804.491016,28
1766015804.492042,29
1766015804.4930382,28
1766015804.4940312,27
1766015804.495036,27
1766015804.496035,25
1766015804.497044,26
1766015804.4980469,26
1766015804.4990451,27
1766015804.500043,29
1766015804.50106,30
1766015804.502056,26
1766015804.5030458,30
1766015804.504062,31
1766015804.505066,30
1766015804.506075,31
1766015804.50707,31
1766015804.508062,26
1766015804.509082,27
1766015804.510089,30
1766015804.51108,28
1766015804.512081,28
1766015804.5130959,28
1766015804.5141,26
1766015804.5151029,29
1766015804.5161011,31
1766015804.517098,26
1766015804.5180979,31
1766015804.519109,30
1766015804.520112,30
1766015804.521111,28
1766015804.522107,30
1766015804.523104,32
1766015804.524105,28
1766015804.525132,30
1766015804.526124,30
1766015804.5271301,27
1766015804.528116,30
1766015804.529224,29
1766015804.530218,30
1766015804.5312269,31
1766015804.5321338,30
1766015804.5332239,29
1766015804.534228,31
1766015804.5352252,29
1766015804.536216,30
1766015804.53722,28
1766015804.5382268,31
1766015804.539223,30
1766015804.540218,31
1766015804.541228,30
1766015804.5422301,29
1766015804.543224,31
1766015804.544218,31
1766015804.545221,32
1766015804.546219,28
1766015804.547233,31
1766015804.5482292,29
1766015804.549234,31
1766015804.550227,25
1766015804.551224,32
1766015804.552223,33
1766015804.5532181,30
1766015804.554222,33
1766015804.555228,30
1766015804.556221,32
1766015804.557218,33
1766015804.558228,32
1766015804.55922,28
1766015804.560225,30
1766015804.561234,31
1766015804.562229,36
1766015804.5632288,28
1766015804.564241,32
1766015804.565282,32
1766015804.566252,35
1766015804.5672388,33
1766015804.568251,32
1766015804.569257,31
1766015804.5702689,29
1766015804.571268,28
1766015804.572274,30
1766015804.573267,32
1766015804.574272,35
1766015804.575285,30
1766015804.576262,30
1766015804.577276,31
1766015804.578283,33
1766015804.579293,29
1766015804.580292,31
1766015804.5812852,29
1766015804.582294,30
1766015804.583293,32
1766015804.584285,33
1766015804.585296,31
1766015804.5863109,33
1766015804.5873039,31
1766015804.5883,32
1766015804.589304,33
1766015804.590297,34
1766015804.591326,32
1766015804.592297,31
1766015804.593313,32
1766015804.594319,32
1766015804.595316,28
1766015804.596329,33
1766015804.597327,29
1766015804.598337,30
1766015804.599332,32
1766015804.600332,32
1766015804.601322,33
1766015804.6023371,32
1766015804.603348,29
1766015804.604332,32
1766015804.605333,33
1766015804.606338,35
1766015804.6073768,30
1766015804.6083488,30
1766015804.60936,27
1766015804.610371,30
1766015804.611389,29
1766015804.6123898,29
1766015804.613396,29
1766015804.6143942,32
1766015804.615377,32
1766015804.6163762,28
1766015804.6174011,33
1766015804.618398,28
1766015804.6193972,28
1766015804.620391,29
1766015804.621398,31
1766015804.622414,35
1766015804.6234,37
1766015804.624398,38
1766015804.625407,35
1766015804.626413,37
1766015804.627409,41
1766015804.628405,42
1766015804.6294131,42
1766015804.630411,43
1766015804.631423,42
1766015804.6324291,43
1766015804.6334279,43
1766015804.63443,40
1766015804.63544,46
1766015804.63643,45
1766015804.637438,43
1766015804.6384482,41
1766015804.63947,47
1766015804.640461,47
1766015804.641473,43
1766015804.642466,46
1766015804.643455,46
1766015804.644468,43
1766015804.645461,48
1766015804.646465,44
1766015804.647476,47
1766015804.648472,42
1766015804.649458,46
1766015804.650483,44
1766015804.651486,47
1766015804.6524858,44
1766015804.653504,45
1766015804.6544929,46
1766015804.655495,44
1766015804.656493,43
1766015804.6574998,41
1766015804.658493,44
1766015804.659505,42
1766015804.660507,42
1766015804.661505,46
1766015804.6625102,46
1766015804.663507,43
1766015804.664524,45
1766015804.6655202,44
1766015804.666508,39
1766015804.667522,42
1766015804.6685271,43
1766015804.669524,41
1766015804.6705432,42
1766015804.6715379,41
1766015804.672532,41
1766015804.673533,40
1766015804.6745338,44
1766015804.675553,44
1766015804.6765451,41
1766015804.677548,41
1766015804.678553,45
1766015804.679551,41
1766015804.680556,38
1766015804.6815622,41
1766015804.6825678,39
1766015804.6835809,38
1766015804.6845791,40
1766015804.685589,39
1766015804.686592,43
1766015804.687575,40
1766015804.6885738,42
1766015804.689585,41
1766015804.690586,41
1766015804.6915991,40
1766015804.692599,42
1766015804.693596,42
1766015804.694596,40
1766015804.695607,42
1766015804.696623,39
1766015804.69761,40
1766015804.6986299,40
1766015804.699612,40
1766015804.700593,40
1766015804.7016141,41
1766015804.702606,45
1766015804.7036102,37
1766015804.704625,42
1766015804.705626,43
1766015804.706642,43
1766015804.7076201,45
1766015804.7086349,45
1766015804.709607,42
1766015804.710624,43
1766015804.711645,46
1766015804.712645,43
1766015804.71365,42
1766015804.7146509,44
1766015804.715647,45
1766015804.7166588,43
1766015804.717654,45
1766015804.718675,46
1766015804.7196648,44
1766015804.720664,47
1766015804.7216692,46
1766015804.722665,48
1766015804.7236638,45
1766015804.724684,46
1766015804.7256792,42
1766015804.72669,41
1766015804.727683,44
1766015804.72868,44
1766015804.7296798,47
1766015804.7306838,44
1766015804.7317,46
1766015804.732699,43
1766015804.7337039,42
1766015804.734702,48
1766015804.7357252,46
1766015804.736715,45
1766015804.737718,47
1766015804.738729,42
1766015804.739736,44
1766015804.740737,47
1766015804.741716,46
1766015804.742749,47
1766015804.7437508,44
1766015804.744725,48
1766015804.745733,46
1766015804.7467399,47
1766015804.7477398,43
1766015804.748746,44
1766015804.749753,43
1766015804.75075,47
1766015804.7517672,48
1766015804.752764,50
1766015804.753782,54
1766015804.754761,57
1766015804.755764,61
1766015804.756769,66
1766015804.7577658,64
1766015804.758773,60
1766015804.759785,64
1766015804.760792,64
1766015804.761782,68
1766015804.762795,72
1766015804.763794,77
1766015804.764792,83
1766015804.765791,89
1766015804.766788,92
1766015804.767791,91
1766015804.7687922,94
1766015804.769802,96
1766015804.770802,95
1766015804.771899,100
1766015804.7728121,99
1766015804.7738938,102
1766015804.7748978,100
1766015804.775899,101
1766015804.776823,98
1766015804.777905,100
1766015804.778835,97
1766015804.779825,99
1766015804.780836,97
1766015804.781833,95
1766015804.782846,94
1766015804.783843,93
1766015804.784833,92
1766015804.7858381,92
1766015804.78685,88
1766015804.7878559,91
1766015804.788859,90
1766015804.789866,90
1766015804.790868,87
1766015804.7918668,91
1766015804.792869,94
1766015804.7938602,98
1766015804.7949681,100
1766015804.795976,109
1766015804.7969651,116
1766015804.797968,124
1766015804.798979,129
1766015804.7999911,127
1766015804.80097,130
1766015804.801991,133
1766015804.802992,137
1766015804.803977,131
1766015804.804985,134
1766015804.8059928,133
1766015804.807014,132
1766015804.808018,132
1766015804.8090088,130
1766015804.8100102,130
1766015804.811001,127
1766015804.8120131,129
1766015804.8130078,132
1766015804.8140311,138
1766015804.815017,141
1766015804.816016,142
1766015804.817025,140
1766015804.8180292,139
1766015804.819044,138
1766015804.8200378,139
1766015804.8210392,135
1766015804.822044,136
1766015804.823047,137
1766015804.824045,137
1766015804.8250408,135
1766015804.8260648,130
1766015804.8270762,132
1766015804.828039,133
1766015804.829077,132
1766015804.830059,131
1766015804.831071,126
1766015804.8320682,127
1766015804.8330822,128
1766015804.834065,129
1766015804.835082,126
1766015804.836096,123
1766015804.8371,123
1766015804.838083,124
1766015804.839089,122
1766015804.8400881,119
1766015804.8410969,119
1766015804.8420968,118
1766015804.8430989,122
1766015804.8440928,126
1766015804.845091,137
1766015804.846101,141
1766015804.847102,152
1766015804.848104,158
1766015804.849109,157
1766015804.8501198,155
1766015804.8511128,157
1766015804.852136,157
1766015804.853129,158
1766015804.854149,158
1766015804.855134,159
1766015804.856189,164
1766015804.857146,159
1766015804.858154,159
1766015804.859141,159
1766015804.860147,156
1766015804.8611462,158
1766015804.862147,160
1766015804.863151,159
1766015804.864243,158
1766015804.865237,156
1766015804.8662379,150
1766015804.8672378,153
1766015804.8682399,153
1766015804.869237,152
1766015804.870234,159
1766015804.871243,159
1766015804.872226,159
1766015804.8732328,154
1766015804.8742342,160
1766015804.875233,161
1766015804.876234,157
1766015804.8772311,158
1766015804.878232,157
1766015804.8792388,157
1766015804.8802292,149
1766015804.881228,151
1766015804.8822222,150
1766015804.883234,146
1766015804.88423,148
1766015804.885228,144
1766015804.886235,145
1766015804.887233,141
1766015804.888226,138
1766015804.8892338,140
1766015804.890225,138
1766015804.891242,137
1766015804.892223,136
1766015804.893226,136
1766015804.894242,139
1766015804.895242,141
1766015804.896244,148
1766015804.89726,150
1766015804.898245,154
1766015804.8992598,155
1766015804.900249,153
1766015804.901272,152
1766015804.902258,155
1766015804.903291,151
1766015804.904269,148
1766015804.905268,151
1766015804.9062788,149
1766015804.907296,143
1766015804.908272,147
1766015804.9092731,143
1766015804.910281,144
1766015804.911293,142
1766015804.912288,139
1766015804.913283,139
1766015804.914298,137
1766015804.915293,137
1766015804.9162948,135
1766015804.917294,136
1766015804.9183161,133
1766015804.919298,133
1766015804.9202938,132
1766015804.9213078,129
1766015804.922307,130
1766015804.923317,129
1766015804.924311,124
1766015804.9253068,129
1766015804.926324,127
1766015804.9273212,128
1766015804.92831,126
1766015804.929323,123
1766015804.930341,123
1766015804.9313312,124
1766015804.93233,121
1766015804.9333508,119
1766015804.934346,120
1766015804.935358,118
1766015804.936356,118
1766015804.937362,115
1766015804.938352,115
1766015804.939357,116
1766015804.940365,114
1766015804.941372,119
1766015804.942355,121
1766015804.943369,125
1766015804.9443688,127
1766015804.9453719,127
1766015804.946372,126
1766015804.947388,127
1766015804.94841,124
1766015804.949396,123
1766015804.9503849,126
1766015804.9513931,124
1766015804.9524,126
1766015804.953405,123
1766015804.954411,123
1766015804.955393,123
1766015804.956418,122
1766015804.957407,121
1766015804.958406,120
1766015804.959411,118
1766015804.9604192,117
1766015804.961421,113
1766015804.9624262,114
1766015804.96341,113
1766015804.964436,109
1766015804.965421,111
1766015804.96642,107
1766015804.967427,109
1766015804.9684439,109
1766015804.969449,108
1766015804.970431,106
1766015804.971433,106
1766015804.972457,104
1766015804.97344,104
1766015804.974452,102
1766015804.975456,101
1766015804.976361,98
1766015804.977364,98
1766015804.978372,97
1766015804.979381,99
1766015804.9803789,99
1766015804.9813719,98
1766015804.982377,98
1766015804.983378,98
1766015804.984372,98
1766015804.9854012,98
1766015804.98638,99
1766015804.987385,96
1766015804.9884028,98
1766015804.989491,101
1766015804.9904141,96
1766015804.991412,97
1766015804.992418,97
1766015804.993412,95
1766015804.994417,91
1766015804.995422,96
1766015804.9964108,95
1766015804.9974122,93
1766015804.998444,93
1766015804.999423,93
1766015805.000424,94
1766015805.0014238,97
1766015805.0024261,97
1766015805.003433,99
1766015805.004457,98
1766015805.005434,97
1766015805.006549,102
1766015805.0074508,98
1766015805.008539,101
1766015805.009453,98
1766015805.010559,101
1766015805.01155,106
1766015805.0125692,104
1766015805.013553,109
1766015805.01456,107
1766015805.015569,106
1766015805.0165749,107
1766015805.017578,102
1766015805.018584,102
1766015805.019574,103
1766015805.020583,103
1766015805.021572,105
1766015805.0225852,108
1766015805.0235798,118
1766015805.024585,128
1766015805.025601,143
1766015805.026595,147
1766015805.027596,147
1766015805.02863,153
1766015805.0296152,157
1766015805.030612,154
1766015805.03162,160
1766015805.032614,158
1766015805.033612,157
1766015805.0346198,155
1766015805.035615,158
1766015805.036628,159
1766015805.0376298,155
1766015805.038618,154
1766015805.0396311,151
1766015805.040629,152
1766015805.041625,150
1766015805.042636,149
1766015805.043653,147
1766015805.044653,148
1766015805.0456462,141
1766015805.046628,143
1766015805.047659,142
1766015805.048657,140
1766015805.049654,137
1766015805.050654,136
1766015805.0516632,134
1766015805.052665,132
1766015805.053671,132
1766015805.05467,128
1766015805.05567,127
1766015805.0566661,126
1766015805.0576918,124
1766015805.058679,123
1766015805.0596879,123
1766015805.060695,122
1766015805.061696,119
1766015805.0626938,119
1766015805.063704,115
1766015805.064702,115
1766015805.0657191,115
1766015805.0667148,111
1766015805.067713,110
1766015805.068728,110
1766015805.069737,107
1766015805.070734,109
1766015805.0717492,105
1766015805.0727448,107
1766015805.0737238,106
1766015805.0747268,106
1766015805.075758,106
1766015805.0767329,104
1766015805.0777652,107
1766015805.078746,110
1766015805.079752,108
1766015805.080759,109
1766015805.081764,112
1766015805.082773,113
1766015805.08377,115
1766015805.0847611,113
1766015805.085809,113
1766015805.086773,114
1766015805.087779,111
1766015805.088777,110
1766015805.089781,112
1766015805.09078,109
1766015805.091776,108
1766015805.0928042,104
1766015805.09378,107
1766015805.0947971,105
1766015805.095797,107
1766015805.096798,105
1766015805.0977962,103
1766015805.098809,101
1766015805.099709,98
1766015805.100814,100
1766015805.101699,96
1766015805.102732,98
1766015805.103737,99
1766015805.104741,95
1766015805.105721,94
1766015805.106726,95
1766015805.107755,91
1766015805.108756,92
1766015805.109729,91
1766015805.11073,91
1766015805.111774,90
1766015805.112747,91
1766015805.11376,88
1766015805.114763,91
1766015805.11576,85
1766015805.116771,84
1766015805.117781,86
1766015805.118762,82
1766015805.11979,84
1766015805.120769,80
1766015805.1217651,83
1766015805.1227891,80
1766015805.123792,81
1766015805.124788,77
1766015805.125779,80
1766015805.126803,77
1766015805.127796,73
1766015805.128798,75
1766015805.129796,75
1766015805.130794,73
1766015805.1317918,72
1766015805.132792,72
1766015805.1337962,72
1766015805.134815,73
1766015805.135801,71
1766015805.136805,71
1766015805.137818,71
1766015805.1388202,72
1766015805.1398342,74
1766015805.1408288,76
1766015805.1418188,80
1766015805.142827,87
1766015805.143821,90
1766015805.144841,90
1766015805.145845,96
1766015805.146847,97
1766015805.147946,101
1766015805.148947,109
1766015805.149944,108
1766015805.150949,109
1766015805.151956,111
1766015805.152961,113
1766015805.1539562,119
1766015805.1549702,119
1766015805.1559758,119
1766015805.156974,116
1766015805.157961,118
1766015805.158981,115
1766015805.1599889,117
1766015805.1609962,116
1766015805.161978,119
1766015805.1629791,120
1766015805.1639879,120
1766015805.16499,120
1766015805.165994,122
1766015805.167001,122
1766015805.1680052,124
1766015805.168999,123
1766015805.170005,122
1766015805.170999,118
1766015805.1720052,117
1766015805.173003,117
1766015805.174,113
1766015805.175025,117
1766015805.1760268,115
1766015805.177036,120
1766015805.178019,115
1766015805.179022,117
1766015805.180017,118
1766015805.181025,114
1766015805.182028,115
1766015805.1830359,112
1766015805.184031,114
1766015805.185044,113
1766015805.186046,113
1766015805.187104,111
1766015805.188051,111
1766015805.189066,110
1766015805.1900558,106
1766015805.191071,106
1766015805.192032,105
1766015805.193044,104
1766015805.19403,105
1766015805.195037,100
1766015805.19603,102
1766015805.197042,101
1766015805.1980429,100
1766015805.198957,97
1766015805.1999612,95
1766015805.200968,96
1766015805.201962,93
1766015805.2029681,91
1766015805.203967,91
1766015805.204971,91
1766015805.2059698,92
1766015805.207,93
1766015805.208012,87
1766015805.209013,88
1766015805.210013,86
1766015805.2110221,83
1766015805.212039,84
1766015805.213024,85
1766015805.214017,85
1766015805.215033,79
1766015805.216042,84
1766015805.21706,81
1766015805.218066,78
1766015805.2190561,78
1766015805.22007,80
1766015805.2210681,78
1766015805.222065,79
1766015805.2230709,75
1766015805.2240791,80
1766015805.2250712,75
1766015805.22607,72
1766015805.227073,75
1766015805.228083,74
1766015805.229074,73
1766015805.230089,71
1766015805.2311082,72
1766015805.232105,71
1766015805.233102,73
1766015805.234114,72
1766015805.235123,69
1766015805.2361238,72
1766015805.2371168,71
1766015805.238122,71
1766015805.239125,69
1766015805.240117,70
1766015805.241136,73
1766015805.242112,70
1766015805.243208,69
1766015805.2441401,71
1766015805.2451289,69
1766015805.246123,67
1766015805.247117,67
1766015805.24811,71
1766015805.249129,73
1766015805.250199,74
1766015805.2510989,74
1766015805.252094,72
1766015805.2531898,78
1766015805.2541912,77
1766015805.255184,79
1766015805.2561889,83
1766015805.257229,83
1766015805.2582452,81
1766015805.2591958,81
1766015805.260245,81
1766015805.261184,86
1766015805.2621849,86
1766015805.263201,89
1766015805.264205,87
1766015805.265198,87
1766015805.26623,87
1766015805.267222,89
1766015805.268219,91
1766015805.269185,88
1766015805.270228,85
1766015805.27122,86
1766015805.2722309,86
1766015805.273223,87
1766015805.274233,85
1766015805.275222,88
1766015805.276226,86
1766015805.2772229,85
1766015805.27823,86
1766015805.2792268,89
1766015805.2802181,91
1766015805.2812328,96
1766015805.282193,94
1766015805.283217,92
1766015805.284241,95
1766015805.285245,97
1766015805.286222,94
1766015805.287246,95
1766015805.288249,96
1766015805.289236,96
1766015805.2902322,96
1766015805.291234,93
1766015805.2922502,95
1766015805.293258,96
1766015805.294265,94
1766015805.295279,88
1766015805.2962718,89
1766015805.297259,88
