timestamp,emg_value
1766015822.9981709,75
1766015822.998184,75
1766015822.998196,74
1766015822.998208,76
1766015822.998218,77
1766015822.998229,75
1766015822.998239,81
1766015822.998251,84
1766015822.998262,81
1766015822.998272,85
1766015822.998282,86
1766015822.998292,85
1766015822.998303,83
1766015822.998313,85
1766015822.998323,86
1766015822.9983318,89
1766015822.9983418,85
1766015822.998353,88
1766015822.998364,88
1766015822.998376,91
1766015822.9983869,88
1766015822.998399,89
1766015822.998411,89
1766015822.998421,89
1766015822.998431,89
1766015822.998441,89
1766015822.998451,92
1766015822.998461,95
1766015822.998472,89
1766015822.998482,88
1766015822.998492,87
1766015822.998501,90
1766015822.998519,87
1766015822.998532,85
1766015822.998542,83
1766015822.998552,87
1766015822.998562,84
1766015822.998572,81
1766015822.9985821,83
1766015822.998592,82
1766015822.998601,84
1766015822.998612,82
1766015822.998622,81
1766015822.998632,79
1766015822.998642,81
1766015822.998652,81
1766015822.998662,82
1766015822.9986718,80
1766015822.998682,84
1766015822.998692,87
1766015822.998702,84
1766015822.998712,83
1766015822.998722,85
1766015822.998733,86
1766015822.998743,84
1766015822.998753,85
1766015822.998763,82
1766015822.998773,85
1766015822.9987829,80
1766015822.998793,82
1766015822.998803,81
1766015822.998812,79
1766015822.998822,80
1766015822.9988322,78
1766015822.998843,80
1766015822.998861,79
1766015822.998871,76
1766015822.998881,75
1766015822.998891,74
1766015822.998901,74
1766015822.998911,78
1766015822.998921,74
1766015822.998931,74
1766015822.998942,74
1766015822.998952,74
1766015822.998962,71
1766015822.998973,70
1766015822.9989839,73
1766015822.9989948,72
1766015822.9990048,71
1766015822.9990149,71
1766015822.9990258,67
1766015822.9990358,70
1766015822.9990458,69
1766015822.9990559,69
1766015822.999066,68
1766015822.999077,71
1766015822.999087,72
1766015822.999097,66
1766015822.999108,69
1766015822.9991198,69
1766015822.99913,69
1766015822.99914,71
1766015822.999151,67
1766015822.9991622,69
1766015822.9991732,65
1766015822.9991832,70
1766015822.9991958,78
1766015822.999208,82
1766015822.999219,82
1766015822.999229,86
1766015822.99924,86
1766015822.99925,88
1766015822.999261,86
1766015822.999271,85
1766015822.999281,84
1766015822.999291,88
1766015822.999302,87
1766015822.9993129,89
1766015822.999326,85
1766015822.999337,84
1766015822.999347,84
1766015822.9993558,85
1766015822.9993658,82
1766015822.9993758,84
1766015822.9993868,82
1766015822.999397,81
1766015822.999407,79
1766015822.999417,84
1766015822.999427,79
1766015822.999437,78
1766015822.999447,79
1766015822.9994571,80
1766015822.999467,76
1766015822.999477,76
1766015822.999487,77
1766015822.999496,76
1766015822.999506,74
1766015822.999517,78
1766015822.99953,77
1766015822.999543,79
1766015822.999555,74
1766015822.9995651,75
1766015822.999576,73
1766015822.999586,73
1766015822.999596,72
1766015822.9996061,74
1766015822.999616,73
1766015822.999626,73
1766015822.999636,73
1766015822.999646,72
1766015822.999656,73
1766015822.999666,72
1766015822.999676,71
1766015822.999686,69
1766015822.9996958,69
1766015822.999706,66
1766015822.999716,66
1766015822.999726,65
1766015822.999736,68
1766015822.999746,67
1766015822.999756,70
1766015822.999766,68
1766015822.999775,67
1766015822.999785,68
1766015822.999796,64
1766015822.999806,69
1766015822.999815,66
1766015822.999826,68
1766015822.999836,71
1766015822.999846,66
1766015822.9998562,67
1766015822.999868,66
1766015822.9998798,64
1766015822.999892,63
1766015822.999902,61
1766015822.9999151,62
1766015822.999925,65
1766015822.999935,66
1766015822.999945,66
1766015822.999955,68
1766015822.999965,69
1766015822.9999738,69
1766015822.999985,72
1766015822.999995,68
1766015823.000005,71
1766015823.000015,72
1766015823.000025,70
1766015823.000035,66
1766015823.000046,69
1766015823.000056,71
1766015823.000066,66
1766015823.000076,68
1766015823.000086,69
1766015823.000096,67
1766015823.000106,67
1766015823.000117,65
1766015823.000129,64
1766015823.00014,65
1766015823.00015,66
1766015823.00016,68
1766015823.00017,69
1766015823.000182,72
1766015823.000193,71
1766015823.000203,70
1766015823.000216,68
1766015823.0002282,71
1766015823.0002382,69
1766015823.000248,67
1766015823.000258,68
1766015823.000268,73
1766015823.000278,70
1766015823.000288,73
1766015823.000298,73
1766015823.000308,75
1766015823.000318,75
1766015823.0003278,75
1766015823.0003378,76
1766015823.0003479,75
1766015823.0003579,76
1766015823.000368,77
1766015823.0003781,77
1766015823.0003881,79
1766015823.0003982,81
1766015823.0004082,78
1766015823.000418,79
1766015823.000428,79
1766015823.000438,79
1766015823.000448,76
1766015823.000458,78
1766015823.000468,79
1766015823.0004768,80
1766015823.0004869,80
1766015823.0004978,78
1766015823.0005078,77
1766015823.0005178,79
1766015823.0005279,79
1766015823.00054,77
1766015823.000552,77
1766015823.000563,73
1766015823.000573,76
1766015823.000583,75
1766015823.000593,79
1766015823.000604,77
1766015823.000614,75
1766015823.000625,72
1766015823.000635,76
1766015823.0006452,73
1766015823.0006552,72
1766015823.0006661,72
1766015823.000675,72
1766015823.0006862,74
1766015823.000695,71
1766015823.000706,70
1766015823.000716,72
1766015823.000726,67
1766015823.000736,70
1766015823.000746,67
1766015823.000756,66
1766015823.0007648,66
1766015823.0007749,66
1766015823.0007858,66
1766015823.000795,65
1766015823.0008051,66
1766015823.000816,68
1766015823.0008261,68
1766015823.0008361,64
1766015823.0008461,65
1766015823.0008562,67
1766015823.000866,62
1766015823.000879,64
1766015823.000891,63
1766015823.0009012,60
1766015823.000912,60
1766015823.0009222,59
1766015823.000932,63
1766015823.000942,59
1766015823.000952,61
1766015823.000962,59
1766015823.000972,62
1766015823.000982,63
1766015823.000993,61
1766015823.001003,66
1766015823.001013,70
1766015823.001023,69
1766015823.001033,67
1766015823.0010428,66
1766015823.0010529,66
1766015823.0010629,68
1766015823.001073,67
1766015823.001083,70
1766015823.0010931,68
1766015823.0011032,68
1766015823.0011132,67
1766015823.001125,68
1766015823.0011368,67
1766015823.0011468,71
1766015823.001157,68
1766015823.001167,70
1766015823.001177,73
1766015823.001187,73
1766015823.001197,74
1766015823.001209,74
1766015823.001222,75
1766015823.0012329,76
1766015823.0012429,76
1766015823.0012531,75
1766015823.0012631,73
1766015823.0012732,76
1766015823.0012832,74
1766015823.001293,78
1766015823.001303,78
1766015823.001313,82
1766015823.001323,80
1766015823.001333,77
1766015823.001343,79
1766015823.001353,79
1766015823.001363,78
1766015823.0013728,82
1766015823.0013828,78
1766015823.001394,80
1766015823.001405,78
1766015823.001415,79
1766015823.0014248,80
1766015823.0014348,76
1766015823.0014458,78
1766015823.001456,73
1766015823.001465,77
1766015823.001475,74
1766015823.001485,73
1766015823.0014951,73
1766015823.0015051,74
1766015823.001515,77
1766015823.001525,71
1766015823.001535,75
1766015823.001548,74
1766015823.00156,71
1766015823.00157,69
1766015823.00158,70
1766015823.00159,70
1766015823.0016,69
1766015823.001612,73
1766015823.001622,71
1766015823.001632,68
1766015823.001642,66
1766015823.001652,70
1766015823.001662,68
1766015823.001672,70
1766015823.0016818,73
1766015823.0016918,79
1766015823.0017018,75
1766015823.0017128,76
1766015823.0017228,78
1766015823.001733,77
1766015823.001743,80
1766015823.001754,76
1766015823.001764,78
1766015823.001774,81
1766015823.001784,80
1766015823.001794,77
1766015823.001804,77
1766015823.0018141,77
1766015823.001824,76
1766015823.001834,76
1766015823.001844,75
1766015823.001854,79
1766015823.001864,74
1766015823.001877,76
1766015823.001889,74
1766015823.001903,73
1766015823.001916,74
1766015823.0019279,73
1766015823.001939,72
1766015823.001951,71
1766015823.001962,70
1766015823.001973,71
1766015823.001984,73
1766015823.001996,71
1766015823.002007,71
1766015823.0020192,74
1766015823.0020301,73
1766015823.002041,74
1766015823.002052,69
1766015823.002064,70
1766015823.002075,71
1766015823.002086,71
1766015823.002097,69
1766015823.0021079,71
1766015823.002121,69
1766015823.002134,69
1766015823.002146,66
1766015823.002157,71
1766015823.0021682,72
1766015823.0021791,69
1766015823.00219,71
1766015823.002201,70
1766015823.002213,75
1766015823.0022242,73
1766015823.002235,72
1766015823.002246,71
1766015823.00226,73
1766015823.002274,71
1766015823.002285,72
1766015823.002296,75
1766015823.0023072,72
1766015823.0023181,78
1766015823.002329,74
1766015823.002341,75
1766015823.0023522,76
1766015823.002363,76
1766015823.002374,77
1766015823.0023859,78
1766015823.002398,77
1766015823.002409,82
1766015823.00242,85
1766015823.002432,83
1766015823.002443,85
1766015823.002454,84
1766015823.002465,84
1766015823.0024781,85
1766015823.002489,86
1766015823.0025039,83
1766015823.0025148,83
1766015823.002527,83
1766015823.002538,83
1766015823.002549,82
1766015823.00256,82
1766015823.002572,81
1766015823.002583,85
1766015823.002594,81
1766015823.002605,84
1766015823.0026171,82
1766015823.00263,86
1766015823.002644,85
1766015823.002656,84
1766015823.002667,87
1766015823.002678,84
1766015823.0026891,80
1766015823.002701,81
1766015823.002712,81
1766015823.002723,82
1766015823.0027351,79
1766015823.002746,80
1766015823.002757,78
1766015823.0027678,79
1766015823.0027788,81
1766015823.002791,80
1766015823.002802,80
1766015823.0028129,78
1766015823.0028238,79
1766015823.002835,82
1766015823.002847,84
1766015823.002858,86
1766015823.002869,84
1766015823.00288,81
1766015823.002893,82
1766015823.0029042,86
1766015823.002917,83
1766015823.002928,83
1766015823.002941,84
1766015823.002953,83
1766015823.002966,80
1766015823.0029771,81
1766015823.0029912,77
1766015823.003003,80
1766015823.003017,81
1766015823.003028,78
1766015823.003042,78
1766015823.0030541,76
1766015823.003066,74
1766015823.003078,77
1766015823.003089,75
1766015823.003108,74
1766015823.0031202,73
1766015823.003131,70
1766015823.0031419,72
1766015823.0031538,71
1766015823.003166,74
1766015823.003177,71
1766015823.003189,71
1766015823.003201,70
1766015823.003212,73
1766015823.0032241,69
1766015823.003235,71
1766015823.003246,72
1766015823.003257,68
1766015823.003268,69
1766015823.0032792,68
1766015823.003291,69
1766015823.0033019,69
1766015823.0033128,66
1766015823.003325,68
1766015823.003336,68
1766015823.003347,68
1766015823.003358,64
1766015823.003371,65
1766015823.003382,67
1766015823.003395,68
1766015823.003407,67
1766015823.0034182,65
1766015823.0034292,68
1766015823.0034409,66
1766015823.0034518,64
1766015823.003464,65
1766015823.003475,65
1766015823.003486,64
1766015823.003498,62
1766015823.003509,61
1766015823.00352,65
1766015823.0035331,58
1766015823.003544,63
1766015823.003556,62
1766015823.0035672,61
1766015823.003579,62
1766015823.0035899,61
1766015823.003602,61
1766015823.003613,60
1766015823.0036259,59
1766015823.003637,61
1766015823.003648,59
1766015823.003659,62
1766015823.0036721,56
1766015823.003684,59
1766015823.0036962,61
1766015823.003707,58
1766015823.00372,59
1766015823.003731,57
1766015823.003744,60
1766015823.003755,62
1766015823.003767,61
1766015823.0037801,63
1766015823.0037918,62
1766015823.0038028,64
1766015823.003815,64
1766015823.003826,67
1766015823.003839,63
1766015823.00385,60
1766015823.003862,62
1766015823.003873,61
1766015823.003885,62
1766015823.003896,62
1766015823.0039082,63
1766015823.0039191,63
1766015823.003932,65
1766015823.003943,62
1766015823.003954,64
1766015823.003965,60
1766015823.0039759,62
1766015823.0039868,59
1766015823.004,59
1766015823.004011,58
1766015823.004023,58
1766015823.004034,58
1766015823.0040472,55
1766015823.0040588,56
1766015823.0040698,57
1766015823.004083,58
1766015823.004094,56
1766015823.00411,57
1766015823.004122,55
1766015823.004135,53
1766015823.004147,57
1766015823.00416,56
1766015823.004171,54
1766015823.004184,52
1766015823.004195,56
1766015823.0042062,51
1766015823.0042171,53
1766015823.004228,50
1766015823.004239,52
1766015823.00425,49
1766015823.0042639,50
1766015823.0042748,48
1766015823.004286,51
1766015823.004297,51
1766015823.004309,51
1766015823.00432,48
1766015823.004332,49
1766015823.004343,49
1766015823.004354,47
1766015823.004365,49
1766015823.0043762,49
1766015823.0043871,45
1766015823.004401,46
1766015823.004412,46
1766015823.004423,46
1766015823.0044339,45
1766015823.0044448,50
1766015823.004457,46
1766015823.004469,45
1766015823.00448,44
1766015823.004491,44
1766015823.004503,44
1766015823.0045152,43
1766015823.0045261,45
1766015823.0045388,41
1766015823.004551,44
1766015823.004564,43
1766015823.004575,42
1766015823.004586,44
1766015823.004598,40
1766015823.004609,39
1766015823.00462,42
1766015823.0046332,42
1766015823.0046442,39
1766015823.004656,40
1766015823.0046668,39
1766015823.0046778,40
1766015823.00469,40
1766015823.004701,39
1766015823.0047119,39
1766015823.0047228,37
1766015823.004735,35
1766015823.004746,39
1766015823.004757,41
1766015823.004768,38
1766015823.004779,37
1766015823.004791,40
1766015823.004802,37
1766015823.004813,38
1766015823.0048242,35
1766015823.0048351,36
1766015823.004846,37
1766015823.004858,35
1766015823.0048692,37
1766015823.0048819,35
1766015823.004894,35
1766015823.004909,37
1766015823.0049212,34
1766015823.004933,36
1766015823.0049438,33
1766015823.004956,36
1766015823.004968,34
1766015823.004979,38
1766015823.0049899,37
1766015823.005002,35
1766015823.005013,35
1766015823.005027,35
1766015823.005038,35
1766015823.0050502,35
1766015823.0050611,34
1766015823.0050719,38
1766015823.0050838,33
1766015823.005095,33
1766015823.005111,34
1766015823.005125,34
1766015823.0051358,33
1766015823.005149,36
1766015823.005162,35
1766015823.005173,33
1766015823.005186,33
1766015823.0052,33
1766015823.0052109,34
1766015823.0052218,33
1766015823.005234,35
1766015823.005245,29
1766015823.005256,31
1766015823.0052679,33
1766015823.005281,32
1766015823.005292,33
1766015823.005307,31
1766015823.0053189,32
1766015823.0053298,30
1766015823.0053408,31
1766015823.005353,27
1766015823.005364,31
1766015823.005375,31
1766015823.0053859,32
1766015823.005397,32
1766015823.005409,29
1766015823.00542,30
1766015823.005431,30
1766015823.0054421,32
1766015823.005453,30
1766015823.005464,29
1766015823.005476,27
1766015823.0054872,28
1766015823.0054982,28
1766015823.0055099,27
1766015823.0055208,29
1766015823.0055318,31
1766015823.005543,26
1766015823.005554,29
1766015823.005567,27
1766015823.005578,27
1766015823.005589,28
1766015823.0056,28
1766015823.005611,28
1766015823.005623,28
1766015823.005634,30
1766015823.005645,27
1766015823.005656,26
1766015823.005667,28
1766015823.005682,27
1766015823.0056949,26
1766015823.005706,26
1766015823.005717,29
1766015823.005728,29
1766015823.00574,27
1766015823.0057511,25
1766015823.005762,26
1766015823.005773,28
1766015823.005784,24
1766015823.005795,26
1766015823.0058072,29
1766015823.0058181,28
1766015823.005829,29
1766015823.0058398,30
1766015823.0058508,28
1766015823.005862,26
1766015823.005873,30
1766015823.005885,30
1766015823.0058959,29
1766015823.005909,27
1766015823.0059211,30
1766015823.005932,29
1766015823.005943,26
1766015823.005954,29
1766015823.0059662,25
1766015823.0059772,29
1766015823.0059881,27
1766015823.005999,28
1766015823.00601,25
1766015823.006022,29
1766015823.006036,23
1766015823.006049,28
1766015823.006061,28
1766015823.006072,28
1766015823.0060842,30
1766015823.006099,27
1766015823.006114,27
1766015823.006125,30
1766015823.0061371,29
1766015823.006148,26
1766015823.0061598,28
1766015823.006171,30
1766015823.006182,26
1766015823.006193,28
1766015823.0062048,26
1766015823.006216,31
1766015823.006229,30
1766015823.006242,27
1766015823.006253,30
1766015823.006264,26
1766015823.0062752,30
1766015823.006287,29
1766015823.006298,29
1766015823.006309,27
1766015823.0063202,27
1766015823.006331,27
1766015823.006343,26
1766015823.0063539,25
1766015823.0063648,26
1766015823.006378,28
1766015823.006391,28
1766015823.0064042,27
1766015823.0064158,24
1766015823.006428,25
1766015823.006442,29
1766015823.006454,25
1766015823.006465,24
1766015823.006476,26
1766015823.0064871,25
1766015823.006498,23
1766015823.0065112,27
1766015823.0065238,24
1766015823.006536,24
1766015823.006549,24
1766015823.006562,24
1766015823.006573,26
1766015823.0065851,23
1766015823.006597,26
1766015823.0066078,26
1766015823.006619,24
1766015823.00663,29
1766015823.006647,25
1766015823.006658,25
1766015823.006669,28
1766015823.0066812,24
1766015823.0066922,28
1766015823.0067031,24
1766015823.0067148,27
1766015823.0067258,27
1766015823.006737,24
1766015823.006749,24
1766015823.00676,26
1766015823.0067708,26
1766015823.006782,25
1766015823.006793,25
1766015823.006804,26
1766015823.006817,26
1766015823.0068321,28
1766015823.0068438,24
1766015823.006855,28
1766015823.006866,27
1766015823.006877,29
1766015823.0068889,27
1766015823.0069,26
1766015823.006911,28
1766015823.006922,28
1766015823.006933,28
1766015823.0069451,26
1766015823.006956,28
1766015823.006967,29
1766015823.006978,31
1766015823.006989,32
1766015823.007,28
1766015823.0070121,29
1766015823.007023,30
1766015823.007034,33
1766015823.007045,29
1766015823.0070558,32
1766015823.007068,29
1766015823.007079,30
1766015823.0070899,29
1766015823.007106,28
1766015823.0071192,27
1766015823.0071318,29
1766015823.007144,27
1766015823.007155,31
1766015823.007166,30
1766015823.0071769,27
1766015823.007188,27
1766015823.007203,29
1766015823.0072162,27
1766015823.007227,30
1766015823.007238,29
1766015823.0072489,32
1766015823.0072598,28
1766015823.007272,29
1766015823.007283,27
1766015823.007294,31
1766015823.007305,26
1766015823.0073159,31
1766015823.007327,29
1766015823.007338,28
1766015823.007349,30
1766015823.00736,30
1766015823.007371,26
1766015823.007383,28
1766015823.007394,27
1766015823.007405,27
1766015823.0074182,28
1766015823.007431,25
1766015823.007444,31
1766015823.007457,28
1766015823.007469,29
1766015823.0074801,28
1766015823.007491,27
1766015823.007502,29
1766015823.007514,29
1766015823.0075252,32
1766015823.0075362,30
1766015823.007547,28
1766015823.0075588,27
1766015823.007572,30
1766015823.007586,30
1766015823.0075982,27
1766015823.0076091,26
1766015823.00762,31
1766015823.007631,28
1766015823.007642,30
1766015823.007654,29
1766015823.007665,28
1766015823.007676,30
1766015823.0076869,32
1766015823.0076978,30
1766015823.007709,32
1766015823.00772,34
1766015823.007732,35
1766015823.007743,32
1766015823.007755,34
1766015823.007767,31
1766015823.007778,36
1766015823.0077891,37
1766015823.0078,35
1766015823.007811,37
1766015823.007822,34
1766015823.007833,33
1766015823.0078442,36
1766015823.0078561,36
1766015823.0078669,34
1766015823.0078778,33
1766015823.0078888,34
1766015823.007901,34
1766015823.007912,37
1766015823.007923,34
1766015823.0079339,34
1766015823.00795,35
1766015823.007963,34
1766015823.007974,34
1766015823.0079849,37
1766015823.0079958,37
1766015823.0080068,34
1766015823.008018,35
1766015823.00803,37
1766015823.0080462,37
1766015823.0080588,36
1766015823.00807,37
1766015823.008081,35
1766015823.008092,36
1766015823.00811,39
1766015823.0081222,42
1766015823.0081348,37
1766015823.008148,40
1766015823.008159,38
1766015823.008171,40
1766015823.008182,40
1766015823.008193,42
1766015823.008204,40
1766015823.008215,39
1766015823.008227,43
1766015823.008238,39
1766015823.008249,40
1766015823.00826,40
1766015823.0082712,41
1766015823.0082822,41
1766015823.0082939,40
1766015823.0083048,36
1766015823.0083158,39
1766015823.0083299,39
1766015823.008343,39
1766015823.008356,39
1766015823.008367,42
1766015823.008378,37
1766015823.0083892,40
1766015823.008401,43
1766015823.008412,43
1766015823.008424,41
1766015823.008435,43
1766015823.008446,40
1766015823.00846,45
1766015823.008471,46
1766015823.0084841,43
1766015823.008497,44
1766015823.008509,44
1766015823.00852,43
1766015823.0085309,40
1766015823.008543,44
1766015823.008554,42
1766015823.008565,45
1766015823.008576,45
1766015823.0085871,43
1766015823.008599,45
1766015823.00861,43
1766015823.008621,44
1766015823.0086322,46
1766015823.0086432,44
1766015823.008654,45
1766015823.008665,45
1766015823.008677,46
1766015823.0086882,45
1766015823.0087,47
1766015823.008714,47
1766015823.008728,47
1766015823.008739,44
1766015823.00875,49
1766015823.0087612,44
1766015823.008773,50
1766015823.0087838,50
1766015823.0087948,49
1766015823.008806,52
1766015823.008817,50
1766015823.0088289,55
1766015823.0088398,52
1766015823.008851,51
1766015823.008863,50
1766015823.008874,50
1766015823.008885,49
1766015823.008896,51
1766015823.008907,52
1766015823.008918,51
1766015823.008929,54
1766015823.0089412,50
1766015823.0089521,51
1766015823.008963,51
1766015823.008974,49
1766015823.008986,50
1766015823.0089972,50
1766015823.0090082,55
1766015823.0090182,52
1766015823.0090292,55
1766015823.0090392,56
1766015823.0090508,57
1766015823.0090601,57
1766015823.0090728,57
1766015823.009085,56
1766015823.009096,59
1766015823.009113,55
1766015823.009124,57
1766015823.009134,58
1766015823.009144,59
1766015823.009154,57
1766015823.009164,57
1766015823.009173,55
1766015823.009184,57
1766015823.009195,55
1766015823.009206,55
1766015823.009216,57
1766015823.009226,58
1766015823.0092359,59
1766015823.0092459,57
1766015823.009255,58
1766015823.009266,60
1766015823.009275,61
1766015823.009286,64
1766015823.009295,63
1766015823.009305,60
1766015823.009315,62
1766015823.009325,62
1766015823.009335,65
1766015823.009345,63
1766015823.009355,60
1766015823.009365,61
1766015823.009374,64
1766015823.0093849,64
1766015823.009394,61
1766015823.009404,63
1766015823.009417,62
1766015823.009429,61
1766015823.009439,63
1766015823.009449,63
1766015823.009459,61
1766015823.009469,61
1766015823.0094788,60
1766015823.0094888,64
1766015823.0094988,64
1766015823.009509,62
1766015823.009519,60
1766015823.009529,61
1766015823.0095391,59
1766015823.0095491,60
1766015823.0095592,60
1766015823.009569,61
1766015823.009579,59
1766015823.009589,60
1766015823.009599,64
1766015823.009608,59
1766015823.0096178,63
1766015823.0096278,63
1766015823.0096378,61
1766015823.009648,62
1766015823.009658,62
1766015823.009668,62
1766015823.0096781,62
1766015823.0096881,61
1766015823.0096982,62
1766015823.009708,63
1766015823.009718,59
1766015823.009728,64
1766015823.009739,60
1766015823.009752,62
1766015823.009763,65
1766015823.009773,61
1766015823.009783,62
1766015823.009793,61
1766015823.009803,63
1766015823.009813,61
1766015823.009823,63
1766015823.009832,64
1766015823.0098429,64
1766015823.009852,62
1766015823.009862,60
1766015823.009872,65
1766015823.0098822,62
1766015823.009892,63
1766015823.009902,64
1766015823.009912,66
1766015823.009922,62
1766015823.009932,63
1766015823.009942,63
1766015823.009952,62
1766015823.009962,63
1766015823.0099719,66
1766015823.0099819,67
1766015823.009991,61
1766015823.010002,66
1766015823.010012,64
1766015823.010022,61
1766015823.0100322,62
1766015823.0100422,64
1766015823.0100522,62
1766015823.010062,65
1766015823.0100741,61
1766015823.010087,58
1766015823.0100968,59
1766015823.010112,66
1766015823.010123,63
1766015823.010135,62
1766015823.0101461,63
1766015823.010156,64
1766015823.010166,63
1766015823.010176,61
1766015823.010186,63
1766015823.010196,61
1766015823.010206,59
1766015823.010216,64
1766015823.010226,62
1766015823.0102358,64
1766015823.0102458,64
1766015823.010257,63
1766015823.0102668,58
1766015823.010276,62
1766015823.010286,59
1766015823.010297,62
1766015823.010307,59
1766015823.010317,60
1766015823.010327,62
1766015823.010337,63
1766015823.010346,60
1766015823.010356,60
1766015823.010368,60
1766015823.010378,60
1766015823.010388,62
1766015823.010398,62
1766015823.010408,59
1766015823.010421,61
1766015823.010433,59
1766015823.010443,59
1766015823.010452,59
1766015823.010462,62
1766015823.0104718,61
1766015823.0104818,63
1766015823.0104918,64
1766015823.0105019,62
1766015823.0105119,61
1766015823.0105212,62
1766015823.0105312,60
1766015823.010541,58
1766015823.010551,60
1766015823.010561,61
1766015823.010571,59
1766015823.010581,61
1766015823.010591,60
1766015823.010601,59
1766015823.010611,59
1766015823.0106208,58
1766015823.010632,61
1766015823.0106418,57
1766015823.0106518,58
1766015823.0106618,59
1766015823.0106711,61
1766015823.0106812,57
1766015823.0106912,57
1766015823.010701,60
1766015823.010711,59
1766015823.010721,61
1766015823.01073,60
1766015823.0107431,58
1766015823.010754,60
1766015823.010765,61
1766015823.010775,57
1766015823.010785,60
1766015823.010794,59
1766015823.010804,59
1766015823.010814,59
1766015823.010825,58
1766015823.010835,56
1766015823.010845,58
1766015823.010855,61
1766015823.010865,59
1766015823.010875,59
1766015823.0108852,59
1766015823.010895,60
1766015823.010905,55
1766015823.010915,58
1766015823.010925,59
1766015823.010934,59
1766015823.01103,61
1766015823.0110478,59
1766015823.011061,60
1766015823.011074,58
1766015823.0110872,59
1766015823.0110989,59
1766015823.011112,59
1766015823.011124,58
1766015823.011137,58
1766015823.0111501,57
1766015823.011162,59
1766015823.011175,57
1766015823.011193,54
1766015823.0112069,59
1766015823.011219,55
1766015823.011232,56
1766015823.011244,58
1766015823.0112572,54
1766015823.011269,57
1766015823.011282,56
1766015823.011294,59
1766015823.011307,53
1766015823.011319,59
1766015823.011332,57
1766015823.011344,54
1766015823.0113568,58
1766015823.011369,58
1766015823.011382,55
1766015823.011394,57
1766015823.0114062,57
1766015823.0114188,57
1766015823.011431,50
1766015823.0114439,57
1766015823.011457,58
1766015823.0114691,54
1766015823.011481,55
1766015823.011494,53
1766015823.0115058,56
1766015823.011519,57
1766015823.011531,51
1766015823.011544,54
1766015823.0115561,55
1766015823.011568,54
1766015823.011581,55
1766015823.0115929,50
1766015823.011611,53
1766015823.0116239,52
1766015823.011636,51
1766015823.0116491,51
1766015823.011661,54
1766015823.011673,53
1766015823.0116858,50
1766015823.011698,53
1766015823.011711,52
1766015823.011724,54
1766015823.0117362,53
1766015823.011749,52
1766015823.011761,53
1766015823.011774,54
1766015823.011787,52
1766015823.011799,50
1766015823.0118122,53
1766015823.0118241,50
1766015823.011837,50
1766015823.0118499,50
1766015823.011863,51
1766015823.0120509,49
1766015823.0120692,48
1766015823.0120819,51
1766015823.012095,47
1766015823.012108,47
1766015823.0121212,50
1766015823.0121338,50
1766015823.012196,50
1766015823.012213,47
1766015823.012226,48
1766015823.01224,48
1766015823.0122519,45
1766015823.0122712,51
1766015823.0122838,48
1766015823.012297,47
1766015823.01231,49
1766015823.012322,44
1766015823.012335,47
1766015823.012347,46
1766015823.0123599,43
1766015823.012373,43
1766015823.01239,49
1766015823.012403,44
1766015823.012416,45
1766015823.012428,44
1766015823.0124412,44
1766015823.0124538,45
1766015823.012466,44
1766015823.012479,43
1766015823.012492,45
1766015823.012505,42
1766015823.0125172,43
1766015823.0125299,44
1766015823.012543,45
1766015823.012556,44
1766015823.0125692,40
1766015823.012581,40
1766015823.012594,40
1766015823.0126069,44
1766015823.01262,39
1766015823.0126321,40
1766015823.012645,45
1766015823.0126579,38
1766015823.012671,41
1766015823.012688,41
1766015823.012701,40
1766015823.012714,39
1766015823.012727,39
1766015823.0127401,41
1766015823.0127518,41
1766015823.012765,37
1766015823.012778,39
1766015823.0127912,35
1766015823.012803,38
1766015823.012816,37
1766015823.0128288,36
1766015823.012841,37
1766015823.012854,38
1766015823.012867,35
1766015823.0128798,38
1766015823.012892,39
1766015823.012905,36
1766015823.012917,34
1766015823.0129302,35
1766015823.012943,36
1766015823.012955,35
1766015823.0129678,36
1766015823.01298,35
1766015823.012993,35
1766015823.013006,34
1766015823.0130188,37
1766015823.013031,35
1766015823.0130439,37
1766015823.013057,36
1766015823.0130692,36
1766015823.013082,35
1766015823.013163,33
1766015823.013241,33
1766015823.013255,33
1766015823.0132658,34
1766015823.0132768,31
1766015823.0132868,34
1766015823.013298,33
1766015823.013309,35
1766015823.01332,35
1766015823.013331,33
1766015823.013342,34
1766015823.013352,31
1766015823.013363,33
1766015823.0133739,34
1766015823.013386,32
1766015823.013397,34
1766015823.013442,32
1766015823.0134609,31
1766015823.013474,35
1766015823.013487,31
1766015823.0135,33
1766015823.013512,34
1766015823.013525,32
1766015823.0135381,30
1766015823.013551,35
1766015823.013563,31
1766015823.013576,30
1766015823.013589,33
1766015823.013602,34
1766015823.0136151,32
1766015823.013628,30
1766015823.0136409,32
1766015823.013653,32
1766015823.01367,31
1766015823.013684,33
1766015823.013697,30
1766015823.013709,29
1766015823.0137222,29
1766015823.0137348,30
1766015823.013748,29
1766015823.013761,29
1766015823.013773,31
1766015823.013786,31
1766015823.013798,33
1766015823.0138109,29
1766015823.013823,32
1766015823.0138361,28
1766015823.013848,28
1766015823.0138612,31
1766015823.0138729,30
1766015823.013886,29
1766015823.013898,31
1766015823.013911,32
1766015823.0139241,30
1766015823.013936,29
1766015823.013949,28
1766015823.013961,28
1766015823.013974,29
1766015823.013986,27
1766015823.013999,27
1766015823.0140119,29
1766015823.014024,28
1766015823.014037,32
1766015823.01405,30
1766015823.0140631,32
1766015823.014076,33
1766015823.014098,29
1766015823.014111,28
1766015823.014133,31
1766015823.014146,29
1766015823.014158,29
1766015823.014171,30
1766015823.014184,32
1766015823.014196,28
1766015823.014209,29
1766015823.0142221,28
1766015823.014237,24
1766015823.01425,28
1766015823.0142632,27
1766015823.014275,28
1766015823.014288,28
1766015823.0143008,29
1766015823.014313,26
1766015823.014326,26
1766015823.014339,26
1766015823.0143518,27
1766015823.014364,29
1766015823.0143769,29
1766015823.01439,26
1766015823.0144022,26
1766015823.014415,24
1766015823.014427,23
1766015823.0144398,27
1766015823.0144541,25
1766015823.014467,28
1766015823.0144799,28
1766015823.0144918,27
1766015823.014505,24
1766015823.014518,22
1766015823.014534,24
1766015823.01455,24
1766015823.0145621,27
1766015823.014575,25
1766015823.014587,27
1766015823.0146,22
1766015823.014615,25
1766015823.0146282,25
1766015823.0146408,24
1766015823.014654,25
1766015823.014666,25
1766015823.014679,27
1766015823.014692,24
1766015823.014705,26
1766015823.0147169,26
1766015823.01473,26
1766015823.014743,25
1766015823.014755,23
1766015823.0147681,23
1766015823.014781,22
1766015823.014793,25
1766015823.014806,26
1766015823.0148191,26
1766015823.014832,26
1766015823.014844,26
1766015823.014857,24
1766015823.01487,24
1766015823.014883,25
1766015823.0148962,24
1766015823.0149078,25
1766015823.01492,24
1766015823.014931,25
1766015823.014942,25
1766015823.01496,24
1766015823.014973,24
1766015823.014984,24
1766015823.014996,25
1766015823.015007,27
1766015823.015119,26
1766015823.017854,27
1766015823.0178828,26
1766015823.01791,26
1766015823.017965,25
1766015823.017985,25
1766015823.017996,26
1766015823.018007,24
1766015823.018018,24
1766015823.018029,26
1766015823.018039,27
1766015823.01805,26
1766015823.0180612,27
1766015823.0180721,25
1766015823.018083,23
1766015823.018093,24
1766015823.018104,21
1766015823.018115,23
1766015823.018126,26
1766015823.018137,22
1766015823.018147,21
1766015823.0181582,23
1766015823.0181692,26
1766015823.0181801,26
1766015823.018191,23
1766015823.018202,25
1766015823.018213,23
1766015823.018223,23
1766015823.018239,23
1766015823.018251,27
1766015823.018261,25
1766015823.018272,23
1766015823.018283,25
1766015823.018293,24
1766015823.018304,23
1766015823.018315,20
1766015823.018325,20
1766015823.018336,21
1766015823.018347,25
1766015823.018357,19
1766015823.018368,25
1766015823.018379,23
1766015823.01839,27
1766015823.0184,25
1766015823.018411,24
1766015823.018421,23
1766015823.018432,24
1766015823.018443,25
1766015823.018453,23
1766015823.018464,24
1766015823.018474,24
1766015823.018485,21
1766015823.018495,22
1766015823.018506,23
1766015823.018517,22
1766015823.018527,22
1766015823.018538,21
1766015823.018549,25
1766015823.018559,22
1766015823.01857,23
1766015823.018581,21
1766015823.018591,24
1766015823.018602,24
1766015823.018613,23
1766015823.0186229,25
1766015823.018634,26
1766015823.0186439,23
1766015823.018655,25
1766015823.018666,22
1766015823.018676,24
1766015823.018687,24
1766015823.018698,22
1766015823.018709,24
1766015823.01872,22
1766015823.01873,22
1766015823.018741,23
1766015823.018752,22
1766015823.0187619,23
1766015823.018773,21
1766015823.018784,21
1766015823.018794,22
1766015823.018805,21
1766015823.018816,25
1766015823.018826,22
1766015823.018837,24
1766015823.018848,22
1766015823.018859,24
1766015823.018869,25
1766015823.01888,22
1766015823.018891,24
1766015823.018901,23
1766015823.018912,22
1766015823.018922,24
1766015823.018933,24
1766015823.018944,24
1766015823.018954,21
1766015823.018965,25
1766015823.018975,23
1766015823.018986,24
1766015823.018996,23
1766015823.019007,23
1766015823.019018,20
1766015823.019028,27
1766015823.019039,25
1766015823.01905,22
1766015823.01906,20
1766015823.0190709,25
1766015823.019082,22
1766015823.019093,24
1766015823.019103,24
1766015823.019114,21
1766015823.019125,22
1766015823.019135,25
1766015823.019146,25
1766015823.019156,28
1766015823.019167,22
1766015823.019178,24
1766015823.019189,19
1766015823.019199,23
1766015823.01921,24
1766015823.019221,21
1766015823.019231,26
1766015823.019242,25
1766015823.019253,24
1766015823.019264,24
1766015823.019274,23
1766015823.019285,24
1766015823.019296,25
1766015823.019307,22
1766015823.019317,25
1766015823.019328,22
1766015823.019339,23
1766015823.01935,25
1766015823.019361,27
1766015823.019371,24
1766015823.019382,22
1766015823.019393,25
1766015823.019403,25
1766015823.019414,26
1766015823.019425,23
1766015823.019435,25
1766015823.0194461,28
1766015823.019457,27
1766015823.019468,25
1766015823.019478,27
1766015823.019489,28
1766015823.0195,23
1766015823.01951,24
1766015823.019524,24
1766015823.019535,25
1766015823.019545,28
1766015823.019556,26
1766015823.019567,25
1766015823.0195782,23
1766015823.019588,26
1766015823.0195992,25
1766015823.019611,24
1766015823.0196218,23
1766015823.019632,25
1766015823.0196428,27
1766015823.019711,23
1766015823.019722,25
1766015823.019733,27
1766015823.019743,27
1766015823.019754,27
1766015823.019765,28
1766015823.019775,24
1766015823.019786,24
1766015823.019797,28
1766015823.019808,25
1766015823.019819,24
1766015823.019829,25
1766015823.01984,24
1766015823.019851,27
1766015823.019862,28
1766015823.0198731,25
1766015823.019883,27
1766015823.0198941,26
1766015823.019904,25
1766015823.019915,25
1766015823.019926,25
1766015823.019937,23
1766015823.019947,23
1766015823.019958,26
1766015823.019969,26
1766015823.019979,24
1766015823.01999,25
1766015823.020001,26
1766015823.0200121,26
1766015823.020022,26
1766015823.0200331,24
1766015823.020043,24
1766015823.020054,23
1766015823.020065,26
1766015823.020075,26
1766015823.020086,28
1766015823.020097,24
1766015823.020108,28
1766015823.020118,26
1766015823.020129,28
1766015823.020139,28
1766015823.02015,25
1766015823.020161,23
1766015823.020172,28
1766015823.020183,25
1766015823.020194,29
1766015823.020205,25
1766015823.020215,26
1766015823.020226,29
1766015823.020237,28
1766015823.0202482,28
1766015823.0202591,25
1766015823.02027,26
1766015823.0202801,25
1766015823.020291,25
1766015823.020302,26
1766015823.020313,26
1766015823.020323,24
1766015823.020334,29
1766015823.020345,25
1766015823.0203562,28
1766015823.0203662,23
1766015823.0203772,23
1766015823.0203881,28
1766015823.0203981,27
1766015823.020409,27
1766015823.0204191,27
1766015823.02043,28
1766015823.020441,27
1766015823.020451,24
1766015823.020462,25
1766015823.020473,28
1766015823.0204842,24
1766015823.0204952,25
1766015823.0205052,26
1766015823.0205162,23
1766015823.0205271,24
1766015823.020538,23
1766015823.020548,23
1766015823.020559,24
1766015823.02057,26
1766015823.02058,27
1766015823.020591,24
1766015823.0206022,27
1766015823.020612,24
1766015823.0206232,24
1766015823.0206342,25
1766015823.0206442,27
1766015823.0206552,26
1766015823.0206661,27
1766015823.0206761,23
1766015823.020687,25
1766015823.020698,22
1766015823.020708,27
1766015823.020719,27
1766015823.02073,24
1766015823.0207412,23
1766015823.020751,23
1766015823.0207622,27
1766015823.0207732,24
1766015823.0207841,26
1766015823.021207,27
1766015823.022223,24
1766015823.023264,27
1766015823.0247538,28
1766015823.0252218,25
1766015823.0262442,28
1766015823.0272262,27
1766015823.02823,24
1766015823.0292292,27
1766015823.030292,25
1766015823.031328,25
1766015823.032907,28
1766015823.033234,28
1766015823.0342631,27
1766015823.035247,23
1766015823.036256,27
1766015823.037237,24
1766015823.0382552,25
1766015823.039472,26
1766015823.0402958,25
1766015823.041286,24
1766015823.042259,21
1766015823.043255,22
1766015823.044332,26
1766015823.045311,27
1766015823.046289,26
1766015823.047283,25
1766015823.048264,24
1766015823.049291,27
1766015823.0503192,23
1766015823.051316,24
1766015823.052276,27
1766015823.0532951,26
1766015823.054283,27
1766015823.055306,25
1766015823.056319,25
1766015823.0572832,24
1766015823.0582778,23
1766015823.0593789,24
1766015823.0603101,25
1766015823.061333,23
1766015823.06236,25
1766015823.063367,24
1766015823.064348,27
1766015823.0653272,27
1766015823.066337,26
1766015823.067368,27
1766015823.0684218,26
1766015823.06934,23
1766015823.070409,23
1766015823.07141,22
1766015823.0723798,24
1766015823.0734148,24
1766015823.074353,23
1766015823.075416,25
1766015823.076386,24
1766015823.077416,27
1766015823.0783901,25
1766015823.079415,26
1766015823.080388,22
1766015823.081401,22
1766015823.082421,22
1766015823.083439,23
1766015823.084424,23
1766015823.085428,23
1766015823.0864792,27
1766015823.0874188,22
1766015823.0884411,26
1766015823.089456,25
1766015823.090407,27
1766015823.091409,22
1766015823.092445,25
1766015823.0934558,24
1766015823.094392,24
1766015823.0954509,24
1766015823.096446,24
1766015823.097476,24
1766015823.09846,25
1766015823.099433,23
1766015823.100457,24
1766015823.1014771,27
1766015823.102473,22
1766015823.103474,23
1766015823.104485,24
1766015823.1054778,27
1766015823.106464,21
1766015823.107498,27
1766015823.108462,24
1766015823.109488,24
1766015823.110504,24
1766015823.111501,24
1766015823.112493,27
1766015823.113479,23
1766015823.114486,21
1766015823.115502,25
1766015823.116541,24
1766015823.117492,23
1766015823.1184828,24
1766015823.119522,23
1766015823.1205041,23
1766015823.121495,24
1766015823.122472,21
1766015823.123507,23
1766015823.124481,22
1766015823.12552,22
1766015823.126522,23
1766015823.127529,23
1766015823.1285062,28
1766015823.1295202,23
1766015823.130517,24
1766015823.1315331,22
1766015823.132556,23
1766015823.133535,21
1766015823.134573,23
1766015823.135547,25
1766015823.136569,26
1766015823.137558,23
1766015823.138579,22
1766015823.1395462,21
1766015823.140578,23
1766015823.1415749,23
1766015823.142586,22
1766015823.143584,23
1766015823.144564,26
1766015823.145584,25
1766015823.146592,22
1766015823.1476212,22
1766015823.1485991,22
1766015823.149568,25
1766015823.15059,23
1766015823.151573,23
1766015823.1525939,23
1766015823.153596,21
1766015823.154608,24
1766015823.1556249,23
1766015823.1566122,23
1766015823.157613,21
1766015823.158626,22
1766015823.15961,25
1766015823.160627,20
1766015823.16164,24
1766015823.162646,24
1766015823.1636438,21
1766015823.164635,19
1766015823.1656342,22
1766015823.166637,23
1766015823.167634,22
1766015823.168651,22
1766015823.1696541,24
1766015823.170667,23
1766015823.171695,22
1766015823.1726668,20
1766015823.173651,22
1766015823.174651,24
1766015823.175652,23
1766015823.176669,21
1766015823.1776772,22
1766015823.178676,22
1766015823.179685,22
1766015823.1806898,19
1766015823.181694,23
1766015823.18267,22
1766015823.183692,22
1766015823.184701,20
1766015823.1857102,24
1766015823.186715,20
1766015823.187766,23
1766015823.188698,21
1766015823.1897228,22
1766015823.190696,20
1766015823.191682,23
1766015823.192737,19
1766015823.193707,21
1766015823.1947122,22
1766015823.195678,22
1766015823.196693,22
1766015823.197691,20
1766015823.198735,23
1766015823.1997309,24
1766015823.200696,21
1766015823.2017028,18
1766015823.202742,25
1766015823.203698,22
1766015823.2047381,20
1766015823.205744,21
1766015823.206754,21
1766015823.207724,22
1766015823.2087228,23
1766015823.2097611,21
1766015823.2107341,23
1766015823.211765,23
1766015823.2127612,23
1766015823.213734,25
1766015823.214802,23
1766015823.215786,23
1766015823.216734,22
1766015823.2177868,23
1766015823.218755,23
1766015823.219792,22
1766015823.220777,22
1766015823.221785,22
1766015823.222805,25
1766015823.223785,19
1766015823.2248058,25
1766015823.225803,20
1766015823.226822,23
1766015823.22782,22
1766015823.228826,22
1766015823.22982,20
1766015823.2308202,25
1766015823.231817,21
1766015823.232827,20
1766015823.233831,25
1766015823.2348568,21
1766015823.23585,22
1766015823.23685,24
1766015823.2378528,20
1766015823.238851,22
1766015823.239851,24
1766015823.240841,21
1766015823.2418702,23
1766015823.24287,20
1766015823.243853,23
1766015823.244873,25
1766015823.245861,26
1766015823.246874,24
1766015823.247871,23
1766015823.248883,22
1766015823.2498748,22
1766015823.2508821,26
1766015823.25189,21
1766015823.252886,26
1766015823.253889,22
1766015823.2548978,21
1766015823.255889,22
1766015823.2568882,23
1766015823.257889,22
1766015823.258902,21
1766015823.259913,21
1766015823.260916,24
1766015823.2619,24
1766015823.2629418,21
1766015823.2639308,24
1766015823.264929,21
1766015823.265942,25
1766015823.266939,21
1766015823.267935,22
1766015823.268929,24
1766015823.269959,27
1766015823.270942,22
1766015823.2719512,24
1766015823.272971,23
1766015823.273943,23
1766015823.274967,24
1766015823.275973,22
1766015823.2769659,20
1766015823.277976,24
1766015823.2789812,24
1766015823.279983,25
1766015823.280982,23
1766015823.281985,25
1766015823.2829921,26
1766015823.283985,27
1766015823.284992,22
1766015823.285975,21
1766015823.286989,26
1766015823.2879941,28
1766015823.28898,24
1766015823.290003,21
1766015823.2910101,26
1766015823.292016,27
1766015823.293031,23
1766015823.294007,24
1766015823.2950149,24
1766015823.296006,23
1766015823.297013,24
1766015823.2980301,27
1766015823.299011,23
1766015823.300021,26
1766015823.3010209,27
1766015823.3020391,25
1766015823.303031,25
1766015823.304058,23
1766015823.305057,25
1766015823.306043,27
1766015823.307054,24
1766015823.3080661,23
1766015823.309055,26
1766015823.3100648,25
1766015823.311072,28
1766015823.312076,27
1766015823.313073,28
1766015823.314074,29
1766015823.315077,28
1766015823.3160782,28
1766015823.317089,28
1766015823.318096,26
1766015823.319086,28
1766015823.320086,27
1766015823.321109,26
1766015823.3221,26
1766015823.3230941,31
1766015823.324102,28
1766015823.325108,27
1766015823.326186,27
1766015823.327202,27
1766015823.328236,28
1766015823.32921,27
1766015823.330209,30
1766015823.331218,25
1766015823.3321989,27
1766015823.333222,24
1766015823.3342001,27
1766015823.3351989,27
1766015823.336179,29
1766015823.337169,28
1766015823.338157,26
1766015823.339166,25
1766015823.340152,29
1766015823.3411572,23
1766015823.342164,25
1766015823.3431602,25
1766015823.3441532,26
1766015823.34516,29
1766015823.34615,28
1766015823.347158,27
1766015823.3481548,26
1766015823.34915,25
1766015823.350154,25
1766015823.351158,25
1766015823.352145,23
1766015823.353143,27
1766015823.3541389,26
1766015823.3551319,26
1766015823.3561668,28
1766015823.357186,23
1766015823.3582022,28
1766015823.35919,24
1766015823.360221,30
1766015823.361206,28
1766015823.362229,30
1766015823.36323,28
1766015823.364223,28
1766015823.3652349,29
1766015823.366268,31
1766015823.3673,31
1766015823.368286,30
1766015823.369306,32
1766015823.370257,30
1766015823.3712661,32
1766015823.372272,31
1766015823.373253,29
1766015823.374225,31
1766015823.3752582,28
1766015823.376246,30
1766015823.377246,28
1766015823.378241,35
1766015823.379241,30
1766015823.380269,35
1766015823.381276,36
1766015823.38226,36
1766015823.383262,39
1766015823.384256,39
1766015823.3852649,40
1766015823.386273,40
1766015823.3872871,40
1766015823.388274,41
1766015823.389271,42
1766015823.390273,36
1766015823.3912792,36
1766015823.392319,40
1766015823.393288,36
1766015823.394294,38
1766015823.395303,40
1766015823.396482,39
1766015823.397294,37
1766015823.398321,41
1766015823.399311,39
1766015823.400324,40
1766015823.401314,43
1766015823.4023218,44
1766015823.403332,48
1766015823.4043388,45
1766015823.40533,52
1766015823.4063349,50
1766015823.40733,52
1766015823.408297,53
1766015823.4093351,53
1766015823.410345,55
1766015823.41133,53
1766015823.41234,56
1766015823.413354,54
1766015823.414312,53
1766015823.415346,60
1766015823.416364,64
1766015823.417374,66
1766015823.418368,70
1766015823.419359,78
1766015823.420365,84
1766015823.4213738,90
1766015823.4223611,97
1766015823.4233541,96
1766015823.424376,93
1766015823.425389,98
1766015823.426385,95
1766015823.427391,97
1766015823.428381,98
1766015823.429374,98
1766015823.430499,101
1766015823.431411,99
1766015823.4324758,103
1766015823.433515,106
1766015823.4345012,105
1766015823.435494,105
1766015823.436492,106
1766015823.437508,106
1766015823.438547,107
1766015823.439511,106
1766015823.4404852,102
1766015823.441563,106
1766015823.442525,102
1766015823.443508,102
1766015823.444532,100
1766015823.445431,99
1766015823.446505,102
1766015823.447516,101
1766015823.448548,105
1766015823.4495208,104
1766015823.450548,107
1766015823.451544,105
1766015823.452544,103
1766015823.453577,102
1766015823.454541,102
1766015823.455551,101
1766015823.456547,101
1766015823.457556,103
1766015823.458536,103
1766015823.459539,104
1766015823.4605582,113
1766015823.461545,117
1766015823.462552,120
1766015823.463557,122
1766015823.4645681,120
1766015823.4655712,123
1766015823.4665852,123
1766015823.4675672,124
1766015823.4685829,122
1766015823.46958,122
1766015823.4705741,122
1766015823.471609,122
1766015823.47259,118
1766015823.473598,120
1766015823.474606,122
1766015823.475609,120
1766015823.476607,120
1766015823.477611,119
1766015823.478616,118
1766015823.479608,120
1766015823.4806159,116
1766015823.481615,115
1766015823.482621,113
1766015823.4836211,112
1766015823.484631,113
1766015823.485625,110
1766015823.48662,114
1766015823.487623,111
1766015823.488618,113
1766015823.48964,113
1766015823.490651,113
1766015823.4916532,112
1766015823.492639,116
1766015823.493645,115
1766015823.4946592,116
1766015823.495656,115
1766015823.496661,116
1766015823.497659,120
1766015823.498668,122
1766015823.499671,120
1766015823.5006552,118
1766015823.501665,117
1766015823.50267,117
1766015823.503664,119
1766015823.504677,116
1766015823.5056791,117
1766015823.506696,119
1766015823.5076602,121
1766015823.508682,120
1766015823.509685,121
1766015823.5106812,122
1766015823.511677,122
1766015823.512682,123
1766015823.513649,125
1766015823.5146801,128
1766015823.515719,129
1766015823.516713,131
1766015823.5177019,134
1766015823.518708,133
1766015823.519719,133
1766015823.52071,135
1766015823.5217128,133
1766015823.522721,135
1766015823.52372,136
1766015823.524726,134
1766015823.525738,136
1766015823.5267441,135
1766015823.5277472,132
1766015823.528739,131
1766015823.529763,132
1766015823.5307362,131
1766015823.5317519,131
1766015823.532747,134
1766015823.53376,132
1766015823.5347579,128
1766015823.535768,130
1766015823.53677,128
1766015823.537771,128
1766015823.5387762,126
1766015823.5397701,125
1766015823.540788,125
1766015823.541775,120
1766015823.5427809,121
1766015823.543772,125
1766015823.544791,127
1766015823.545794,131
1766015823.546795,140
1766015823.547797,139
1766015823.548797,141
1766015823.549797,144
1766015823.550795,143
1766015823.551798,143
1766015823.552802,140
1766015823.553813,139
1766015823.55482,141
1766015823.555826,142
1766015823.556821,141
1766015823.557832,140
1766015823.558816,138
1766015823.559833,137
1766015823.560831,136
1766015823.561834,135
1766015823.56284,132
1766015823.563851,130
1766015823.564833,130
1766015823.565842,129
1766015823.5668302,129
1766015823.5678442,123
1766015823.5688472,124
1766015823.569856,125
1766015823.5708642,124
1766015823.571866,120
1766015823.572856,119
1766015823.573854,121
1766015823.574873,122
1766015823.5758772,129
1766015823.5768619,135
1766015823.57786,141
1766015823.578882,143
1766015823.579885,142
1766015823.5808709,143
1766015823.58188,141
1766015823.582892,140
1766015823.583882,140
1766015823.584894,139
1766015823.585877,140
1766015823.586913,139
1766015823.5879,139
1766015823.5888891,135
1766015823.5899122,136
1766015823.590899,134
1766015823.591912,130
1766015823.592916,132
1766015823.59391,129
1766015823.594939,132
1766015823.595911,127
1766015823.5969,126
1766015823.5979362,124
1766015823.59894,124
1766015823.599948,123
1766015823.600938,121
1766015823.601917,117
1766015823.602956,120
1766015823.603966,120
1766015823.604943,124
1766015823.6059399,126
1766015823.6069582,128
1766015823.607955,128
1766015823.608958,127
1766015823.609959,127
1766015823.61098,125
1766015823.6119978,123
1766015823.612994,122
1766015823.6139789,124
1766015823.614979,120
1766015823.6159801,118
1766015823.616987,116
1766015823.618007,117
1766015823.618992,119
1766015823.6199832,116
1766015823.620992,117
1766015823.621994,116
1766015823.6229918,117
1766015823.624,116
1766015823.624992,115
1766015823.6260102,111
1766015823.627018,109
1766015823.628026,110
1766015823.629015,110
1766015823.630023,109
1766015823.631032,107
1766015823.632023,108
1766015823.633031,108
1766015823.6340292,114
1766015823.635038,111
1766015823.6360471,112
1766015823.6370401,119
1766015823.6380491,120
1766015823.639037,117
1766015823.640051,117
1766015823.641043,117
1766015823.642057,112
1766015823.6430569,115
1766015823.64406,114
1766015823.6450639,114
1766015823.646066,114
1766015823.6470678,113
1766015823.6480799,113
1766015823.6490629,110
1766015823.650081,108
1766015823.6510878,110
1766015823.652086,111
1766015823.65309,110
1766015823.654099,111
1766015823.655081,111
1766015823.656085,110
1766015823.657105,111
1766015823.6581109,109
1766015823.659096,106
1766015823.660198,109
1766015823.661195,104
1766015823.662195,104
1766015823.6631901,103
1766015823.664202,103
1766015823.66519,104
1766015823.666197,101
1766015823.6670249,98
1766015823.6680279,99
1766015823.669048,97
1766015823.6700249,97
1766015823.671197,100
1766015823.6720371,94
1766015823.673054,92
1766015823.674043,94
1766015823.675045,94
1766015823.676058,96
1766015823.677047,98
1766015823.678189,103
1766015823.679192,108
1766015823.680199,116
1766015823.681195,121
1766015823.682194,118
1766015823.6832042,114
1766015823.6841931,117
1766015823.685194,119
1766015823.686191,126
1766015823.687191,124
1766015823.6881971,123
1766015823.689193,120
1766015823.690192,122
1766015823.691196,118
1766015823.6921961,119
1766015823.6931992,115
1766015823.694206,115
1766015823.695209,111
1766015823.6962,112
1766015823.69723,112
1766015823.698205,111
1766015823.6992152,110
1766015823.700211,107
1766015823.701213,107
1766015823.702212,108
1766015823.7032058,103
1766015823.704204,104
1766015823.7052412,105
1766015823.70626,105
1766015823.7072341,102
1766015823.70816,99
1766015823.709206,100
1766015823.710228,100
1766015823.711193,98
1766015823.71219,99
1766015823.713192,99
1766015823.714187,98
1766015823.715183,99
1766015823.716254,100
1766015823.717186,98
1766015823.718185,97
1766015823.719193,95
1766015823.7201989,95
1766015823.721192,94
1766015823.722195,94
1766015823.7231848,97
1766015823.7241862,95
1766015823.7252,99
1766015823.726285,100
1766015823.72718,97
1766015823.7281852,99
1766015823.729308,101
1766015823.73029,103
1766015823.731292,102
1766015823.7323148,102
1766015823.733312,100
1766015823.734307,102
1766015823.735311,101
1766015823.736319,101
1766015823.737244,99
1766015823.738316,101
1766015823.7392151,97
1766015823.740225,97
1766015823.741317,103
1766015823.742319,100
1766015823.7433379,101
1766015823.744334,100
1766015823.745327,106
1766015823.746329,102
1766015823.747361,101
1766015823.748262,98
1766015823.749357,100
1766015823.7502542,97
1766015823.751255,98
1766015823.7522528,98
1766015823.753265,95
1766015823.7542558,98
1766015823.755252,95
1766015823.756255,96
1766015823.757293,93
1766015823.758284,95
1766015823.7592902,95
1766015823.760281,94
1766015823.761299,92
1766015823.7622888,95
1766015823.763297,93
1766015823.7643158,91
1766015823.765301,91
1766015823.766281,94
1766015823.767296,91
1766015823.768307,91
1766015823.769311,92
1766015823.770318,93
1766015823.7713149,97
1766015823.772417,100
1766015823.773314,99
1766015823.7744288,102
1766015823.7754319,100
1766015823.776321,98
1766015823.777337,99
1766015823.778316,97
1766015823.7793431,99
1766015823.780334,99
1766015823.781433,101
1766015823.78235,98
1766015823.78334,95
1766015823.784378,97
1766015823.7853582,95
1766015823.786347,94
1766015823.787356,93
1766015823.788359,93
1766015823.7893498,94
1766015823.7903638,93
1766015823.7913752,91
1766015823.7923808,96
1766015823.793382,97
1766015823.794376,99
1766015823.7954812,105
1766015823.796492,102
1766015823.797477,102
1766015823.7984798,103
1766015823.7994728,101
1766015823.8004942,100
1766015823.801491,102
1766015823.802497,101
1766015823.803499,100
1766015823.8044102,98
1766015823.805428,98
1766015823.8064158,97
1766015823.8074188,95
1766015823.808444,96
1766015823.809412,94
1766015823.810438,92
1766015823.811428,92
1766015823.8124402,92
1766015823.8134432,93
1766015823.8144362,93
1766015823.815434,92
1766015823.816462,92
1766015823.817465,93
1766015823.818451,89
1766015823.819456,91
1766015823.820462,92
1766015823.821478,90
1766015823.82246,89
1766015823.823454,86
1766015823.8244731,91
1766015823.825472,90
1766015823.826477,92
1766015823.827492,93
1766015823.8284779,89
1766015823.829469,94
1766015823.830473,94
1766015823.831483,93
1766015823.8324878,91
1766015823.8334908,93
1766015823.8345,90
1766015823.8354728,93
1766015823.836502,90
1766015823.837496,91
1766015823.838495,91
1766015823.8395011,89
1766015823.840506,87
1766015823.841494,88
1766015823.8425002,86
1766015823.843518,83
1766015823.844508,84
1766015823.845501,84
1766015823.8465312,85
1766015823.84753,85
1766015823.848516,84
1766015823.849525,82
1766015823.850532,80
1766015823.851535,84
1766015823.852536,83
1766015823.853533,83
1766015823.854532,82
1766015823.855537,81
1766015823.8565419,79
1766015823.857544,79
1766015823.8585558,79
1766015823.859561,85
1766015823.860564,83
1766015823.861557,81
1766015823.862566,80
1766015823.863551,78
1766015823.864557,79
1766015823.865574,80
1766015823.8666098,81
1766015823.86758,79
1766015823.868592,82
1766015823.869578,78
1766015823.870582,82
1766015823.871594,83
1766015823.872588,85
1766015823.873589,87
1766015823.874592,90
1766015823.875595,90
1766015823.8766,94
1766015823.8776052,89
1766015823.878606,88
1766015823.879605,87
1766015823.880609,92
1766015823.88162,90
1766015823.882626,95
1766015823.88362,95
1766015823.884726,100
1766015823.885622,97
1766015823.886613,95
1766015823.887617,93
1766015823.888646,94
1766015823.88962,94
1766015823.890638,89
1766015823.89164,89
1766015823.892638,88
1766015823.8936472,88
1766015823.894654,87
1766015823.8956559,87
1766015823.896663,86
1766015823.897664,84
1766015823.898667,84
1766015823.899673,87
1766015823.900664,87
1766015823.901668,85
1766015823.902667,84
1766015823.903671,83
1766015823.904694,83
1766015823.905689,83
1766015823.9066722,84
1766015823.9076731,85
1766015823.9086988,84
1766015823.909686,84
1766015823.910697,83
1766015823.9117,82
1766015823.9127,79
1766015823.913715,81
1766015823.914709,80
1766015823.915712,80
1766015823.916713,77
1766015823.917711,78
1766015823.918709,78
1766015823.919722,78
1766015823.920725,81
1766015823.921729,76
1766015823.922715,79
1766015823.923747,77
1766015823.9247308,77
1766015823.9257421,80
1766015823.926749,79
1766015823.927739,75
1766015823.9287481,78
1766015823.92975,77
1766015823.93075,79
1766015823.9317682,79
1766015823.932777,85
1766015823.933779,87
1766015823.934783,86
1766015823.9357939,86
1766015823.936773,80
1766015823.937772,84
1766015823.9387798,82
1766015823.939801,84
1766015823.940781,82
1766015823.94181,83
1766015823.942781,83
1766015823.9437928,82
1766015823.9448059,82
1766015823.9458098,80
1766015823.946794,84
1766015823.947795,83
1766015823.9488032,80
1766015823.94981,80
1766015823.950805,79
1766015823.951817,78
1766015823.952826,77
1766015823.953824,80
1766015823.954804,79
1766015823.955811,78
1766015823.9568372,78
1766015823.9578319,77
1766015823.958838,76
1766015823.959834,76
1766015823.960833,76
1766015823.961833,74
1766015823.962831,73
1766015823.963852,72
1766015823.964848,74
1766015823.965852,72
1766015823.966847,70
1766015823.9678621,70
1766015823.968844,71
1766015823.969881,69
1766015823.970869,70
1766015823.97188,69
1766015823.972863,70
1766015823.973871,72
1766015823.9748852,68
1766015823.9758852,70
1766015823.976896,68
1766015823.977879,71
1766015823.9788852,69
1766015823.9798882,63
1766015823.9808939,64
1766015823.981893,67
1766015823.9829152,69
1766015823.983893,68
1766015823.984898,68
1766015823.985913,68
1766015823.986908,72
1766015823.987921,73
1766015823.9889112,72
1766015823.989904,73
1766015823.990929,75
1766015823.9919412,74
1766015823.9929101,73
1766015823.993911,74
1766015823.994946,75
1766015823.995926,74
1766015823.996938,75
1766015823.997937,76
1766015823.998945,75
