timestamp,emg_value
1766015810.852434,81
1766015810.8524501,81
1766015810.852463,78
1766015810.8524742,81
1766015810.852486,76
1766015810.852499,77
1766015810.852511,78
1766015810.852522,84
1766015810.852534,88
1766015810.852546,90
1766015810.8525581,90
1766015810.852569,90
1766015810.852581,91
1766015810.8525922,97
1766015810.852606,100
1766015810.852621,103
1766015810.852632,99
1766015810.852648,101
1766015810.85266,99
1766015810.852672,98
1766015810.8526862,106
1766015810.852701,108
1766015810.852715,109
1766015810.852729,107
1766015810.852743,111
1766015810.852758,111
1766015810.852772,109
1766015810.8527858,111
1766015810.8528,109
1766015810.852822,105
1766015810.8528361,108
1766015810.85285,107
1766015810.852864,104
1766015810.852879,108
1766015810.8528929,102
1766015810.852906,103
1766015810.85292,106
1766015810.852934,104
1766015810.852948,104
1766015810.852962,108
1766015810.852976,106
1766015810.8529909,102
1766015810.8530052,100
1766015810.853019,105
1766015810.853033,102
1766015810.8530471,104
1766015810.8530612,102
1766015810.853075,100
1766015810.853086,98
1766015810.8531,100
1766015810.853111,99
1766015810.853122,97
1766015810.8531342,98
1766015810.853146,96
1766015810.853158,95
1766015810.853169,94
1766015810.85318,98
1766015810.853201,93
1766015810.8532128,89
1766015810.853224,92
1766015810.853236,91
1766015810.853247,92
1766015810.853258,90
1766015810.853269,85
1766015810.853281,86
1766015810.853295,85
1766015810.8533068,85
1766015810.853318,88
1766015810.853329,87
1766015810.85334,84
1766015810.8533518,83
1766015810.853363,85
1766015810.853374,89
1766015810.853386,86
1766015810.853398,85
1766015810.853409,88
1766015810.85342,85
1766015810.853438,86
1766015810.85345,86
1766015810.853462,88
1766015810.853473,85
1766015810.853485,86
1766015810.853496,86
1766015810.853508,87
1766015810.8535192,87
1766015810.853531,87
1766015810.8535419,88
1766015810.853554,86
1766015810.853565,82
1766015810.853578,86
1766015810.85359,83
1766015810.853601,87
1766015810.853612,84
1766015810.853625,84
1766015810.8536372,86
1766015810.853649,88
1766015810.8536599,91
1766015810.853672,97
1766015810.853686,100
1766015810.8537002,103
1766015810.8537111,99
1766015810.853725,104
1766015810.8537369,98
1766015810.853751,102
1766015810.853763,99
1766015810.853776,100
1766015810.853788,98
1766015810.853802,100
1766015810.8538141,98
1766015810.8538299,98
1766015810.853842,97
1766015810.853856,100
1766015810.853867,99
1766015810.853878,99
1766015810.853889,97
1766015810.8539011,99
1766015810.853914,101
1766015810.853926,99
1766015810.853937,99
1766015810.85395,99
1766015810.853962,97
1766015810.853974,94
1766015810.853985,93
1766015810.853996,95
1766015810.854007,94
1766015810.8540192,92
1766015810.8540301,91
1766015810.854041,92
1766015810.854052,91
1766015810.854066,86
1766015810.8540769,91
1766015810.8540878,86
1766015810.854099,87
1766015810.85411,85
1766015810.854122,83
1766015810.854133,83
1766015810.854144,83
1766015810.854156,83
1766015810.854167,81
1766015810.854178,81
1766015810.85419,81
1766015810.854201,75
1766015810.8542132,77
1766015810.854224,77
1766015810.854235,80
1766015810.8542469,78
1766015810.8542578,80
1766015810.854269,77
1766015810.85428,77
1766015810.854292,78
1766015810.854303,79
1766015810.85432,72
1766015810.854333,74
1766015810.854344,75
1766015810.854356,74
1766015810.854367,74
1766015810.854378,73
1766015810.854389,71
1766015810.854401,70
1766015810.854412,71
1766015810.854424,69
1766015810.854435,68
1766015810.8544471,68
1766015810.854458,70
1766015810.8544698,68
1766015810.854481,67
1766015810.854493,67
1766015810.8545039,67
1766015810.8545148,65
1766015810.854527,66
1766015810.854538,67
1766015810.854549,69
1766015810.85456,71
1766015810.8545752,68
1766015810.8545861,69
1766015810.8545978,70
1766015810.854609,67
1766015810.85462,69
1766015810.854631,67
1766015810.8546429,66
1766015810.8546538,67
1766015810.854666,66
1766015810.854677,67
1766015810.8546891,73
1766015810.854702,74
1766015810.8547142,83
1766015810.8547251,88
1766015810.8547359,88
1766015810.854748,86
1766015810.85476,85
1766015810.854771,88
1766015810.854783,87
1766015810.854796,88
1766015810.8548071,91
1766015810.854819,90
1766015810.85483,90
1766015810.854841,91
1766015810.8548532,89
1766015810.854864,93
1766015810.8548758,94
1766015810.854887,93
1766015810.854898,95
1766015810.85491,95
1766015810.8549209,96
1766015810.854933,92
1766015810.854944,93
1766015810.854955,92
1766015810.854967,94
1766015810.854978,92
1766015810.854989,95
1766015810.855001,93
1766015810.8550122,91
1766015810.8550231,92
1766015810.855034,90
1766015810.8550458,87
1766015810.855058,88
1766015810.8550699,88
1766015810.855082,88
1766015810.855093,87
1766015810.855105,87
1766015810.8551161,88
1766015810.855128,86
1766015810.855139,86
1766015810.8551512,84
1766015810.8551621,83
1766015810.855173,83
1766015810.8551848,83
1766015810.855196,84
1766015810.855208,85
1766015810.855219,80
1766015810.855231,81
1766015810.855242,84
1766015810.855253,83
1766015810.855267,76
1766015810.855278,78
1766015810.8552902,76
1766015810.8553011,78
1766015810.8553128,76
1766015810.8553238,73
1766015810.855336,75
1766015810.855347,72
1766015810.855358,74
1766015810.8553689,72
1766015810.855381,74
1766015810.855392,73
1766015810.8554041,71
1766015810.855416,70
1766015810.855427,72
1766015810.8554392,73
1766015810.8554518,67
1766015810.855463,69
1766015810.855475,69
1766015810.855486,73
1766015810.855497,69
1766015810.855509,72
1766015810.85552,74
1766015810.855531,74
1766015810.8555431,70
1766015810.855554,71
1766015810.855566,76
1766015810.855577,70
1766015810.8555892,72
1766015810.8556008,75
1766015810.8556118,72
1766015810.855624,72
1766015810.855635,70
1766015810.855646,69
1766015810.855658,70
1766015810.855669,69
1766015810.855681,68
1766015810.8556921,71
1766015810.855701,69
1766015810.855711,71
1766015810.855721,77
1766015810.855731,80
1766015810.855741,78
1766015810.8557508,82
1766015810.855762,82
1766015810.855772,81
1766015810.8557818,80
1766015810.855792,78
1766015810.855804,79
1766015810.855813,81
1766015810.855823,81
1766015810.855833,81
1766015810.855843,82
1766015810.855853,77
1766015810.855863,77
1766015810.855873,76
1766015810.8558831,80
1766015810.855893,79
1766015810.855903,79
1766015810.855913,77
1766015810.855923,80
1766015810.855933,80
1766015810.855943,87
1766015810.855954,88
1766015810.855963,90
1766015810.855974,93
1766015810.8559842,91
1766015810.8559942,94
1766015810.856004,98
1766015810.856014,94
1766015810.856024,94
1766015810.856034,92
1766015810.856044,95
1766015810.856055,96
1766015810.856065,95
1766015810.856075,94
1766015810.856086,93
1766015810.856096,92
1766015810.856106,96
1766015810.856116,96
1766015810.856127,94
1766015810.856138,94
1766015810.856149,95
1766015810.856159,94
1766015810.856168,95
1766015810.856179,95
1766015810.856189,90
1766015810.8561978,96
1766015810.8562078,93
1766015810.856218,95
1766015810.856228,95
1766015810.8562381,94
1766015810.8562481,92
1766015810.8562582,93
1766015810.856268,92
1766015810.856278,91
1766015810.856288,91
1766015810.856298,92
1766015810.856308,88
1766015810.856318,92
1766015810.856328,91
1766015810.856338,89
1766015810.8563478,89
1766015810.8563578,88
1766015810.856368,89
1766015810.856378,87
1766015810.856388,89
1766015810.856398,89
1766015810.856408,88
1766015810.8564181,93
1766015810.8564281,95
1766015810.856438,93
1766015810.856448,95
1766015810.856459,95
1766015810.856469,93
1766015810.856479,94
1766015810.85649,92
1766015810.8565,94
1766015810.85651,93
1766015810.85652,92
1766015810.856531,91
1766015810.856541,89
1766015810.856551,89
1766015810.856561,87
1766015810.856571,87
1766015810.8565812,88
1766015810.856591,86
1766015810.856601,87
1766015810.856611,82
1766015810.856621,86
1766015810.856631,86
1766015810.856641,82
1766015810.856651,84
1766015810.856661,84
1766015810.856671,83
1766015810.8566809,84
1766015810.856691,82
1766015810.856701,80
1766015810.856711,86
1766015810.8567219,84
1766015810.856732,86
1766015810.856742,83
1766015810.8567522,84
1766015810.8567622,84
1766015810.8567722,82
1766015810.8567839,86
1766015810.856794,83
1766015810.8568041,87
1766015810.8568141,85
1766015810.8568242,84
1766015810.856834,82
1766015810.856844,85
1766015810.856854,81
1766015810.856864,84
1766015810.856873,82
1766015810.856883,82
1766015810.8568928,81
1766015810.8569028,81
1766015810.8569129,82
1766015810.8569229,84
1766015810.856933,81
1766015810.8569431,84
1766015810.8569531,82
1766015810.8569632,79
1766015810.8569732,81
1766015810.856983,80
1766015810.856993,79
1766015810.857003,82
1766015810.857014,79
1766015810.857024,80
1766015810.857034,80
1766015810.857044,80
1766015810.857054,82
1766015810.857064,83
1766015810.857074,82
1766015810.8570838,84
1766015810.8570938,83
1766015810.857106,85
1766015810.857116,83
1766015810.857126,85
1766015810.857136,85
1766015810.857146,84
1766015810.857156,83
1766015810.857166,83
1766015810.857176,82
1766015810.857186,81
1766015810.857196,82
1766015810.857206,82
1766015810.857216,82
1766015810.857226,83
1766015810.857236,79
1766015810.857246,80
1766015810.857256,80
1766015810.857266,77
1766015810.857276,79
1766015810.857286,79
1766015810.857296,76
1766015810.857306,77
1766015810.8573172,75
1766015810.857326,74
1766015810.857336,74
1766015810.857346,77
1766015810.857357,71
1766015810.857367,71
1766015810.857377,73
1766015810.857387,75
1766015810.857397,71
1766015810.857407,74
1766015810.8574169,67
1766015810.857427,68
1766015810.8574378,70
1766015810.8574479,69
1766015810.8574579,68
1766015810.857468,68
1766015810.857478,69
1766015810.857488,62
1766015810.8574982,64
1766015810.8575082,65
1766015810.8575182,69
1766015810.857528,62
1766015810.857538,62
1766015810.857548,63
1766015810.857558,64
1766015810.857568,63
1766015810.857578,65
1766015810.857589,61
1766015810.857599,59
1766015810.85761,61
1766015810.85762,59
1766015810.857631,63
1766015810.857641,61
1766015810.857651,62
1766015810.857661,64
1766015810.857672,60
1766015810.857682,59
1766015810.857692,59
1766015810.8577018,58
1766015810.857712,56
1766015810.857723,57
1766015810.857733,56
1766015810.857743,57
1766015810.857753,57
1766015810.8577678,58
1766015810.8577778,61
1766015810.857789,60
1766015810.8578,60
1766015810.857813,61
1766015810.857823,60
1766015810.857833,63
1766015810.857843,62
1766015810.857853,60
1766015810.857863,58
1766015810.857873,59
1766015810.857883,59
1766015810.8578932,59
1766015810.857903,57
1766015810.857913,59
1766015810.857923,59
1766015810.857933,60
1766015810.857943,62
1766015810.857953,63
1766015810.857963,61
1766015810.857973,64
1766015810.8579829,62
1766015810.857993,63
1766015810.858003,58
1766015810.858013,60
1766015810.858023,58
1766015810.858034,61
1766015810.858044,59
1766015810.858054,59
1766015810.858064,59
1766015810.8580742,57
1766015810.8580842,59
1766015810.858098,57
1766015810.8581078,57
1766015810.8581178,55
1766015810.8581278,57
1766015810.8581388,54
1766015810.858149,55
1766015810.858159,55
1766015810.858169,56
1766015810.858179,55
1766015810.858189,59
1766015810.8581991,56
1766015810.8582091,56
1766015810.858219,56
1766015810.858229,55
1766015810.858241,55
1766015810.858251,56
1766015810.858261,55
1766015810.858271,54
1766015810.858281,55
1766015810.858291,53
1766015810.858301,54
1766015810.858311,52
1766015810.858321,54
1766015810.858331,53
1766015810.8583412,57
1766015810.858353,56
1766015810.858367,57
1766015810.85838,56
1766015810.858392,58
1766015810.858405,56
1766015810.858418,57
1766015810.8584309,55
1766015810.858444,56
1766015810.85846,57
1766015810.858474,58
1766015810.8584871,57
1766015810.858499,53
1766015810.858512,55
1766015810.858525,55
1766015810.858538,59
1766015810.858551,56
1766015810.858565,54
1766015810.858578,53
1766015810.858591,57
1766015810.858604,52
1766015810.858618,54
1766015810.858631,55
1766015810.858644,53
1766015810.8586571,52
1766015810.85867,52
1766015810.8586829,51
1766015810.858696,50
1766015810.858709,50
1766015810.8587232,51
1766015810.858736,50
1766015810.858749,52
1766015810.858762,53
1766015810.8587751,53
1766015810.858788,51
1766015810.8588018,50
1766015810.858815,49
1766015810.858828,52
1766015810.8588412,51
1766015810.8588538,50
1766015810.858867,49
1766015810.858885,52
1766015810.8589,47
1766015810.8589141,48
1766015810.858927,49
1766015810.8589408,47
1766015810.858954,46
1766015810.858967,50
1766015810.8589802,47
1766015810.8589928,47
1766015810.859006,49
1766015810.85902,48
1766015810.859033,48
1766015810.859047,51
1766015810.85906,47
1766015810.859073,48
1766015810.859086,49
1766015810.859099,47
1766015810.859112,47
1766015810.859126,45
1766015810.859139,50
1766015810.8591518,47
1766015810.859166,48
1766015810.859179,44
1766015810.859193,44
1766015810.859206,49
1766015810.8592188,45
1766015810.8592331,44
1766015810.859246,47
1766015810.8592582,46
1766015810.859272,44
1766015810.8592849,46
1766015810.859298,48
1766015810.859311,45
1766015810.859392,48
1766015810.8594089,46
1766015810.859423,48
1766015810.859436,47
1766015810.8594491,47
1766015810.8594618,47
1766015810.859475,48
1766015810.859489,45
1766015810.859502,45
1766015810.859516,46
1766015810.859529,43
1766015810.8595421,41
1766015810.859555,48
1766015810.859568,47
1766015810.859581,49
1766015810.8595939,49
1766015810.859607,48
1766015810.85962,49
1766015810.859633,49
1766015810.8596458,48
1766015810.859659,53
1766015810.859672,52
1766015810.859684,48
1766015810.8596969,51
1766015810.85971,48
1766015810.859724,47
1766015810.8597372,48
1766015810.8597498,47
1766015810.859762,43
1766015810.859775,47
1766015810.859788,45
1766015810.859801,46
1766015810.859839,44
1766015810.859853,46
1766015810.8598661,47
1766015810.859879,45
1766015810.859892,45
1766015810.859905,45
1766015810.859918,46
1766015810.859931,47
1766015810.859945,44
1766015810.859958,45
1766015810.859971,45
1766015810.859984,46
1766015810.859997,46
1766015810.86001,46
1766015810.860023,46
1766015810.8600361,48
1766015810.86005,49
1766015810.860063,49
1766015810.860076,45
1766015810.860089,47
1766015810.860102,51
1766015810.860115,47
1766015810.860128,45
1766015810.860141,49
1766015810.8601542,47
1766015810.860167,47
1766015810.86018,46
1766015810.860193,47
1766015810.860207,47
1766015810.86022,49
1766015810.860233,48
1766015810.860246,48
1766015810.8602629,45
1766015810.860276,47
1766015810.860289,46
1766015810.860302,49
1766015810.860318,48
1766015810.860332,44
1766015810.8603442,46
1766015810.860358,47
1766015810.8603709,46
1766015810.860384,44
1766015810.860397,46
1766015810.8604102,46
1766015810.8604228,46
1766015810.860436,46
1766015810.860449,46
1766015810.8604622,45
1766015810.8604748,40
1766015810.860488,45
1766015810.860501,44
1766015810.8605142,45
1766015810.860527,45
1766015810.86054,45
1766015810.860553,44
1766015810.860566,45
1766015810.860579,40
1766015810.8605921,45
1766015810.860605,47
1766015810.8606179,44
1766015810.860631,46
1766015810.860644,43
1766015810.860658,47
1766015810.8606699,44
1766015810.860686,44
1766015810.860699,43
1766015810.860712,43
1766015810.860725,44
1766015810.860738,45
1766015810.8607512,43
1766015810.8607638,44
1766015810.860778,43
1766015810.860791,46
1766015810.860804,48
1766015810.860818,46
1766015810.860831,45
1766015810.8608441,46
1766015810.860856,42
1766015810.8608692,46
1766015810.8608818,45
1766015810.860896,45
1766015810.860909,46
1766015810.860922,47
1766015810.860935,44
1766015810.860948,43
1766015810.860961,42
1766015810.860974,46
1766015810.860987,42
1766015810.8609998,43
1766015810.861013,45
1766015810.861027,46
1766015810.86104,43
1766015810.861053,45
1766015810.861067,44
1766015810.8610811,43
1766015810.861094,42
1766015810.8611069,41
1766015810.8611252,44
1766015810.8611379,44
1766015810.861151,45
1766015810.861164,43
1766015810.8611772,42
1766015810.8611908,43
1766015810.861203,43
1766015810.861216,42
1766015810.861229,41
1766015810.861242,44
1766015810.861255,41
1766015810.861268,43
1766015810.861281,45
1766015810.861294,40
1766015810.861307,42
1766015810.861321,41
1766015810.861334,45
1766015810.861347,43
1766015810.86136,44
1766015810.861372,42
1766015810.861386,43
1766015810.861398,46
1766015810.861411,40
1766015810.8614242,45
1766015810.861438,42
1766015810.861451,44
1766015810.861464,44
1766015810.861482,45
1766015810.861495,43
1766015810.8615081,44
1766015810.861521,44
1766015810.8615339,42
1766015810.861574,43
1766015810.861606,43
1766015810.861619,42
1766015810.861631,41
1766015810.861643,42
1766015810.861654,42
1766015810.861665,40
1766015810.8616772,42
1766015810.8616881,45
1766015810.861699,42
1766015810.861711,45
1766015810.8617222,38
1766015810.8617332,43
1766015810.8617449,45
1766015810.8617558,43
1766015810.861768,45
1766015810.861779,42
1766015810.86179,43
1766015810.861802,43
1766015810.861813,45
1766015810.861824,47
1766015810.861835,45
1766015810.861847,43
1766015810.8618581,43
1766015810.861869,43
1766015810.86188,44
1766015810.861892,44
1766015810.8619032,46
1766015810.8619142,45
1766015810.8619258,47
1766015810.8619368,46
1766015810.861949,47
1766015810.86196,49
1766015810.8619761,46
1766015810.861988,45
1766015810.861999,45
1766015810.862011,46
1766015810.862022,46
1766015810.862033,43
1766015810.8620448,46
1766015810.862057,46
1766015810.862068,45
1766015810.862079,46
1766015810.862091,46
1766015810.862102,48
1766015810.862113,46
1766015810.8621252,46
1766015810.862137,44
1766015810.862148,47
1766015810.86216,47
1766015810.862171,47
1766015810.862182,44
1766015810.8621929,45
1766015810.8622038,46
1766015810.862216,43
1766015810.862228,48
1766015810.862239,43
1766015810.86225,45
1766015810.862262,43
1766015810.862273,46
1766015810.8622851,42
1766015810.862296,41
1766015810.862307,45
1766015810.862319,43
1766015810.8623302,45
1766015810.862344,45
1766015810.862355,44
1766015810.862367,44
1766015810.862378,45
1766015810.862389,47
1766015810.8624,43
1766015810.862412,43
1766015810.862423,43
1766015810.862435,44
1766015810.862446,41
1766015810.862457,44
1766015810.8624692,45
1766015810.86248,43
1766015810.862491,44
1766015810.8625028,43
1766015810.862514,41
1766015810.862526,44
1766015810.862537,41
1766015810.8625479,44
1766015810.86256,42
1766015810.862571,45
1766015810.862583,40
1766015810.8625941,41
1766015810.862606,42
1766015810.862617,39
1766015810.8626292,40
1766015810.8626401,39
1766015810.8626509,42
1766015810.8626618,43
1766015810.862674,42
1766015810.862689,42
1766015810.8627,46
1766015810.862713,42
1766015810.862725,42
1766015810.862736,44
1766015810.862747,41
1766015810.8627589,46
1766015810.8627698,41
1766015810.8627808,41
1766015810.862793,41
1766015810.862804,44
1766015810.862815,42
1766015810.862827,45
1766015810.862838,42
1766015810.862849,42
1766015810.86286,43
1766015810.8628721,43
1766015810.862883,41
1766015810.862894,41
1766015810.862905,45
1766015810.8629172,51
1766015810.862928,48
1766015810.8629398,51
1766015810.8629508,51
1766015810.862963,52
1766015810.862975,47
1766015810.862986,49
1766015810.862997,54
1766015810.863009,56
1766015810.86302,53
1766015810.8630311,52
1766015810.863043,52
1766015810.863054,58
1766015810.863065,56
1766015810.8630779,58
1766015810.86309,55
1766015810.863101,56
1766015810.863113,54
1766015810.863124,57
1766015810.8631349,56
1766015810.863147,55
1766015810.863158,54
1766015810.8631701,57
1766015810.863181,52
1766015810.863193,56
1766015810.863204,56
1766015810.8632152,55
1766015810.863227,53
1766015810.8632379,53
1766015810.86325,57
1766015810.863261,57
1766015810.863272,56
1766015810.863283,57
1766015810.863295,58
1766015810.863306,57
1766015810.863318,57
1766015810.863329,60
1766015810.8633401,55
1766015810.863352,57
1766015810.863363,57
1766015810.8633752,54
1766015810.8633862,54
1766015810.8633971,56
1766015810.8634088,56
1766015810.86342,54
1766015810.863432,53
1766015810.863443,54
1766015810.863457,49
1766015810.863468,52
1766015810.86348,53
1766015810.863491,52
1766015810.863502,54
1766015810.8635142,55
1766015810.8635252,52
1766015810.8635361,54
1766015810.8635478,54
1766015810.863559,52
1766015810.86357,55
1766015810.863581,52
1766015810.8635929,54
1766015810.863604,54
1766015810.863616,56
1766015810.8636281,51
1766015810.863639,54
1766015810.86365,53
1766015810.863661,51
1766015810.863673,51
1766015810.8636842,49
1766015810.8636951,50
1766015810.863706,49
1766015810.8637178,50
1766015810.863729,51
1766015810.863741,51
1766015810.863752,49
1766015810.8637629,49
1766015810.863775,47
1766015810.863786,52
1766015810.863798,50
1766015810.863809,50
1766015810.8638248,54
1766015810.863837,49
1766015810.863849,54
1766015810.86386,52
1766015810.863872,51
1766015810.863883,51
1766015810.863894,51
1766015810.8639061,49
1766015810.863918,49
1766015810.863929,51
1766015810.8639412,50
1766015810.8639529,49
1766015810.863965,49
1766015810.863979,50
1766015810.86399,49
1766015810.864002,51
1766015810.864013,50
1766015810.8640242,50
1766015810.864036,50
1766015810.864047,50
1766015810.864059,51
1766015810.86407,50
1766015810.864081,54
1766015810.8640928,50
1766015810.864104,53
1766015810.864116,49
1766015810.864127,51
1766015810.864139,54
1766015810.86415,51
1766015810.864161,48
1766015810.8641732,53
1766015810.8641841,54
1766015810.864196,53
1766015810.8642108,56
1766015810.864222,51
1766015810.864234,57
1766015810.864245,56
1766015810.864257,54
1766015810.864268,56
1766015810.86428,53
1766015810.8642912,56
1766015810.864303,56
1766015810.864314,58
1766015810.864325,56
1766015810.864337,63
1766015810.864348,58
1766015810.864359,62
1766015810.864371,63
1766015810.864383,62
1766015810.864394,61
1766015810.864406,67
1766015810.864417,64
1766015810.864429,65
1766015810.8644412,69
1766015810.864453,68
1766015810.8644638,68
1766015810.864476,65
1766015810.864487,67
1766015810.864498,69
1766015810.86451,68
1766015810.864521,66
1766015810.864532,68
1766015810.864544,67
1766015810.8645551,64
1766015810.864567,64
1766015810.864581,69
1766015810.8645918,66
1766015810.864604,65
1766015810.864615,63
1766015810.864626,62
1766015810.8646379,63
1766015810.864649,62
1766015810.86466,63
1766015810.864671,68
1766015810.864683,67
1766015810.864694,71
1766015810.864706,68
1766015810.864717,70
1766015810.8647292,66
1766015810.8647401,65
1766015810.864751,69
1766015810.864762,67
1766015810.864774,72
1766015810.864785,75
1766015810.8647969,75
1766015810.8648078,77
1766015810.864819,74
1766015810.86483,73
1766015810.864842,73
1766015810.864853,76
1766015810.864864,71
1766015810.864876,72
1766015810.864887,73
1766015810.864898,74
1766015810.8649092,73
1766015810.864921,72
1766015810.864932,73
1766015810.864948,71
1766015810.86496,69
1766015810.864972,69
1766015810.864983,70
1766015810.864994,69
1766015810.865006,68
1766015810.8650172,68
1766015810.8650281,71
1766015810.865039,68
1766015810.8650508,69
1766015810.865062,67
1766015810.865073,67
1766015810.865085,71
1766015810.8650959,69
1766015810.865108,71
1766015810.865119,71
1766015810.865131,70
1766015810.865143,76
1766015810.865155,69
1766015810.8651662,69
1766015810.8651772,67
1766015810.865189,70
1766015810.8652,70
1766015810.8652108,68
1766015810.865223,68
1766015810.865234,67
1766015810.8652449,72
1766015810.865257,73
1766015810.865268,72
1766015810.86528,71
1766015810.865291,73
1766015810.865302,70
1766015810.8653162,70
1766015810.865328,70
1766015810.8653388,71
1766015810.8653498,73
1766015810.865361,72
1766015810.865372,68
1766015810.8653839,72
1766015810.8653948,72
1766015810.865407,70
1766015810.865418,71
1766015810.86543,70
1766015810.865441,72
1766015810.8654552,74
1766015810.865466,71
1766015810.865477,75
1766015810.865489,75
1766015810.8655,77
1766015810.865511,77
1766015810.8655229,76
1766015810.865534,76
1766015810.865546,79
1766015810.865558,75
1766015810.865569,75
1766015810.86558,76
1766015810.865592,74
1766015810.865603,74
1766015810.8656151,76
1766015810.8656251,72
1766015810.8656352,73
1766015810.8656452,74
1766015810.865655,73
1766015810.865665,71
1766015810.865675,68
1766015810.86569,70
1766015810.8657012,74
1766015810.8657112,71
1766015810.865721,73
1766015810.865731,71
1766015810.865741,74
1766015810.865751,70
1766015810.865761,74
1766015810.865771,78
1766015810.865781,75
1766015810.865791,81
1766015810.8658009,78
1766015810.8658109,77
1766015810.865821,77
1766015810.865831,78
1766015810.865841,75
1766015810.8658519,78
1766015810.865862,75
1766015810.865872,74
1766015810.8658822,74
1766015810.8658922,71
1766015810.865901,73
1766015810.865911,73
1766015810.865921,71
1766015810.865931,72
1766015810.865941,70
1766015810.865951,70
1766015810.865961,69
1766015810.8659708,69
1766015810.8659809,65
1766015810.8659909,64
1766015810.866001,65
1766015810.8660119,67
1766015810.866025,65
1766015810.866038,67
1766015810.866048,66
1766015810.8660579,67
1766015810.866068,67
1766015810.866078,66
1766015810.866088,65
1766015810.866098,64
1766015810.866108,62
1766015810.866118,62
1766015810.866128,62
1766015810.8661382,63
1766015810.866148,63
1766015810.866158,64
1766015810.866168,62
1766015810.866178,63
1766015810.866188,65
1766015810.866198,63
1766015810.866208,66
1766015810.866218,63
1766015810.866229,62
1766015810.866241,65
1766015810.866251,63
1766015810.866261,63
1766015810.866271,65
1766015810.866282,61
1766015810.866292,64
1766015810.866304,62
1766015810.8663151,61
1766015810.866325,63
1766015810.866335,62
1766015810.866345,63
1766015810.866356,58
1766015810.866369,61
1766015810.8663812,61
1766015810.866391,60
1766015810.866401,57
1766015810.866411,61
1766015810.866421,61
1766015810.866431,61
1766015810.866441,62
1766015810.866451,60
1766015810.866461,62
1766015810.8664708,60
1766015810.8664808,60
1766015810.8664908,58
1766015810.8665018,57
1766015810.8665118,59
1766015810.866522,59
1766015810.866532,60
1766015810.866543,61
1766015810.866554,61
1766015810.866566,60
1766015810.8665779,58
1766015810.8665879,58
1766015810.866598,57
1766015810.8666759,56
1766015810.8666902,58
1766015810.8667,58
1766015810.86671,58
1766015810.86672,57
1766015810.86673,58
1766015810.86674,59
1766015810.866751,58
1766015810.866761,58
1766015810.866796,56
1766015810.866806,58
1766015810.866816,58
1766015810.866826,56
1766015810.866836,59
1766015810.866847,56
1766015810.866857,55
1766015810.866868,55
1766015810.866878,57
1766015810.866888,54
1766015810.8668978,52
1766015810.8669078,53
1766015810.8669188,54
1766015810.8669288,55
1766015810.8669388,56
1766015810.8669498,57
1766015810.866961,55
1766015810.8669708,56
1766015810.866981,54
1766015810.866991,55
1766015810.867002,56
1766015810.867012,56
1766015810.867023,54
1766015810.867033,53
1766015810.867043,54
1766015810.8670561,52
1766015810.8670661,54
1766015810.8670762,53
1766015810.8670862,51
1766015810.8670971,50
1766015810.867108,53
1766015810.8671181,49
1766015810.8673122,53
1766015810.867328,52
1766015810.867338,50
1766015810.867349,50
1766015810.867359,52
1766015810.867369,51
1766015810.86738,46
1766015810.86739,50
1766015810.8674,50
1766015810.86741,50
1766015810.86742,47
1766015810.867431,46
1766015810.867441,48
1766015810.867451,50
1766015810.8675032,48
1766015810.867525,49
1766015810.867578,50
1766015810.86759,46
1766015810.867601,48
1766015810.867611,48
1766015810.867622,51
1766015810.8676322,48
1766015810.86769,46
1766015810.867701,48
1766015810.867712,48
1766015810.867722,49
1766015810.867732,48
1766015810.86781,47
1766015810.867852,50
1766015810.8678641,49
1766015810.867875,48
1766015810.867885,45
1766015810.867897,46
1766015810.86791,46
1766015810.86792,44
1766015810.8679302,44
1766015810.8679411,44
1766015810.8679512,46
1766015810.8679621,44
1766015810.8679721,45
1766015810.8679821,42
1766015810.8679922,43
1766015810.868064,44
1766015810.868167,44
1766015810.868178,45
1766015810.868188,46
1766015810.8681989,45
1766015810.8682098,42
1766015810.8682199,45
1766015810.8682299,40
1766015810.868254,40
1766015810.868265,44
1766015810.868275,43
1766015810.868324,41
1766015810.868339,40
1766015810.868351,41
1766015810.868361,43
1766015810.868371,42
1766015810.8683798,39
1766015810.868421,42
1766015810.868431,40
1766015810.8684402,40
1766015810.868473,40
1766015810.868491,39
1766015810.868591,38
1766015810.868625,43
1766015810.8686368,41
1766015810.8686469,40
1766015810.8686569,39
1766015810.8686662,41
1766015810.868675,42
1766015810.868685,40
1766015810.868694,40
1766015810.868704,40
1766015810.868713,38
1766015810.8687239,37
1766015810.868734,38
1766015810.8687549,40
1766015810.868779,36
1766015810.868789,34
1766015810.868798,37
1766015810.8688068,34
1766015810.8688169,37
1766015810.8688262,37
1766015810.868835,38
1766015810.868844,36
1766015810.868853,38
1766015810.868862,38
1766015810.868871,38
1766015810.8688798,35
1766015810.868889,37
1766015810.868899,34
1766015810.868908,36
1766015810.868917,36
1766015810.868926,33
1766015810.8689349,35
1766015810.868944,35
1766015810.868952,34
1766015810.8689651,35
1766015810.8689752,32
1766015810.868984,34
1766015810.868993,33
1766015810.8690019,36
1766015810.869011,36
1766015810.8690188,35
1766015810.869028,34
1766015810.869038,37
1766015810.869046,32
1766015810.869056,37
1766015810.869065,35
1766015810.8690739,33
1766015810.869083,32
1766015810.869092,32
1766015810.869101,33
1766015810.86911,33
1766015810.869119,33
1766015810.869128,30
1766015810.8691368,33
1766015810.869146,31
1766015810.8691552,32
1766015810.869164,31
1766015810.869173,27
1766015810.8691819,31
1766015810.869191,30
1766015810.8691998,28
1766015810.869209,28
1766015810.869218,31
1766015810.869227,30
1766015810.869236,32
1766015810.8692448,32
1766015810.8692539,32
1766015810.869266,31
1766015810.8692758,32
1766015810.869285,32
1766015810.8692942,29
1766015810.869303,30
1766015810.869312,30
1766015810.8693209,30
1766015810.86933,28
1766015810.869339,30
1766015810.869348,30
1766015810.869357,28
1766015810.869366,28
1766015810.869375,29
1766015810.869384,29
1766015810.8693929,28
1766015810.8694022,28
1766015810.869411,26
1766015810.86942,27
1766015810.8694289,30
1766015810.869438,29
1766015810.869447,27
1766015810.869457,31
1766015810.86947,27
1766015810.869479,26
1766015810.8694882,27
1766015810.869497,30
1766015810.869507,28
1766015810.869515,25
1766015810.869524,27
1766015810.8695328,30
1766015810.869542,26
1766015810.8695512,26
1766015810.86956,27
1766015810.8695722,28
1766015810.8695831,27
1766015810.869592,28
1766015810.869601,26
1766015810.86961,28
1766015810.869619,30
1766015810.869628,26
1766015810.869637,26
1766015810.869647,27
1766015810.869656,23
1766015810.869665,29
1766015810.869674,25
1766015810.869683,27
1766015810.8696918,28
1766015810.8697011,28
1766015810.86971,29
1766015810.869719,23
1766015810.869728,24
1766015810.869737,26
1766015810.869746,24
1766015810.8697548,29
1766015810.869764,28
1766015810.8697731,23
1766015810.869783,26
1766015810.869792,24
1766015810.869801,26
1766015810.8698099,25
1766015810.869819,27
1766015810.869828,25
1766015810.869837,26
1766015810.869846,24
1766015810.869855,27
1766015810.869864,24
1766015810.869876,25
1766015810.869886,25
1766015810.869895,25
1766015810.8699038,27
1766015810.869913,22
1766015810.8699222,24
1766015810.869931,26
1766015810.86994,26
1766015810.8699489,25
1766015810.869958,25
1766015810.8699672,23
1766015810.869976,22
1766015810.869985,24
1766015810.869994,22
1766015810.870003,26
1766015810.8700118,25
1766015810.870021,24
1766015810.8700302,24
1766015810.870039,25
1766015810.870048,25
1766015810.8700569,26
1766015810.870066,26
1766015810.870075,22
1766015810.870084,25
1766015810.870093,24
1766015810.870102,22
1766015810.870111,25
1766015810.87012,23
1766015810.8701282,20
1766015810.870137,24
1766015810.870147,22
1766015810.87021,24
1766015810.87022,25
1766015810.870235,20
1766015810.870247,21
1766015810.870257,26
1766015810.8702662,25
1766015810.8702762,21
1766015810.870285,21
1766015810.870295,28
1766015810.870338,21
1766015810.870347,21
1766015810.870356,21
1766015810.870365,23
1766015810.8704221,23
1766015810.870432,24
1766015810.870442,23
1766015810.870451,25
1766015810.870461,23
1766015810.8704698,26
1766015810.870479,22
1766015810.8704882,22
1766015810.870498,25
1766015810.8705091,25
1766015810.870518,25
1766015810.870527,22
1766015810.870537,24
1766015810.8705459,21
1766015810.870555,23
1766015810.870564,21
1766015810.870573,23
1766015810.870583,22
1766015810.870592,27
1766015810.870601,24
1766015810.87061,21
1766015810.87062,23
1766015810.870629,23
1766015810.870642,21
1766015810.870652,20
1766015810.870661,23
1766015810.87067,23
1766015810.8706791,25
1766015810.870688,23
1766015810.870697,24
1766015810.8707058,22
1766015810.8707159,24
1766015810.8707252,21
1766015810.870734,22
1766015810.870743,25
1766015810.870753,24
1766015810.8707619,26
1766015810.870771,23
1766015810.87078,24
1766015810.870789,21
1766015810.870798,23
1766015810.870807,25
1766015810.870816,25
1766015810.870825,25
1766015810.8708348,23
1766015810.870844,24
1766015810.8708532,23
1766015810.870862,27
1766015810.870871,23
1766015810.87088,26
1766015810.870889,24
1766015810.870898,24
1766015810.8709068,24
1766015810.870917,22
1766015810.8709261,23
1766015810.870935,27
1766015810.870948,22
1766015810.870958,25
1766015810.8709671,23
1766015810.870976,23
1766015810.870985,22
1766015810.8709939,28
1766015810.871003,25
1766015810.8710122,23
1766015810.871021,22
1766015810.87103,23
1766015810.871039,27
1766015810.871048,21
1766015810.8710568,21
1766015810.871066,20
1766015810.8710752,25
1766015810.871084,22
1766015810.871093,25
1766015810.8711019,20
1766015810.871111,22
1766015810.87112,21
1766015810.871129,22
1766015810.871138,24
1766015810.871147,23
1766015810.871156,22
1766015810.871165,25
1766015810.8711739,26
1766015810.8711832,21
1766015810.8711932,23
1766015810.871202,21
1766015810.871211,25
1766015810.8712199,24
1766015810.871229,21
1766015810.871238,26
1766015810.871252,22
1766015810.871261,24
1766015810.87127,21
1766015810.871281,22
1766015810.8712902,20
1766015810.871299,26
1766015810.871308,22
1766015810.871317,24
1766015810.871327,25
1766015810.871336,23
1766015810.8713448,25
1766015810.8713548,25
1766015810.8713899,21
1766015810.871403,22
1766015810.871412,24
1766015810.8714209,23
1766015810.8714309,24
1766015810.87144,22
1766015810.8714502,21
1766015810.871458,23
1766015810.871468,23
1766015810.871477,22
1766015810.871486,25
1766015810.871495,27
1766015810.8715038,23
1766015810.8715131,22
1766015810.871522,21
1766015810.871531,22
1766015810.871541,22
1766015810.871575,24
1766015810.8715851,24
1766015810.871594,22
1766015810.871603,23
1766015810.871636,24
1766015810.871645,22
1766015810.8716538,24
1766015810.871688,23
1766015810.871698,22
1766015810.871707,25
1766015810.871716,24
1766015810.871725,20
1766015810.871734,22
1766015810.871743,23
1766015810.871752,25
1766015810.8717608,24
1766015810.8717701,21
1766015810.871779,23
1766015810.871788,22
1766015810.871797,23
1766015810.871806,22
1766015810.871815,23
1766015810.8718238,25
1766015810.871833,22
1766015810.871841,22
1766015810.87185,24
1766015810.8718588,22
1766015810.871868,26
1766015810.8718772,22
1766015810.871886,22
1766015810.871895,24
1766015810.871904,23
1766015810.871913,23
1766015810.871922,26
1766015810.8719308,22
1766015810.8719401,25
1766015810.871954,22
1766015810.871964,23
1766015810.871974,21
1766015810.871983,23
1766015810.871992,25
1766015810.872001,21
1766015810.872009,27
1766015810.8720179,24
1766015810.872027,27
1766015810.872036,25
1766015810.872045,27
1766015810.872054,23
1766015810.872063,21
1766015810.872072,25
1766015810.8720808,25
1766015810.87209,26
1766015810.8720992,24
1766015810.872108,22
1766015810.872117,25
1766015810.8721259,24
1766015810.872135,24
1766015810.872144,24
1766015810.872153,24
1766015810.8721652,29
1766015810.872174,24
1766015810.872184,23
1766015810.872192,28
1766015810.872201,25
1766015810.87221,23
1766015810.8722188,24
1766015810.8722281,27
1766015810.872237,26
1766015810.872246,22
1766015810.872268,25
1766015810.872277,25
1766015810.8722858,23
1766015810.872295,28
1766015810.8723042,26
1766015810.872313,25
1766015810.872322,24
1766015810.872331,24
1766015810.87234,26
1766015810.872349,28
1766015810.8723578,28
1766015810.8723671,26
1766015810.872375,27
1766015810.872384,26
1766015810.872393,26
1766015810.872402,25
1766015810.8724108,26
1766015810.87242,26
1766015810.8724291,25
1766015810.872438,23
1766015810.872447,27
1766015810.872457,25
1766015810.8724658,25
1766015810.872475,26
1766015810.8724842,24
1766015810.872494,26
1766015810.872503,24
1766015810.872512,22
1766015810.872521,27
1766015810.87253,27
1766015810.8725388,28
1766015810.872548,25
1766015810.872561,23
1766015810.872572,28
1766015810.872581,28
1766015810.87259,26
1766015810.8725991,23
1766015810.872608,26
1766015810.872617,25
1766015810.8726258,27
1766015810.872635,23
1766015810.8726442,26
1766015810.872653,24
1766015810.872662,27
1766015810.872671,24
1766015810.87268,25
1766015810.872689,21
1766015810.872698,24
1766015810.8727129,27
1766015810.872722,27
1766015810.872731,25
1766015810.87274,25
1766015810.872749,27
1766015810.872758,26
1766015810.872767,25
1766015810.872776,23
1766015810.8727849,20
1766015810.8727942,26
1766015810.872803,26
1766015810.872812,26
1766015810.872821,24
1766015810.87283,24
1766015810.872839,26
1766015810.8728478,24
1766015810.872857,26
1766015810.87287,25
1766015810.872882,24
1766015810.872891,23
1766015810.8729,23
1766015810.872909,24
1766015810.8729181,27
1766015810.872927,24
1766015810.872937,26
1766015810.872946,25
1766015810.8729548,25
1766015810.8729641,26
1766015810.872973,26
1766015810.872982,22
1766015810.872991,24
1766015810.873,22
1766015810.873017,23
1766015810.8730261,25
1766015810.873034,23
1766015810.873043,26
1766015810.8730528,24
1766015810.8730612,24
1766015810.87307,24
1766015810.873079,25
1766015810.873089,25
1766015810.873097,23
1766015810.873106,22
1766015810.8731148,26
1766015810.873125,23
1766015810.8731341,23
1766015810.873143,25
1766015810.873152,23
1766015810.87316,25
1766015810.873169,27
1766015810.873184,24
1766015810.873201,24
1766015810.873209,25
1766015810.873218,24
1766015810.873234,24
1766015810.8732429,25
1766015810.8732522,22
1766015810.873261,25
1766015810.87327,27
1766015810.873279,21
1766015810.873288,26
1766015810.873298,25
1766015810.873307,20
1766015810.873316,25
1766015810.873325,22
1766015810.873333,23
1766015810.873342,24
1766015810.8733509,25
1766015810.87336,23
1766015810.873369,23
1766015810.873378,21
1766015810.873387,26
1766015810.873396,23
1766015810.873405,23
1766015810.8734138,21
1766015810.8734238,24
1766015810.873433,21
1766015810.873442,20
1766015810.873451,23
1766015810.87346,25
1766015810.8734689,23
1766015810.873478,23
1766015810.873486,23
1766015810.8734999,22
1766015810.8735082,23
1766015810.8735192,24
1766015810.873527,21
1766015810.873535,20
1766015810.873543,23
1766015810.8735502,22
1766015810.873558,21
1766015810.873566,22
1766015810.8735738,20
1766015810.8735821,21
1766015810.87359,26
1766015810.8735979,20
1766015810.873606,21
1766015810.873614,24
1766015810.873621,22
1766015810.87363,20
1766015810.873638,22
1766015810.873646,25
1766015810.873653,24
1766015810.873661,24
1766015810.8736691,22
1766015810.873677,23
1766015810.873685,22
1766015810.873693,26
1766015810.873701,23
1766015810.873709,22
1766015810.873717,24
1766015810.873725,22
1766015810.873732,21
1766015810.87374,24
1766015810.873748,22
1766015810.873756,25
1766015810.873764,24
1766015810.873777,23
1766015810.8737862,23
1766015810.873795,17
1766015810.873803,22
1766015810.873811,23
1766015810.8738189,25
1766015810.873827,23
1766015810.873835,24
1766015810.873843,21
1766015810.8738508,20
1766015810.8738592,22
1766015810.873867,21
1766015810.873875,19
1766015810.8738828,20
1766015810.873891,22
1766015810.873899,24
1766015810.8739069,23
1766015810.873915,23
1766015810.873923,22
1766015810.873931,22
1766015810.873939,26
1766015810.873947,24
1766015810.873955,20
1766015810.873962,21
1766015810.873971,19
1766015810.8739781,24
1766015810.873986,18
1766015810.8739939,20
1766015810.874002,23
1766015810.87401,24
1766015810.874018,20
1766015810.874026,21
1766015810.874034,22
1766015810.874042,21
1766015810.874052,20
1766015810.874063,21
1766015810.8740711,22
1766015810.874079,21
1766015810.8740869,22
1766015810.8740952,19
1766015810.874103,20
1766015810.874111,24
1766015810.8741188,21
1766015810.8741262,21
1766015810.874134,21
1766015810.874142,21
1766015810.8741498,20
1766015810.8741581,23
1766015810.874166,21
1766015810.8741739,20
1766015810.874182,20
1766015810.87419,22
1766015810.874198,21
1766015810.874206,23
1766015810.874214,20
1766015810.874222,22
1766015810.87423,20
1766015810.874238,21
1766015810.874246,22
1766015810.874254,20
1766015810.874262,20
1766015810.87427,19
1766015810.8742778,23
1766015810.8742862,23
1766015810.874294,24
1766015810.874302,24
1766015810.8743098,22
1766015810.8743198,20
1766015810.874329,21
1766015810.8743382,20
1766015810.874346,20
1766015810.874354,20
1766015810.8743622,25
1766015810.87437,22
1766015810.874377,21
1766015810.8743849,23
1766015810.874393,21
1766015810.874401,22
1766015810.874409,19
1766015810.874418,20
1766015810.8744261,23
1766015810.874434,19
1766015810.874442,21
1766015810.87445,20
1766015810.8744571,22
1766015810.874465,21
1766015810.8744729,22
1766015810.874481,20
1766015810.874489,21
1766015810.874497,22
1766015810.874505,22
1766015810.874513,20
1766015810.874521,19
1766015810.874528,22
1766015810.874536,18
1766015810.8745441,24
1766015810.874552,22
1766015810.87456,19
1766015810.874568,20
1766015810.8745759,21
1766015810.874584,21
1766015810.874594,21
1766015810.874604,18
1766015810.8746119,22
1766015810.87462,19
1766015810.874628,21
1766015810.874636,21
1766015810.874644,23
1766015810.874652,21
1766015810.87466,21
1766015810.874667,21
1766015810.874675,23
1766015810.874683,24
1766015810.874691,23
1766015810.874699,20
1766015810.874707,23
1766015810.8747149,19
1766015810.874723,22
1766015810.874731,20
1766015810.874739,23
1766015810.8747468,22
1766015810.8747551,21
1766015810.874763,20
1766015810.8747709,20
1766015810.874779,20
1766015810.874787,22
1766015810.874795,24
1766015810.8748028,21
1766015810.874811,19
1766015810.874819,18
1766015810.874827,23
1766015810.874835,19
1766015810.874843,23
1766015810.874851,21
1766015810.874861,18
1766015810.874869,22
1766015810.874878,22
1766015810.8748858,22
1766015810.8748941,21
1766015810.874902,22
1766015810.874909,21
1766015810.874917,24
1766015810.8749251,17
1766015810.874933,22
1766015810.874942,21
1766015810.87495,23
1766015810.874959,21
1766015810.874967,22
1766015810.874975,19
1766015810.8749828,21
1766015810.8749912,20
1766015810.874999,22
1766015810.875007,22
1766015810.875015,22
1766015810.8750231,22
1766015810.875031,22
1766015810.8750389,21
1766015810.875047,20
1766015810.875055,21
1766015810.875063,22
1766015810.875071,19
1766015810.875079,16
1766015810.875087,19
1766015810.8750951,20
1766015810.875102,21
1766015810.87511,22
1766015810.875118,22
1766015810.8751261,22
1766015810.875136,22
1766015810.875146,21
1766015810.875154,21
1766015810.8751621,23
1766015810.87517,19
1766015810.875178,21
1766015810.875186,21
1766015810.875194,19
1766015810.875202,21
1766015810.87521,18
1766015810.875218,22
1766015810.875226,18
1766015810.8752341,18
1766015810.875242,19
1766015810.8752499,21
1766015810.8752582,21
1766015810.875266,22
1766015810.875274,22
1766015810.8752818,18
1766015810.8752902,21
1766015810.875298,21
1766015810.875306,18
1766015810.875314,19
1766015810.875322,22
1766015810.87533,18
1766015810.875338,20
1766015810.875346,20
1766015810.875354,19
1766015810.8753622,23
1766015810.87537,21
1766015810.875378,20
1766015810.875386,19
1766015810.875394,23
1766015810.875405,23
1766015810.875413,17
1766015810.875424,18
1766015810.875433,18
1766015810.8754408,20
1766015810.8754492,22
1766015810.875457,25
1766015810.875465,23
1766015810.8754728,22
1766015810.8754802,20
1766015810.875488,18
1766015810.875496,21
1766015810.875504,21
1766015810.8755121,23
1766015810.875521,23
1766015810.8755279,22
1766015810.875536,19
1766015810.875544,20
1766015810.875552,20
1766015810.87556,20
1766015810.8755682,21
1766015810.875576,22
1766015810.875584,19
1766015810.875592,24
1766015810.8755999,19
1766015810.875608,21
1766015810.87567,20
1766015810.875679,18
1766015810.875687,22
1766015810.875695,21
1766015810.875703,19
1766015810.875711,22
1766015810.8757188,19
1766015810.8757272,19
1766015810.8757372,23
1766015810.875746,22
1766015810.8757539,22
1766015810.875762,21
1766015810.87577,23
1766015810.875778,21
1766015810.875786,22
1766015810.875794,21
1766015810.875802,19
1766015810.8758101,20
1766015810.875818,19
1766015810.875826,23
1766015810.8758342,21
1766015810.875842,20
1766015810.87585,22
1766015810.8758578,23
1766015810.8758662,23
1766015810.875874,24
1766015810.875882,21
1766015810.87589,21
1766015810.8758981,22
1766015810.875906,26
1766015810.875914,21
1766015810.875922,19
1766015810.8759308,20
1766015810.8759391,18
1766015810.875947,23
1766015810.8759549,19
1766015810.875963,20
1766015810.875971,23
1766015810.875979,18
1766015810.8759859,21
1766015810.8759942,23
1766015810.8760052,23
1766015810.876014,23
1766015810.876023,22
1766015810.876031,21
1766015810.876039,18
1766015810.8760471,20
1766015810.876055,20
1766015810.8760629,21
1766015810.876071,24
1766015810.876079,23
1766015810.876087,24
1766015810.876095,20
1766015810.876103,24
1766015810.876111,22
1766015810.8761191,18
1766015810.876127,23
1766015810.8761349,26
1766015810.8761432,20
1766015810.8761501,21
1766015810.876158,20
1766015810.8761659,19
1766015810.876174,20
1766015810.876182,23
1766015810.87619,21
1766015810.8761978,20
1766015810.8762062,23
1766015810.876214,18
1766015810.876222,21
1766015810.87623,24
1766015810.876238,23
1766015810.876246,22
1766015810.8762538,21
1766015810.876262,20
1766015810.87627,25
1766015810.876284,23
1766015810.8762932,20
1766015810.876301,21
1766015810.876309,20
1766015810.876317,19
1766015810.8763251,21
1766015810.876333,21
1766015810.876341,21
1766015810.876349,23
1766015810.876357,20
1766015810.876365,19
1766015810.876373,20
1766015810.876381,19
1766015810.876389,22
1766015810.8763971,22
1766015810.876405,20
1766015810.8764129,23
1766015810.8764212,22
1766015810.8764281,22
1766015810.876436,20
1766015810.8764439,22
1766015810.8764522,19
1766015810.87646,19
1766015810.876468,20
1766015810.8764758,20
1766015810.8764842,22
1766015810.876492,22
1766015810.8765,23
1766015810.876508,17
1766015810.876516,23
1766015810.876524,19
1766015810.876532,20
1766015810.87654,22
1766015810.87655,22
1766015810.87656,22
1766015810.8765671,24
1766015810.876575,21
1766015810.8765829,22
1766015810.8765912,22
1766015810.876599,22
1766015810.876607,21
1766015810.8766148,18
1766015810.8766232,20
1766015810.876631,18
1766015810.876639,22
1766015810.876647,24
1766015810.876655,19
1766015810.876663,21
1766015810.876671,21
1766015810.876679,20
1766015810.876687,20
1766015810.8766952,23
1766015810.876703,19
1766015810.876711,20
1766015810.876719,19
1766015810.876727,20
1766015810.876734,22
1766015810.876742,23
1766015810.87675,22
1766015810.876758,22
1766015810.876766,21
1766015810.8767738,20
1766015810.8767822,20
1766015810.87679,22
1766015810.876798,24
1766015810.8768058,24
1766015810.8768158,21
1766015810.8768241,20
1766015810.8768342,20
1766015810.876842,21
1766015810.87685,21
1766015810.876858,24
1766015810.876866,20
1766015810.876874,24
1766015810.8768818,21
1766015810.8768902,23
1766015810.876898,23
1766015810.876906,21
1766015810.876914,21
1766015810.8769221,22
1766015810.87693,23
1766015810.8769379,22
1766015810.876946,21
1766015810.876954,25
1766015810.876961,23
1766015810.8769689,23
1766015810.876977,21
1766015810.876985,22
1766015810.876993,22
1766015810.877001,19
1766015810.877009,20
1766015810.877017,20
1766015810.8770251,19
1766015810.877033,21
1766015810.8770409,21
1766015810.877049,19
1766015810.877058,22
1766015810.877065,19
1766015810.8770728,18
1766015810.877082,20
1766015810.8770921,21
1766015810.877101,21
1766015810.877109,18
1766015810.877117,21
1766015810.877125,23
1766015810.8771331,25
1766015810.877141,21
1766015810.8771489,22
1766015810.8771572,21
1766015810.877165,21
1766015810.877173,20
1766015810.8771808,19
1766015810.8771892,22
1766015810.877197,19
1766015810.877205,21
1766015810.877213,21
1766015810.877221,23
1766015810.877229,23
1766015810.877237,21
1766015810.877245,19
1766015810.877253,21
1766015810.8772612,23
1766015810.877269,21
1766015810.877277,19
1766015810.877285,20
1766015810.877293,20
1766015810.877301,22
1766015810.8773088,22
1766015810.8773172,21
1766015810.877325,22
1766015810.877333,22
1766015810.877341,21
1766015810.8773491,18
1766015810.87736,22
1766015810.877368,19
1766015810.877377,22
1766015810.877386,22
1766015810.877394,22
1766015810.877402,20
1766015810.8774111,19
1766015810.877419,19
1766015810.8774269,19
1766015810.877435,18
1766015810.877443,19
1766015810.877451,19
1766015810.877459,22
1766015810.877467,20
1766015810.877475,20
1766015810.877483,20
1766015810.877491,22
1766015810.8774989,20
1766015810.877507,21
1766015810.877515,22
1766015810.877523,22
1766015810.8775308,20
1766015810.8775392,21
1766015810.877547,21
1766015810.877555,22
1766015810.877564,20
1766015810.877571,20
1766015810.877579,21
1766015810.8775868,21
1766015810.877595,20
1766015810.877603,26
1766015810.877611,21
1766015810.877619,19
1766015810.877627,22
1766015810.8776371,24
1766015810.8776472,20
1766015810.877655,24
1766015810.877663,21
1766015810.8776698,21
1766015810.8776782,19
1766015810.877686,20
1766015810.877694,19
1766015810.877702,20
1766015810.87771,21
1766015810.877718,21
1766015810.8777258,22
1766015810.877734,20
1766015810.877742,22
1766015810.87775,21
1766015810.877758,22
1766015810.877766,21
1766015810.877774,22
1766015810.877782,21
1766015810.87779,19
1766015810.8777978,22
1766015810.8778062,22
1766015810.877814,23
1766015810.877822,21
1766015810.8778298,22
1766015810.8778381,19
1766015810.877846,20
1766015810.8778539,23
1766015810.877862,21
1766015810.87787,21
1766015810.877878,24
1766015810.877886,23
1766015810.877894,24
1766015810.877904,23
1766015810.877912,20
1766015810.87792,21
1766015810.877928,23
1766015810.8779361,21
1766015810.8779452,21
1766015810.877952,25
1766015810.87796,21
1766015810.8779678,22
1766015810.8779762,24
1766015810.877984,22
1766015810.8779929,19
1766015810.878001,20
1766015810.878009,20
1766015810.878017,23
1766015810.878025,26
1766015810.878033,23
1766015810.878041,25
1766015810.8780491,22
1766015810.878057,21
1766015810.8780649,22
1766015810.878073,23
1766015810.878081,23
1766015810.878089,24
1766015810.8780968,20
1766015810.8781052,20
1766015810.878113,21
1766015810.878121,24
1766015810.878129,21
1766015810.878137,22
1766015810.878145,20
1766015810.8781528,23
1766015810.878161,23
1766015810.878169,20
1766015810.878177,23
1766015810.878185,23
1766015810.878193,22
1766015810.878201,25
1766015810.878209,23
1766015810.878217,21
1766015810.8782248,21
1766015810.8782332,22
1766015810.878241,20
1766015810.878249,23
1766015810.8782568,20
1766015810.8782651,24
1766015810.878273,22
1766015810.8782809,22
1766015810.878289,19
1766015810.878298,22
1766015810.8783062,20
1766015810.878314,24
1766015810.878321,22
1766015810.878329,18
1766015810.878337,22
1766015810.878345,21
1766015810.8783529,25
1766015810.878361,24
1766015810.87837,26
1766015810.878379,24
1766015810.878387,25
1766015810.8783948,20
1766015810.8784032,23
1766015810.878411,20
1766015810.878419,24
1766015810.8784268,24
1766015810.8784351,22
1766015810.878443,22
1766015810.8784509,23
1766015810.878459,21
1766015810.878467,21
1766015810.878475,23
1766015810.878483,23
1766015810.878491,23
1766015810.878499,23
1766015810.878507,28
1766015810.878515,26
1766015810.8785229,25
1766015810.878531,25
1766015810.878539,26
1766015810.878547,24
1766015810.878554,24
1766015810.8785632,25
1766015810.878571,24
1766015810.878579,26
1766015810.878586,26
1766015810.8785942,24
1766015810.878602,26
1766015810.87861,24
1766015810.878618,23
1766015810.878626,27
1766015810.878634,24
1766015810.8786418,26
1766015810.8786502,24
1766015810.878658,25
1766015810.878666,27
1766015810.878674,25
1766015810.8786821,25
1766015810.87869,25
1766015810.8786979,26
1766015810.878706,23
1766015810.878714,24
1766015810.878722,25
1766015810.87873,25
1766015810.878738,25
1766015810.878746,23
1766015810.8787541,27
1766015810.878762,24
1766015810.8787699,24
1766015810.8787782,28
1766015810.878786,26
1766015810.878794,27
1766015810.878805,23
1766015810.878813,22
1766015810.8788211,26
1766015810.878829,26
1766015810.878837,24
1766015810.878845,25
1766015810.878853,24
1766015810.878861,23
1766015810.878869,25
1766015810.878877,25
1766015810.878884,24
1766015810.8788931,28
1766015810.878901,29
1766015810.878908,26
1766015810.878916,27
1766015810.8789241,26
1766015810.878932,27
1766015810.8789399,25
1766015810.8789482,31
1766015810.878956,26
1766015810.878964,23
1766015810.8789718,30
1766015810.8789802,25
1766015810.878988,27
1766015810.878996,27
1766015810.8790028,24
1766015810.8790112,26
1766015810.8790221,27
1766015810.87903,26
1766015810.879041,25
1766015810.879049,29
1766015810.879057,27
1766015810.879065,28
1766015810.8790731,29
1766015810.879081,29
1766015810.8790889,25
1766015810.879097,28
1766015810.879105,27
1766015810.879112,28
1766015810.8791199,30
1766015810.879128,25
1766015810.879136,24
1766015810.879145,25
1766015810.879153,26
1766015810.8791611,25
1766015810.879169,30
1766015810.8791769,28
1766015810.879185,27
1766015810.879193,26
1766015810.879201,28
1766015810.879209,26
1766015810.879217,27
1766015810.879225,27
1766015810.879232,26
1766015810.87924,26
1766015810.879248,27
1766015810.879256,22
1766015810.879264,28
1766015810.879272,29
1766015810.87928,25
1766015810.879288,24
1766015810.879297,25
1766015810.879305,30
1766015810.879313,27
1766015810.879321,26
1766015810.879329,29
1766015810.879337,27
1766015810.879346,27
1766015810.879354,27
1766015810.879362,32
1766015810.87937,26
1766015810.8793778,27
1766015810.8793862,28
1766015810.879393,27
1766015810.879401,29
1766015810.8794081,27
1766015810.879415,27
1766015810.879422,29
1766015810.879429,27
1766015810.879436,26
1766015810.879443,26
1766015810.87945,25
1766015810.879457,28
1766015810.8794649,29
1766015810.879472,29
1766015810.879479,25
1766015810.8794858,27
1766015810.8794932,27
1766015810.8795002,27
1766015810.8795068,26
1766015810.879515,30
1766015810.879522,27
1766015810.879529,27
1766015810.8795362,30
1766015810.879543,26
1766015810.87955,29
1766015810.8795571,27
1766015810.8795679,30
1766015810.879575,28
1766015810.879583,29
1766015810.8795898,25
1766015810.879597,27
1766015810.8796039,26
1766015810.8796108,26
1766015810.879618,27
1766015810.879626,26
1766015810.879633,24
1766015810.87964,25
1766015810.879647,28
1766015810.879654,26
1766015810.879661,23
1766015810.879668,23
1766015810.879675,27
1766015810.879683,23
1766015810.87969,23
1766015810.8796968,26
1766015810.879704,25
1766015810.879711,27
1766015810.8797178,24
1766015810.879725,27
1766015810.879732,26
1766015810.87974,25
1766015810.8797472,25
1766015810.8797572,24
1766015810.88032,26
1766015810.8813288,24
1766015810.88232,29
1766015810.8833349,26
1766015810.884325,26
1766015810.885314,25
1766015810.886318,27
1766015810.887327,25
1766015810.888341,27
1766015810.889344,23
1766015810.890343,24
1766015810.89134,27
1766015810.8923469,28
1766015810.893346,23
1766015810.894361,24
1766015810.895367,25
1766015810.89636,29
1766015810.897344,25
1766015810.898342,25
1766015810.899342,29
1766015810.9003599,23
1766015810.901369,27
1766015810.902373,26
1766015810.903369,22
1766015810.904375,24
1766015810.905364,23
1766015810.906389,25
1766015810.907406,26
1766015810.908395,22
1766015810.909379,22
1766015810.910389,25
1766015810.911398,26
1766015810.912384,23
1766015810.913408,24
1766015810.914412,25
1766015810.9153879,24
1766015810.916426,24
1766015810.917421,24
1766015810.918404,22
1766015810.919432,23
1766015810.920434,25
1766015810.921427,24
1766015810.922442,25
1766015810.923439,25
1766015810.924437,24
1766015810.925426,26
1766015810.926413,22
1766015810.927423,23
1766015810.928449,22
1766015810.9294689,24
1766015810.930509,23
1766015810.9314828,23
1766015810.93251,23
1766015810.933512,21
1766015810.934495,27
1766015810.935488,24
1766015810.936503,24
1766015810.937464,23
1766015810.9384599,27
1766015810.93952,24
1766015810.94051,24
1766015810.941499,26
1766015810.942504,23
1766015810.943501,24
1766015810.9444962,22
1766015810.9454908,25
1766015810.9464781,23
1766015810.94752,24
1766015810.948534,23
1766015810.949541,23
1766015810.950542,26
1766015810.951544,24
1766015810.952539,23
1766015810.953533,26
1766015810.954546,22
1766015810.95551,20
1766015810.956557,21
1766015810.9575539,23
1766015810.958585,23
1766015810.959563,25
1766015810.960543,24
1766015810.961539,22
1766015810.962552,23
1766015810.9635441,21
1766015810.964573,24
1766015810.965593,21
1766015810.9665868,21
1766015810.96755,19
1766015810.968576,25
1766015810.9696121,23
1766015810.970577,23
1766015810.971563,23
1766015810.972618,22
1766015810.973563,24
1766015810.974617,24
1766015810.975574,24
1766015810.976626,23
1766015810.9776099,23
1766015810.978624,22
1766015810.979649,22
1766015810.9806452,23
1766015810.9816399,22
1766015810.982655,24
1766015810.983652,18
1766015810.9846709,20
1766015810.985651,24
1766015810.986655,24
1766015810.987665,24
1766015810.988666,19
1766015810.989654,23
1766015810.9906719,24
1766015810.991657,22
1766015810.992657,22
1766015810.993661,24
1766015810.994667,25
1766015810.9956732,24
1766015810.9966772,25
1766015810.9976902,23
1766015810.998679,24
1766015810.999682,22
1766015811.00069,24
1766015811.0016918,20
1766015811.0027,25
1766015811.0036922,23
1766015811.00469,21
1766015811.005698,24
1766015811.0067148,26
1766015811.007711,23
1766015811.008706,23
1766015811.0097191,23
1766015811.0107121,23
1766015811.011713,24
1766015811.012713,21
1766015811.0137222,21
1766015811.0147269,23
1766015811.0157251,25
1766015811.0167449,22
1766015811.017743,21
1766015811.018729,23
1766015811.019734,23
1766015811.020749,23
1766015811.021755,25
1766015811.022754,24
1766015811.0237498,22
1766015811.024757,22
1766015811.025763,25
1766015811.026756,21
1766015811.0277529,24
1766015811.02876,22
1766015811.029788,23
1766015811.030785,23
1766015811.031786,23
1766015811.032796,21
1766015811.0337799,24
1766015811.0347872,21
1766015811.035799,19
1766015811.036792,25
1766015811.037805,21
1766015811.0388072,23
1766015811.039809,23
1766015811.040812,20
1766015811.0418172,22
1766015811.042822,19
1766015811.043807,19
1766015811.044833,23
1766015811.0458162,22
1766015811.046832,20
1766015811.0478342,23
1766015811.0488288,24
1766015811.049834,23
1766015811.050857,23
1766015811.051828,20
1766015811.052845,20
1766015811.053844,22
1766015811.054847,23
1766015811.055849,25
1766015811.056849,22
1766015811.057857,21
1766015811.058845,23
1766015811.059854,22
1766015811.060852,23
1766015811.061867,24
1766015811.062853,22
1766015811.0638552,24
1766015811.064877,23
1766015811.065871,23
1766015811.066876,23
1766015811.067876,20
1766015811.0688791,24
1766015811.06989,23
1766015811.070886,26
1766015811.0718908,22
1766015811.072883,20
1766015811.07389,21
1766015811.0749052,26
1766015811.075904,25
1766015811.076902,23
1766015811.077913,25
1766015811.078901,21
1766015811.079905,21
1766015811.080926,23
1766015811.0819242,22
1766015811.0829172,22
1766015811.083922,22
1766015811.084918,24
1766015811.085939,23
1766015811.0869372,23
1766015811.087928,22
1766015811.0889442,21
1766015811.0899498,21
1766015811.090945,25
1766015811.091947,24
1766015811.092952,23
1766015811.093956,18
1766015811.094949,22
1766015811.095945,25
1766015811.0969338,23
1766015811.0979352,19
1766015811.098934,26
1766015811.099919,23
1766015811.100939,22
1766015811.1019342,25
1766015811.1029198,23
1766015811.103929,19
1766015811.104934,23
1766015811.105943,23
1766015811.106954,26
1766015811.1079428,21
1766015811.1089458,22
1766015811.109956,21
1766015811.110971,25
1766015811.111957,23
1766015811.113004,20
1766015811.113993,22
1766015811.114999,23
1766015811.116006,22
1766015811.1170251,20
1766015811.1180239,23
1766015811.119034,24
1766015811.1200519,23
1766015811.1210508,23
1766015811.122047,23
1766015811.12303,22
1766015811.124032,24
1766015811.125037,22
1766015811.126036,20
1766015811.1270442,24
1766015811.1280231,24
1766015811.1290188,22
1766015811.130025,25
1766015811.131062,19
1766015811.1320379,22
1766015811.133041,21
1766015811.134043,20
1766015811.135082,22
1766015811.136072,22
1766015811.1370828,25
1766015811.1380858,24
1766015811.139078,24
1766015811.140092,21
1766015811.141109,24
1766015811.142102,27
1766015811.1431072,24
1766015811.14411,25
1766015811.1451478,24
1766015811.146101,22
1766015811.1471,24
1766015811.148138,24
1766015811.149123,24
1766015811.150114,25
1766015811.151127,25
1766015811.152116,25
1766015811.153111,25
1766015811.1542091,25
1766015811.155124,24
1766015811.156228,23
1766015811.157212,23
1766015811.15822,23
1766015811.159217,23
1766015811.1602108,25
1766015811.1612108,23
1766015811.1622112,23
1766015811.1632068,23
1766015811.1642082,27
1766015811.165211,26
1766015811.166207,24
1766015811.16721,23
1766015811.168212,22
1766015811.1692128,25
1766015811.1702049,25
1766015811.171208,23
1766015811.172204,24
1766015811.173205,26
1766015811.174208,29
1766015811.1752079,25
1766015811.1762052,24
1766015811.177213,25
1766015811.178208,26
1766015811.179214,26
1766015811.180206,26
1766015811.181209,26
1766015811.182204,25
1766015811.1832042,25
1766015811.184204,26
1766015811.185226,24
1766015811.1862268,23
1766015811.1872241,25
1766015811.1882198,26
1766015811.1892228,26
1766015811.190225,25
1766015811.19123,26
1766015811.1922162,24
1766015811.193249,26
1766015811.19423,25
1766015811.195232,27
1766015811.196231,26
1766015811.197239,24
1766015811.198227,26
1766015811.1992261,26
1766015811.200223,25
1766015811.201241,26
1766015811.2022662,27
1766015811.203229,27
1766015811.2042549,25
1766015811.2052522,29
1766015811.2062562,27
1766015811.207259,29
1766015811.208294,29
1766015811.209286,27
1766015811.210284,25
1766015811.2112892,27
1766015811.2122939,28
1766015811.213294,30
1766015811.214308,32
1766015811.215301,27
1766015811.216314,31
1766015811.217292,30
1766015811.218297,30
1766015811.219302,31
1766015811.220311,26
1766015811.221319,33
1766015811.2223182,31
1766015811.2233112,29
1766015811.224331,29
1766015811.225332,30
1766015811.226335,30
1766015811.227335,33
1766015811.228336,31
1766015811.229344,32
1766015811.230338,34
1766015811.23136,32
1766015811.23237,33
1766015811.233342,32
1766015811.2343528,32
1766015811.2353668,35
1766015811.236375,37
1766015811.2373881,34
1766015811.2383711,37
1766015811.2393658,35
1766015811.2403789,38
1766015811.241385,40
1766015811.242393,41
1766015811.243389,45
1766015811.2444,42
1766015811.2453911,42
1766015811.2463832,44
1766015811.2473972,44
1766015811.2484019,41
1766015811.249402,44
1766015811.250412,46
1766015811.251403,47
1766015811.252411,46
1766015811.253414,50
1766015811.2544131,49
1766015811.255411,49
1766015811.256441,51
1766015811.25743,52
1766015811.2584362,57
1766015811.259439,56
1766015811.260438,57
1766015811.261445,57
1766015811.26245,57
1766015811.263456,57
1766015811.2644439,56
1766015811.265447,55
1766015811.2664618,55
1766015811.2674549,55
1766015811.268485,54
1766015811.2694871,52
1766015811.270464,53
1766015811.2714849,52
1766015811.272474,55
1766015811.273483,52
1766015811.274486,51
1766015811.275483,52
1766015811.276492,52
1766015811.2775009,55
1766015811.278476,51
1766015811.279493,52
1766015811.280503,54
1766015811.2815082,52
1766015811.282517,54
1766015811.283511,57
1766015811.284517,64
1766015811.285502,66
1766015811.286528,66
1766015811.287526,71
1766015811.288537,71
1766015811.289535,74
1766015811.2905369,70
1766015811.291521,72
1766015811.292533,72
1766015811.293532,74
1766015811.294532,73
1766015811.295529,78
1766015811.296556,81
1766015811.297539,90
1766015811.29854,95
1766015811.299639,104
1766015811.300637,107
1766015811.3016598,110
1766015811.3026502,114
1766015811.303662,112
1766015811.304667,110
1766015811.3056839,114
1766015811.306676,112
1766015811.30768,110
1766015811.308683,111
1766015811.309682,111
1766015811.310674,112
1766015811.311667,112
1766015811.31269,111
1766015811.313666,113
1766015811.314718,114
1766015811.315702,115
1766015811.316703,115
1766015811.3177118,120
1766015811.3187141,120
1766015811.319715,119
1766015811.3207061,117
1766015811.321727,116
1766015811.322735,109
1766015811.323734,113
1766015811.3247302,112
1766015811.3257349,112
1766015811.326736,109
1766015811.327728,108
1766015811.328727,107
1766015811.329749,106
1766015811.3307421,106
1766015811.3317492,102
1766015811.332743,106
1766015811.333746,112
1766015811.334757,109
1766015811.335766,112
1766015811.336753,114
1766015811.337763,112
1766015811.338766,110
1766015811.339755,106
1766015811.340773,109
1766015811.341782,113
1766015811.342779,114
1766015811.3437738,116
1766015811.344768,121
1766015811.345778,126
1766015811.346783,133
1766015811.347809,142
1766015811.3487492,152
1766015811.3497589,160
1766015811.350755,164
1766015811.351788,166
1766015811.3527691,167
1766015811.353769,168
1766015811.354818,167
1766015811.355804,166
1766015811.3568158,165
1766015811.3578181,162
1766015811.3588328,164
1766015811.359823,168
1766015811.360832,165
1766015811.361782,166
1766015811.362876,164
1766015811.363869,163
1766015811.364869,158
1766015811.36586,161
1766015811.366857,156
1766015811.367855,153
1766015811.368854,153
1766015811.3698628,153
1766015811.370859,156
1766015811.3718588,152
1766015811.372849,155
1766015811.373867,152
1766015811.37486,151
1766015811.375864,147
1766015811.376868,148
1766015811.377886,148
1766015811.378885,149
1766015811.3798752,152
1766015811.380873,151
1766015811.38189,156
1766015811.382874,155
1766015811.383892,156
1766015811.384896,154
1766015811.385904,155
1766015811.38691,157
1766015811.387903,155
1766015811.3889081,152
1766015811.389919,150
1766015811.390917,150
1766015811.39192,146
1766015811.3929129,147
1766015811.393942,147
1766015811.3949308,145
1766015811.395926,143
1766015811.396943,142
1766015811.397936,141
1766015811.3989398,139
1766015811.399939,141
1766015811.400945,142
1766015811.401943,140
1766015811.402941,139
1766015811.403946,138
1766015811.404949,137
1766015811.405937,137
1766015811.4069529,139
1766015811.4079628,137
1766015811.408962,138
1766015811.409971,135
1766015811.410979,141
1766015811.411985,141
1766015811.41298,146
1766015811.413986,142
1766015811.4149811,147
1766015811.4159858,147
1766015811.416985,147
1766015811.417991,142
1766015811.419002,147
1766015811.4200032,144
1766015811.421,142
1766015811.422011,144
1766015811.423017,143
1766015811.4240158,145
1766015811.4250162,145
1766015811.425994,144
1766015811.4270132,142
1766015811.428006,145
1766015811.429019,145
1766015811.4300458,141
1766015811.431028,139
1766015811.432016,143
1766015811.433037,146
1766015811.434031,155
1766015811.4350421,162
1766015811.436036,164
1766015811.43704,166
1766015811.4380422,166
1766015811.439049,169
1766015811.440038,164
1766015811.4410398,162
1766015811.442057,162
1766015811.4430342,165
1766015811.444046,167
1766015811.4450612,166
1766015811.4460852,166
1766015811.447059,168
1766015811.4480782,167
1766015811.44908,166
1766015811.4500952,166
1766015811.451067,163
1766015811.4520981,164
1766015811.4531,161
1766015811.454085,160
1766015811.455095,162
1766015811.456107,156
1766015811.4570858,155
1766015811.458108,153
1766015811.459102,152
1766015811.460108,147
1766015811.461109,144
1766015811.462126,145
1766015811.463118,142
1766015811.464111,145
1766015811.465118,142
1766015811.4661288,141
1766015811.467131,140
1766015811.4681332,136
1766015811.469216,135
1766015811.470217,135
1766015811.471127,134
1766015811.472211,131
1766015811.473233,133
1766015811.4742138,135
1766015811.475214,133
1766015811.476214,134
1766015811.477219,132
1766015811.478209,131
1766015811.479224,134
1766015811.480216,133
1766015811.481219,131
1766015811.482222,129
1766015811.483219,126
1766015811.484212,125
1766015811.4852219,125
1766015811.486224,127
1766015811.487222,122
1766015811.488217,123
1766015811.489223,119
1766015811.4902232,122
1766015811.491215,123
1766015811.492218,120
1766015811.493217,119
1766015811.49422,119
1766015811.4952168,116
1766015811.496223,118
1766015811.497223,116
1766015811.498218,112
1766015811.4992168,109
1766015811.500215,111
1766015811.501227,110
1766015811.502221,110
1766015811.503221,105
1766015811.504233,105
1766015811.5052211,103
1766015811.506227,106
1766015811.5072289,102
1766015811.508245,101
1766015811.509245,104
1766015811.5102599,102
1766015811.511252,108
1766015811.5122619,103
1766015811.513248,104
1766015811.514251,108
1766015811.515254,104
1766015811.516259,104
1766015811.517272,107
1766015811.518273,109
1766015811.519264,110
1766015811.52027,108
1766015811.521274,109
1766015811.5222862,108
1766015811.5233018,112
1766015811.524301,109
1766015811.52528,109
1766015811.526247,116
1766015811.527275,119
1766015811.528256,119
1766015811.529269,120
1766015811.530276,123
1766015811.5312908,121
1766015811.532322,123
1766015811.533313,122
1766015811.5343108,121
1766015811.5353332,117
1766015811.536309,120
1766015811.5373209,118
1766015811.538338,116
1766015811.539328,116
1766015811.540329,113
1766015811.541331,111
1766015811.54234,113
1766015811.543347,112
1766015811.5443242,114
1766015811.545335,111
1766015811.5463529,111
1766015811.547345,113
1766015811.548342,109
1766015811.549359,109
1766015811.550362,109
1766015811.55136,111
1766015811.552342,110
1766015811.55336,109
1766015811.5543659,105
1766015811.555361,107
1766015811.556355,104
1766015811.557364,105
1766015811.558372,101
1766015811.5593972,105
1766015811.5603771,100
1766015811.561376,100
1766015811.562391,101
1766015811.563308,97
1766015811.5644128,100
1766015811.565312,98
1766015811.566318,96
1766015811.56729,97
1766015811.568277,95
1766015811.569268,93
1766015811.570292,94
1766015811.571282,94
1766015811.572294,92
1766015811.573295,89
1766015811.5742989,91
1766015811.5752802,89
1766015811.576339,93
1766015811.5773172,90
1766015811.578341,91
1766015811.5793421,93
1766015811.580343,97
1766015811.5814242,100
1766015811.582422,104
1766015811.583424,103
1766015811.58445,102
1766015811.585418,103
1766015811.586325,97
1766015811.587473,100
1766015811.588453,101
1766015811.589365,99
1766015811.590369,95
1766015811.591372,97
1766015811.59237,94
1766015811.593371,94
1766015811.5943758,92
1766015811.595385,93
1766015811.596382,92
1766015811.597396,91
1766015811.598391,91
1766015811.599395,89
1766015811.600377,90
1766015811.601403,90
1766015811.6024141,87
1766015811.603395,87
1766015811.6044118,89
1766015811.6054,90
1766015811.6064079,92
1766015811.607417,88
1766015811.608406,86
1766015811.609431,86
1766015811.610451,86
1766015811.611457,85
1766015811.612446,85
1766015811.613442,86
1766015811.614447,84
1766015811.615456,83
1766015811.616458,83
1766015811.61747,86
1766015811.618473,89
1766015811.6194801,90
1766015811.6204748,93
1766015811.6214771,90
1766015811.622485,90
1766015811.623467,93
1766015811.6244538,93
1766015811.625448,97
1766015811.626484,94
1766015811.62766,100
1766015811.628522,97
1766015811.629452,99
1766015811.630615,102
1766015811.631628,101
1766015811.6326249,101
1766015811.633488,95
1766015811.6345322,97
1766015811.635542,97
1766015811.6366332,100
1766015811.6375191,96
1766015811.638515,99
1766015811.6395159,98
1766015811.6405041,99
1766015811.64157,101
1766015811.642613,105
1766015811.643593,107
1766015811.644612,110
1766015811.6455932,110
1766015811.646614,110
1766015811.647603,109
1766015811.648614,110
1766015811.6496031,110
1766015811.650626,109
1766015811.651665,107
1766015811.652607,108
1766015811.653617,106
1766015811.654667,105
1766015811.6556191,103
1766015811.656644,106
1766015811.657639,100
1766015811.658685,103
1766015811.659664,101
1766015811.660574,99
1766015811.661532,96
1766015811.662588,97
1766015811.663573,95
1766015811.664586,97
1766015811.66555,92
1766015811.666594,95
1766015811.667592,96
1766015811.668598,94
1766015811.669565,95
1766015811.670601,96
1766015811.671604,94
1766015811.672597,93
1766015811.673621,90
1766015811.6745758,89
1766015811.6755798,88
1766015811.676589,88
1766015811.677619,92
1766015811.678632,92
1766015811.679635,92
1766015811.680637,90
1766015811.6816351,92
1766015811.682626,91
1766015811.6836421,89
1766015811.684649,90
1766015811.685629,87
1766015811.686662,88
1766015811.68765,88
1766015811.688673,89
1766015811.689662,86
1766015811.690667,88
1766015811.691633,84
1766015811.692641,85
1766015811.693674,85
1766015811.694676,82
1766015811.69568,81
1766015811.696689,80
1766015811.697685,77
1766015811.698682,81
1766015811.6996841,78
1766015811.700703,76
1766015811.701696,80
1766015811.702689,80
1766015811.703712,82
1766015811.704702,85
1766015811.705705,94
1766015811.7067142,95
1766015811.707699,97
1766015811.708828,100
1766015811.709734,99
1766015811.710725,98
1766015811.711823,100
1766015811.712725,96
1766015811.713818,101
1766015811.714734,99
1766015811.715723,98
1766015811.7167208,97
1766015811.7177489,99
1766015811.718841,100
1766015811.719847,100
1766015811.720738,98
1766015811.721756,97
1766015811.722754,96
1766015811.7237508,98
1766015811.7247539,94
1766015811.7258508,100
1766015811.72677,97
1766015811.7278678,100
1766015811.7288508,102
1766015811.729857,104
1766015811.730871,104
1766015811.731873,105
1766015811.732875,108
1766015811.7338738,113
1766015811.734882,109
1766015811.735894,106
1766015811.736882,108
1766015811.737893,106
1766015811.7389052,104
1766015811.739891,104
1766015811.7408981,105
1766015811.741902,103
1766015811.742904,101
1766015811.743902,101
1766015811.744899,100
1766015811.745813,96
1766015811.746846,98
1766015811.747908,100
1766015811.748908,101
1766015811.74992,105
1766015811.7509198,106
1766015811.7519228,106
1766015811.752927,101
1766015811.753938,108
1766015811.754941,109
1766015811.7559521,107
1766015811.756928,107
1766015811.757937,108
1766015811.758949,106
1766015811.759951,103
1766015811.7609558,102
1766015811.7619588,101
1766015811.76296,101
1766015811.763953,101
1766015811.764958,102
1766015811.7659829,100
1766015811.766973,100
1766015811.767862,98
1766015811.7688801,97
1766015811.769881,96
1766015811.77088,94
1766015811.771886,91
1766015811.7728908,92
1766015811.773907,90
1766015811.774901,91
1766015811.77591,87
1766015811.77688,87
1766015811.7779148,88
1766015811.778919,89
1766015811.779897,86
1766015811.780906,88
1766015811.781905,87
1766015811.782919,87
1766015811.783916,86
1766015811.784926,87
1766015811.785931,86
1766015811.786933,86
1766015811.787936,85
1766015811.78894,87
1766015811.7899342,88
1766015811.7909608,87
1766015811.791939,87
1766015811.7929459,85
1766015811.793952,88
1766015811.794971,85
1766015811.795945,87
1766015811.796958,86
1766015811.797954,83
1766015811.798976,86
1766015811.799982,86
1766015811.8009632,86
1766015811.801972,85
1766015811.802985,83
1766015811.803984,81
1766015811.80497,83
1766015811.805984,79
1766015811.8069959,81
1766015811.808011,81
1766015811.809006,81
1766015811.809994,81
1766015811.811006,82
1766015811.812021,80
1766015811.8130078,80
1766015811.814024,80
1766015811.815029,81
1766015811.816023,77
1766015811.817034,79
1766015811.818039,77
1766015811.819045,79
1766015811.820043,74
1766015811.821035,77
1766015811.822041,79
1766015811.823045,80
1766015811.824044,83
1766015811.825046,86
1766015811.826051,86
1766015811.827065,86
1766015811.8280609,90
1766015811.829064,95
1766015811.830219,101
1766015811.831222,100
1766015811.832214,101
1766015811.833216,101
1766015811.834211,103
1766015811.835212,107
1766015811.836222,110
1766015811.837217,109
1766015811.838214,108
1766015811.839217,109
1766015811.840213,105
1766015811.8412218,105
1766015811.842211,104
1766015811.843213,104
1766015811.844224,105
1766015811.845227,103
1766015811.846129,99
1766015811.8472161,103
1766015811.848108,98
1766015811.849108,97
1766015811.8501031,93
1766015811.851134,94
1766015811.8521202,94
1766015811.8532171,91
