timestamp,emg_value
1766015830.1746628,117
1766015830.1747,113
1766015830.174734,113
1766015830.174767,112
1766015830.174807,111
1766015830.17484,110
1766015830.1748679,110
1766015830.174887,113
1766015830.174906,108
1766015830.1749241,108
1766015830.174943,108
1766015830.1749618,105
1766015830.1749802,105
1766015830.174999,102
1766015830.1750169,101
1766015830.175036,101
1766015830.175051,98
1766015830.17507,101
1766015830.175085,97
1766015830.1750998,97
1766015830.1751192,100
1766015830.175145,104
1766015830.175166,113
1766015830.1751869,120
1766015830.1752052,131
1766015830.175224,141
1766015830.1752489,145
1766015830.1752682,153
1766015830.175288,152
1766015830.175307,154
1766015830.1753259,155
1766015830.1753442,162
1766015830.175363,162
1766015830.175382,165
1766015830.1754,164
1766015830.1754181,165
1766015830.175437,166
1766015830.175455,162
1766015830.175474,162
1766015830.175492,161
1766015830.1755111,163
1766015830.175531,161
1766015830.17555,159
1766015830.1755688,159
1766015830.1755872,161
1766015830.175606,160
1766015830.175624,157
1766015830.175643,158
1766015830.175661,157
1766015830.175679,153
1766015830.1756978,153
1766015830.175717,152
1766015830.1757388,151
1766015830.1757581,147
1766015830.175777,145
1766015830.175796,144
1766015830.1758149,141
1766015830.1758342,138
1766015830.175853,140
1766015830.175872,137
1766015830.175891,134
1766015830.17591,133
1766015830.175929,134
1766015830.175947,134
1766015830.1759648,130
1766015830.1759858,131
1766015830.1760051,127
1766015830.176024,127
1766015830.176043,127
1766015830.1760619,126
1766015830.176081,124
1766015830.1761,123
1766015830.176119,120
1766015830.176142,122
1766015830.176162,116
1766015830.17618,117
1766015830.176199,115
1766015830.176219,113
1766015830.1762402,115
1766015830.176259,112
1766015830.176278,112
1766015830.176296,112
1766015830.176314,112
1766015830.176333,111
1766015830.176351,107
1766015830.17637,109
1766015830.176388,110
1766015830.176406,104
1766015830.176425,106
1766015830.1764429,105
1766015830.1764622,101
1766015830.176481,104
1766015830.176499,108
1766015830.176518,111
1766015830.176537,115
1766015830.176556,123
1766015830.176574,129
1766015830.1765928,125
1766015830.1766121,131
1766015830.176631,129
1766015830.17665,131
1766015830.176668,132
1766015830.176687,138
1766015830.176706,136
1766015830.176727,135
1766015830.176745,135
1766015830.176764,134
1766015830.176783,131
1766015830.176801,135
1766015830.1768188,126
1766015830.176835,128
1766015830.176851,130
1766015830.176867,127
1766015830.176882,126
1766015830.176898,129
1766015830.176914,126
1766015830.17693,127
1766015830.176946,125
1766015830.1769621,121
1766015830.1769779,121
1766015830.176994,123
1766015830.1770089,126
1766015830.177025,122
1766015830.1770408,119
1766015830.177057,116
1766015830.177073,117
1766015830.177089,119
1766015830.177105,117
1766015830.177121,115
1766015830.1771379,114
1766015830.177161,116
1766015830.1771789,114
1766015830.177195,113
1766015830.177212,111
1766015830.177228,113
1766015830.177244,110
1766015830.17726,110
1766015830.177276,106
1766015830.177292,107
1766015830.1773078,102
1766015830.177324,104
1766015830.1773398,107
1766015830.177356,110
1766015830.1773708,110
1766015830.177387,109
1766015830.177403,108
1766015830.177419,112
1766015830.177435,116
1766015830.177451,114
1766015830.1774669,115
1766015830.177483,111
1766015830.177498,111
1766015830.177514,109
1766015830.17753,112
1766015830.177546,107
1766015830.177562,106
1766015830.17758,105
1766015830.1775959,107
1766015830.177612,104
1766015830.1776278,104
1766015830.177643,107
1766015830.1776588,105
1766015830.177675,105
1766015830.177691,104
1766015830.177707,106
1766015830.177723,111
1766015830.177739,115
1766015830.1777549,119
1766015830.17777,121
1766015830.177786,119
1766015830.177802,120
1766015830.177818,121
1766015830.1778328,119
1766015830.177849,122
1766015830.177865,121
1766015830.177881,122
1766015830.177897,119
1766015830.177912,119
1766015830.177928,119
1766015830.177944,119
1766015830.17796,120
1766015830.177975,119
1766015830.177993,117
1766015830.178009,115
1766015830.178025,118
1766015830.178041,121
1766015830.178057,124
1766015830.178072,128
1766015830.178088,128
1766015830.1781042,130
1766015830.17812,126
1766015830.1781352,126
1766015830.178155,123
1766015830.178171,124
1766015830.178187,125
1766015830.1782029,125
1766015830.178218,122
1766015830.178234,119
1766015830.17825,119
1766015830.178266,118
1766015830.178281,119
1766015830.178297,117
1766015830.178313,115
1766015830.178329,115
1766015830.178345,111
1766015830.1783612,114
1766015830.178376,112
1766015830.1783931,113
1766015830.178411,110
1766015830.178428,109
1766015830.178443,111
1766015830.178459,109
1766015830.178475,108
1766015830.1784909,106
1766015830.178507,103
1766015830.178522,107
1766015830.178538,105
1766015830.178554,103
1766015830.17857,104
1766015830.178585,103
1766015830.178601,106
1766015830.178617,104
1766015830.178632,103
1766015830.178648,106
1766015830.178664,104
1766015830.1786802,103
1766015830.178695,102
1766015830.178711,104
1766015830.178727,102
1766015830.1787431,101
1766015830.1787589,103
1766015830.178775,100
1766015830.1787908,100
1766015830.178807,104
1766015830.178825,101
1766015830.178838,99
1766015830.1788511,99
1766015830.178866,101
1766015830.178879,98
1766015830.178895,104
1766015830.1789079,99
1766015830.178924,101
1766015830.1789389,100
1766015830.178955,101
1766015830.1789708,101
1766015830.178987,100
1766015830.1790001,96
1766015830.179013,98
1766015830.179025,98
1766015830.179038,99
1766015830.179051,99
1766015830.179067,102
1766015830.179082,106
1766015830.1790981,104
1766015830.1791139,103
1766015830.17913,106
1766015830.1791449,107
1766015830.179165,106
1766015830.179181,110
1766015830.1791968,106
1766015830.179213,103
1766015830.1792278,105
1766015830.1792462,104
1766015830.179262,102
1766015830.1792781,102
1766015830.179293,101
1766015830.1793091,101
1766015830.1793249,100
1766015830.179337,99
1766015830.17935,99
1766015830.179363,97
1766015830.1793761,95
1766015830.179389,96
1766015830.1794019,96
1766015830.179414,94
1766015830.1794271,94
1766015830.17944,98
1766015830.179453,93
1766015830.179466,96
1766015830.179478,99
1766015830.179491,98
1766015830.179507,102
1766015830.179522,103
1766015830.179538,101
1766015830.179551,97
1766015830.1795661,102
1766015830.1795819,100
1766015830.179598,102
1766015830.17961,99
1766015830.179623,98
1766015830.179636,95
1766015830.179654,100
1766015830.1796658,94
1766015830.179679,97
1766015830.179692,93
1766015830.1797051,96
1766015830.179717,93
1766015830.17973,95
1766015830.179743,91
1766015830.179756,93
1766015830.179768,95
1766015830.1797812,93
1766015830.1797938,92
1766015830.179807,92
1766015830.179819,90
1766015830.179832,94
1766015830.179845,93
1766015830.179858,93
1766015830.17987,90
1766015830.179883,93
1766015830.179896,88
1766015830.1799092,94
1766015830.1799219,92
1766015830.179935,93
1766015830.179948,93
1766015830.17996,91
1766015830.1799731,90
1766015830.179986,89
1766015830.1799989,92
1766015830.180011,93
1766015830.1800241,93
1766015830.180037,92
1766015830.18005,90
1766015830.180065,88
1766015830.180078,92
1766015830.180091,90
1766015830.180104,90
1766015830.180116,83
1766015830.180129,87
1766015830.1801422,87
1766015830.1801548,89
1766015830.180172,91
1766015830.180185,86
1766015830.180198,87
1766015830.1802108,90
1766015830.180223,89
1766015830.180236,89
1766015830.180249,87
1766015830.1802619,87
1766015830.180275,87
1766015830.180288,86
1766015830.1803,86
1766015830.180313,86
1766015830.180326,87
1766015830.1803389,86
1766015830.180352,87
1766015830.1803641,82
1766015830.180377,87
1766015830.18039,90
1766015830.180403,90
1766015830.180416,93
1766015830.180429,91
1766015830.180442,96
1766015830.180455,92
1766015830.180468,94
1766015830.180481,93
1766015830.180497,94
1766015830.18051,93
1766015830.180522,91
1766015830.180535,95
1766015830.1805482,97
1766015830.180564,100
1766015830.1805801,102
1766015830.1805959,102
1766015830.1806111,101
1766015830.1806269,101
1766015830.18064,98
1766015830.180653,95
1766015830.1806662,97
1766015830.1806788,99
1766015830.180694,100
1766015830.180707,97
1766015830.18072,97
1766015830.180734,97
1766015830.180746,99
1766015830.180759,97
1766015830.180772,94
1766015830.180785,95
1766015830.180798,92
1766015830.180811,93
1766015830.180824,94
1766015830.1808362,90
1766015830.1808488,91
1766015830.180862,92
1766015830.180875,90
1766015830.18089,92
1766015830.180903,91
1766015830.180931,90
1766015830.180945,89
1766015830.180958,88
1766015830.180971,88
1766015830.180984,86
1766015830.1809971,83
1766015830.18101,86
1766015830.181023,85
1766015830.181035,86
1766015830.1810482,92
1766015830.181062,96
1766015830.181074,95
1766015830.181089,94
1766015830.1811042,97
1766015830.181119,95
1766015830.181134,96
1766015830.1811469,98
1766015830.181161,94
1766015830.181175,94
1766015830.181188,95
1766015830.181203,92
1766015830.181217,92
1766015830.181231,90
1766015830.181244,91
1766015830.181258,96
1766015830.181272,95
1766015830.1812851,96
1766015830.1813009,100
1766015830.1813161,102
1766015830.1813319,100
1766015830.181348,102
1766015830.181368,104
1766015830.181387,103
1766015830.1814022,104
1766015830.181418,105
1766015830.1814342,101
1766015830.18145,105
1766015830.181466,101
1766015830.181482,101
1766015830.181498,102
1766015830.18151,99
1766015830.1815228,98
1766015830.181539,101
1766015830.181555,101
1766015830.181569,97
1766015830.181582,98
1766015830.1815948,98
1766015830.181608,95
1766015830.181621,97
1766015830.181634,98
1766015830.181647,94
1766015830.18166,93
1766015830.181673,96
1766015830.181686,93
1766015830.181699,92
1766015830.181712,95
1766015830.181725,93
1766015830.181737,94
1766015830.18175,93
1766015830.1817632,93
1766015830.1817758,94
1766015830.181793,92
1766015830.1818082,93
1766015830.1818209,90
1766015830.181834,93
1766015830.181847,91
1766015830.1818602,93
1766015830.1818728,91
1766015830.181886,91
1766015830.181899,90
1766015830.1819131,87
1766015830.1819258,87
1766015830.181939,85
1766015830.181952,87
1766015830.181965,88
1766015830.1819782,88
1766015830.18199,85
1766015830.182003,85
1766015830.182017,84
1766015830.182029,81
1766015830.1820428,80
1766015830.182056,81
1766015830.182071,83
1766015830.182085,82
1766015830.1821,86
1766015830.182115,88
1766015830.1821282,90
1766015830.1821408,87
1766015830.182154,89
1766015830.182167,89
1766015830.1821811,89
1766015830.182196,92
1766015830.182209,94
1766015830.182225,91
1766015830.182239,94
1766015830.182252,91
1766015830.182265,90
1766015830.182278,89
1766015830.182291,90
1766015830.182304,86
1766015830.182317,87
1766015830.1823292,88
1766015830.182343,84
1766015830.182357,87
1766015830.182373,86
1766015830.182388,83
1766015830.182403,82
1766015830.182417,83
1766015830.18243,83
1766015830.182443,84
1766015830.182456,80
1766015830.1824682,82
1766015830.1824808,80
1766015830.182494,80
1766015830.182507,78
1766015830.1825202,75
1766015830.182533,78
1766015830.182546,75
1766015830.182559,75
1766015830.182574,76
1766015830.182587,77
1766015830.1826,80
1766015830.182613,78
1766015830.182626,76
1766015830.1826391,76
1766015830.182652,78
1766015830.1826692,81
1766015830.182682,77
1766015830.1826959,78
1766015830.1827111,77
1766015830.182724,77
1766015830.1827369,80
1766015830.18275,84
1766015830.182763,91
1766015830.1827772,96
1766015830.1827898,95
1766015830.182802,93
1766015830.182815,94
1766015830.182828,95
1766015830.182841,94
1766015830.182854,92
1766015830.182867,92
1766015830.18288,89
1766015830.182892,96
1766015830.1829052,94
1766015830.1829178,92
1766015830.182931,95
1766015830.182944,93
1766015830.182956,93
1766015830.182969,92
1766015830.182982,93
1766015830.1829948,91
1766015830.183008,92
1766015830.183021,90
1766015830.183033,88
1766015830.1830459,89
1766015830.183059,90
1766015830.183072,88
1766015830.183087,89
1766015830.183103,87
1766015830.183119,88
1766015830.183132,86
1766015830.1831439,86
1766015830.183157,84
1766015830.183171,87
1766015830.1831849,85
1766015830.183198,86
1766015830.183211,84
1766015830.183224,85
1766015830.183237,84
1766015830.18325,82
1766015830.183263,87
1766015830.183276,86
1766015830.183289,90
1766015830.183302,89
1766015830.183315,92
1766015830.183327,90
1766015830.18334,95
1766015830.1833532,97
1766015830.1833658,95
1766015830.183379,99
1766015830.1833951,100
1766015830.183408,98
1766015830.183424,101
1766015830.183437,98
1766015830.1834502,99
1766015830.1834629,98
1766015830.183475,96
1766015830.183488,97
1766015830.183501,97
1766015830.1835158,95
1766015830.183532,95
1766015830.183545,95
1766015830.183558,92
1766015830.1835709,93
1766015830.183584,93
1766015830.183597,93
1766015830.1836102,91
1766015830.1836228,92
1766015830.183636,88
1766015830.183649,89
1766015830.183661,87
1766015830.183674,86
1766015830.183687,86
1766015830.1837,87
1766015830.183713,86
1766015830.183726,87
1766015830.183739,85
1766015830.1837518,85
1766015830.183765,82
1766015830.183778,85
1766015830.1837912,84
1766015830.1838038,82
1766015830.183816,86
1766015830.183829,85
1766015830.183842,85
1766015830.183855,81
1766015830.183868,85
1766015830.183881,83
1766015830.183893,83
1766015830.183906,84
1766015830.1839192,82
1766015830.1839318,84
1766015830.183949,83
1766015830.183964,85
1766015830.183977,82
1766015830.18399,82
1766015830.184003,82
1766015830.184016,80
1766015830.184028,82
1766015830.184041,83
1766015830.184054,81
1766015830.184067,81
1766015830.18408,85
1766015830.184093,88
1766015830.1841059,86
1766015830.184119,81
1766015830.184132,83
1766015830.184145,85
1766015830.1841578,86
1766015830.184171,85
1766015830.184185,88
1766015830.184203,89
1766015830.184216,90
1766015830.1842291,91
1766015830.184242,90
1766015830.184255,87
1766015830.184268,89
1766015830.184281,86
1766015830.184294,83
1766015830.1843069,85
1766015830.18432,83
1766015830.184333,84
1766015830.184345,83
1766015830.184358,85
1766015830.184373,82
1766015830.184389,80
1766015830.184403,77
1766015830.184416,78
1766015830.184428,81
1766015830.184441,80
1766015830.184454,78
1766015830.1844668,78
1766015830.18448,75
1766015830.184493,77
1766015830.1845062,75
1766015830.184524,82
1766015830.1845372,82
1766015830.184551,86
1766015830.1845639,87
1766015830.184576,83
1766015830.1845891,86
1766015830.184602,85
1766015830.184615,88
1766015830.184628,87
1766015830.1846411,90
1766015830.184653,87
1766015830.1846662,85
1766015830.1846788,88
1766015830.184692,90
1766015830.184704,87
1766015830.184715,85
1766015830.184726,85
1766015830.184737,87
1766015830.184748,85
1766015830.18476,85
1766015830.184771,86
1766015830.1847832,82
1766015830.1847968,86
1766015830.18481,83
1766015830.184821,81
1766015830.184833,81
1766015830.184844,81
1766015830.184855,78
1766015830.184866,80
1766015830.1848772,74
1766015830.1848881,76
1766015830.184899,74
1766015830.18491,74
1766015830.1849222,76
1766015830.1849332,73
1766015830.1849442,72
1766015830.184955,72
1766015830.1849658,72
1766015830.1849768,77
1766015830.184989,80
1766015830.185,83
1766015830.185011,81
1766015830.1850219,80
1766015830.1850328,82
1766015830.185044,81
1766015830.185056,84
1766015830.185067,86
1766015830.185078,87
1766015830.185089,86
1766015830.1851,90
1766015830.185112,84
1766015830.185123,89
1766015830.1851342,86
1766015830.1851451,89
1766015830.1851578,85
1766015830.185172,86
1766015830.185185,85
1766015830.185199,85
1766015830.1852102,83
1766015830.1852212,84
1766015830.1852329,83
1766015830.1852438,84
1766015830.1852548,82
1766015830.185266,84
1766015830.185277,86
1766015830.185288,86
1766015830.1852999,82
1766015830.185311,86
1766015830.185322,83
1766015830.185334,81
1766015830.185345,82
1766015830.1853561,83
1766015830.185367,85
1766015830.185379,82
1766015830.18539,82
1766015830.1854012,82
1766015830.1854131,82
1766015830.1854239,83
1766015830.1854348,82
1766015830.1854458,78
1766015830.185457,79
1766015830.185468,78
1766015830.1854799,79
1766015830.1854908,78
1766015830.185503,74
1766015830.185514,78
1766015830.185525,77
1766015830.1855402,78
1766015830.185554,76
1766015830.185566,76
1766015830.185577,75
1766015830.185589,76
1766015830.1856,77
1766015830.185611,77
1766015830.185623,78
1766015830.1856341,78
1766015830.185645,78
1766015830.185656,77
1766015830.185667,80
1766015830.1856792,76
1766015830.1856902,76
1766015830.1857011,77
1766015830.185712,76
1766015830.1857228,76
1766015830.185735,75
1766015830.185746,74
1766015830.185757,77
1766015830.185768,77
1766015830.18578,76
1766015830.185791,76
1766015830.185802,76
1766015830.185813,75
1766015830.185824,76
1766015830.1858351,80
1766015830.185846,75
1766015830.185857,78
1766015830.185869,78
1766015830.18588,73
1766015830.1858912,76
1766015830.185903,73
1766015830.185917,71
1766015830.18593,72
1766015830.185941,73
1766015830.185952,71
1766015830.185963,70
1766015830.185975,71
1766015830.185986,71
1766015830.185997,73
1766015830.186008,69
1766015830.1860192,68
1766015830.1860301,67
1766015830.186042,71
1766015830.186053,67
1766015830.1860638,67
1766015830.186075,67
1766015830.186086,66
1766015830.186097,67
1766015830.1861088,63
1766015830.18612,62
1766015830.186131,64
1766015830.186142,64
1766015830.186153,64
1766015830.186164,63
1766015830.186176,63
1766015830.186188,61
1766015830.186202,60
1766015830.186213,60
1766015830.1862242,59
1766015830.186236,61
1766015830.1862469,61
1766015830.1862578,57
1766015830.186269,58
1766015830.186284,57
1766015830.1862972,58
1766015830.1863081,57
1766015830.1863208,56
1766015830.186333,56
1766015830.186344,56
1766015830.186356,57
1766015830.186369,55
1766015830.186382,56
1766015830.1863942,57
1766015830.1864052,56
1766015830.1864169,55
1766015830.1864278,56
1766015830.1864388,55
1766015830.186485,53
1766015830.186522,51
1766015830.1865332,52
1766015830.186545,54
1766015830.1865559,55
1766015830.1865668,54
1766015830.186579,52
1766015830.18659,52
1766015830.186601,54
1766015830.186613,49
1766015830.186624,52
1766015830.186635,49
1766015830.186646,52
1766015830.1866581,52
1766015830.186669,52
1766015830.18668,52
1766015830.186692,50
1766015830.1867032,48
1766015830.1867158,48
1766015830.18673,52
1766015830.1867409,50
1766015830.186753,54
1766015830.1867661,49
1766015830.186778,49
1766015830.186789,54
1766015830.186801,49
1766015830.186814,53
1766015830.186825,50
1766015830.186836,48
1766015830.186847,49
1766015830.186859,46
1766015830.18687,48
1766015830.186881,48
1766015830.186892,51
1766015830.186903,48
1766015830.186914,49
1766015830.1869252,48
1766015830.186937,49
1766015830.186948,47
1766015830.186959,48
1766015830.18697,51
1766015830.186982,47
1766015830.1869938,48
1766015830.187005,50
1766015830.187016,52
1766015830.187027,49
1766015830.187039,48
1766015830.1870499,48
1766015830.187061,45
1766015830.187072,46
1766015830.187083,47
1766015830.187098,51
1766015830.187111,47
1766015830.187123,49
1766015830.187134,48
1766015830.187145,46
1766015830.187156,45
1766015830.187167,45
1766015830.187179,46
1766015830.18719,48
1766015830.187202,46
1766015830.1872158,45
1766015830.1872268,44
1766015830.187238,46
1766015830.18725,47
1766015830.1872609,44
1766015830.1872718,46
1766015830.187283,45
1766015830.187294,44
1766015830.187305,41
1766015830.187316,44
1766015830.187327,43
1766015830.187339,44
1766015830.18735,46
1766015830.187361,41
1766015830.1873732,40
1766015830.1873841,46
1766015830.187395,45
1766015830.187406,45
1766015830.187417,45
1766015830.1874292,46
1766015830.1874402,45
1766015830.187451,45
1766015830.1874619,46
1766015830.1874769,43
1766015830.18749,40
1766015830.1875021,42
1766015830.187513,44
1766015830.187524,45
1766015830.187535,42
1766015830.187546,44
1766015830.1875572,44
1766015830.1875682,44
1766015830.187579,43
1766015830.18759,44
1766015830.1876018,45
1766015830.187613,46
1766015830.187624,43
1766015830.187635,44
1766015830.187646,43
1766015830.1876569,44
1766015830.187668,42
1766015830.18768,43
1766015830.187691,44
1766015830.1877031,43
1766015830.187714,42
1766015830.187725,43
1766015830.187736,43
1766015830.187747,41
1766015830.187758,45
1766015830.1877692,42
1766015830.187781,42
1766015830.1877918,43
1766015830.1878028,41
1766015830.187814,43
1766015830.187825,40
1766015830.187839,42
1766015830.187853,41
1766015830.187865,42
1766015830.187876,43
1766015830.1878872,43
1766015830.1878982,43
1766015830.1879091,42
1766015830.1879208,43
1766015830.187932,40
1766015830.187943,43
1766015830.187954,43
1766015830.187965,43
1766015830.187977,43
1766015830.187988,42
1766015830.187999,42
1766015830.18801,43
1766015830.188021,43
1766015830.188033,44
1766015830.188044,42
1766015830.188056,42
1766015830.188067,45
1766015830.188079,42
1766015830.18809,44
1766015830.188102,41
1766015830.188113,41
1766015830.188124,42
1766015830.1881359,43
1766015830.1881468,42
1766015830.188159,44
1766015830.18817,42
1766015830.188185,40
1766015830.1881971,43
1766015830.18821,40
1766015830.188226,41
1766015830.188239,39
1766015830.1882508,41
1766015830.188262,41
1766015830.188274,41
1766015830.188286,38
1766015830.188297,39
1766015830.188308,42
1766015830.188319,41
1766015830.18833,42
1766015830.188341,43
1766015830.188352,40
1766015830.188363,38
1766015830.188375,40
1766015830.188386,40
1766015830.1883972,42
1766015830.1884081,40
1766015830.188419,43
1766015830.188431,41
1766015830.1884422,37
1766015830.188454,38
1766015830.188468,39
1766015830.188479,37
1766015830.18849,40
1766015830.188501,41
1766015830.188512,39
1766015830.188524,39
1766015830.1885371,41
1766015830.188548,43
1766015830.188559,39
1766015830.188571,42
1766015830.188582,40
1766015830.188595,42
1766015830.1886091,39
1766015830.188621,40
1766015830.188632,40
1766015830.1886442,38
1766015830.1886542,39
1766015830.188664,36
1766015830.188674,38
1766015830.188684,38
1766015830.188693,41
1766015830.188703,40
1766015830.188713,36
1766015830.1887228,37
1766015830.1887329,38
1766015830.1887429,38
1766015830.188753,38
1766015830.188763,39
1766015830.1887732,37
1766015830.1887832,40
1766015830.1887932,38
1766015830.188802,37
1766015830.188812,37
1766015830.188822,35
1766015830.188832,36
1766015830.188842,40
1766015830.188852,39
1766015830.1888618,36
1766015830.1888719,38
1766015830.1888819,37
1766015830.188892,35
1766015830.1889012,37
1766015830.1889122,39
1766015830.188921,34
1766015830.1889348,35
1766015830.188947,34
1766015830.188957,35
1766015830.188967,32
1766015830.188977,35
1766015830.1889868,37
1766015830.188996,38
1766015830.189006,32
1766015830.189016,37
1766015830.189026,37
1766015830.1890361,39
1766015830.189046,34
1766015830.189056,37
1766015830.189065,38
1766015830.189075,37
1766015830.189086,36
1766015830.189096,37
1766015830.189106,36
1766015830.189116,33
1766015830.1891258,36
1766015830.1891358,33
1766015830.189146,34
1766015830.189156,36
1766015830.189167,34
1766015830.189177,30
1766015830.189187,32
1766015830.189198,35
1766015830.189209,34
1766015830.189219,34
1766015830.1892312,32
1766015830.1892412,35
1766015830.1892512,35
1766015830.189263,36
1766015830.189276,32
1766015830.189287,35
1766015830.189298,32
1766015830.1893098,36
1766015830.189321,36
1766015830.189331,34
1766015830.1893408,33
1766015830.189353,35
1766015830.189363,35
1766015830.189373,38
1766015830.189383,33
1766015830.189394,34
1766015830.189404,33
1766015830.1894138,35
1766015830.189424,33
1766015830.189434,32
1766015830.189444,33
1766015830.189455,33
1766015830.189467,31
1766015830.189478,35
1766015830.1894872,35
1766015830.189497,36
1766015830.189507,33
1766015830.189517,30
1766015830.189527,32
1766015830.189537,30
1766015830.189547,30
1766015830.189557,33
1766015830.189567,33
1766015830.1895769,34
1766015830.189588,34
1766015830.189599,32
1766015830.1896122,33
1766015830.189625,32
1766015830.189635,36
1766015830.189646,33
1766015830.189656,29
1766015830.189666,32
1766015830.189676,33
1766015830.189686,33
1766015830.189696,34
1766015830.189707,32
1766015830.189717,32
1766015830.189727,30
1766015830.1897368,29
1766015830.1897469,29
1766015830.189756,29
1766015830.189766,32
1766015830.189776,31
1766015830.189787,33
1766015830.1897972,31
1766015830.189806,35
1766015830.189816,33
1766015830.189826,36
1766015830.189836,30
1766015830.189846,32
1766015830.189856,31
1766015830.189866,35
1766015830.189876,33
1766015830.1898859,32
1766015830.189903,32
1766015830.189913,32
1766015830.189923,29
1766015830.189933,36
1766015830.189943,32
1766015830.1899571,35
1766015830.1899672,36
1766015830.1899772,39
1766015830.1899872,35
1766015830.189997,40
1766015830.190007,35
1766015830.190017,36
1766015830.190027,37
1766015830.190037,35
1766015830.190047,39
1766015830.190057,40
1766015830.190067,42
1766015830.1900768,42
1766015830.1900868,39
1766015830.1900969,41
1766015830.1901062,38
1766015830.1901162,42
1766015830.190131,41
1766015830.1901429,38
1766015830.190154,39
1766015830.1901639,39
1766015830.1901739,38
1766015830.190188,38
1766015830.190198,42
1766015830.190208,35
1766015830.190218,38
1766015830.190228,40
1766015830.190238,40
1766015830.190248,38
1766015830.190258,37
1766015830.1902678,39
1766015830.1902778,41
1766015830.19029,42
1766015830.1903,38
1766015830.19031,36
1766015830.19032,40
1766015830.19033,41
1766015830.19034,39
1766015830.19035,38
1766015830.19036,40
1766015830.19037,39
1766015830.19038,39
1766015830.19039,36
1766015830.1904,42
1766015830.19041,42
1766015830.19042,42
1766015830.19043,40
1766015830.19044,39
1766015830.19045,41
1766015830.19046,42
1766015830.19047,45
1766015830.1904798,43
1766015830.19049,44
1766015830.1905,47
1766015830.19051,44
1766015830.19052,48
1766015830.19053,47
1766015830.19054,45
1766015830.19055,46
1766015830.19056,50
1766015830.1905699,47
1766015830.19058,48
1766015830.19059,46
1766015830.190633,46
1766015830.1906428,47
1766015830.190652,46
1766015830.190659,43
1766015830.190665,45
1766015830.1906712,47
1766015830.190677,45
1766015830.190683,43
1766015830.190689,46
1766015830.1906948,44
1766015830.1907,49
1766015830.190706,47
1766015830.190712,46
1766015830.190718,45
1766015830.1907241,47
1766015830.19073,47
1766015830.190735,46
1766015830.1907442,47
1766015830.19075,48
1766015830.1907551,48
1766015830.1907609,51
1766015830.190767,50
1766015830.190773,51
1766015830.190779,51
1766015830.190785,48
1766015830.19079,53
1766015830.190797,52
1766015830.1908019,51
1766015830.190808,50
1766015830.190814,52
1766015830.19082,52
1766015830.190826,51
1766015830.1908321,53
1766015830.190838,46
1766015830.1908429,47
1766015830.190856,46
1766015830.1908631,48
1766015830.190869,49
1766015830.190874,49
1766015830.19088,53
1766015830.1908858,51
1766015830.190892,51
1766015830.190898,51
1766015830.1909041,51
1766015830.1909099,53
1766015830.190915,56
1766015830.190921,58
1766015830.190927,56
1766015830.190933,59
1766015830.190939,56
1766015830.190945,59
1766015830.1909518,57
1766015830.190958,57
1766015830.190964,55
1766015830.1909702,58
1766015830.190976,60
1766015830.1909819,58
1766015830.190987,57
1766015830.1909928,58
1766015830.190999,60
1766015830.191005,60
1766015830.19101,61
1766015830.191016,61
1766015830.1910222,62
1766015830.1910279,61
1766015830.191034,64
1766015830.191039,63
1766015830.191045,65
1766015830.191052,62
1766015830.1910589,63
1766015830.1910641,62
1766015830.1910698,64
1766015830.191076,64
1766015830.191082,63
1766015830.1910882,63
1766015830.191094,62
1766015830.1911,62
1766015830.191133,61
1766015830.191148,59
1766015830.191158,63
1766015830.191168,60
1766015830.191178,60
1766015830.1911879,57
1766015830.1911979,64
1766015830.19121,62
1766015830.1912398,61
1766015830.191251,65
1766015830.1912608,62
1766015830.1912699,64
1766015830.1912801,62
1766015830.1912901,62
1766015830.1913002,61
1766015830.1913102,63
1766015830.191319,58
1766015830.191329,63
1766015830.191339,63
1766015830.191351,63
1766015830.1913621,67
1766015830.1913989,64
1766015830.191435,65
1766015830.1914449,61
1766015830.191454,65
1766015830.1914601,65
1766015830.191466,63
1766015830.191472,70
1766015830.191478,70
1766015830.191484,70
1766015830.19149,76
1766015830.191496,72
1766015830.191502,72
1766015830.1915069,73
1766015830.191513,74
1766015830.191519,75
1766015830.1915252,77
1766015830.19153,73
1766015830.1915362,76
1766015830.191542,76
1766015830.1915479,78
1766015830.191553,78
1766015830.1915588,77
1766015830.191565,81
1766015830.1915882,78
1766015830.191595,79
1766015830.1916,77
1766015830.191606,78
1766015830.191612,75
1766015830.191618,79
1766015830.191624,77
1766015830.1916301,77
1766015830.191635,75
1766015830.191641,79
1766015830.191647,76
1766015830.191653,82
1766015830.191659,81
1766015830.191666,80
1766015830.191673,77
1766015830.191679,80
1766015830.1916852,77
1766015830.191691,79
1766015830.191697,76
1766015830.1917021,75
1766015830.191709,77
1766015830.191715,72
1766015830.191721,72
1766015830.191726,74
1766015830.191732,74
1766015830.1917381,76
1766015830.191744,80
1766015830.1917498,80
1766015830.191755,80
1766015830.1917608,76
1766015830.191767,79
1766015830.191773,80
1766015830.1917791,81
1766015830.191784,81
1766015830.19179,77
1766015830.191823,75
1766015830.191831,76
1766015830.1918368,78
1766015830.191843,75
1766015830.191849,77
1766015830.1918552,75
1766015830.19186,78
1766015830.1918662,77
1766015830.191872,79
1766015830.191902,77
1766015830.191909,77
1766015830.191917,77
1766015830.191954,77
1766015830.191968,75
1766015830.191978,78
1766015830.191989,79
1766015830.191999,77
1766015830.19202,79
1766015830.1920261,80
1766015830.192032,81
1766015830.1920378,79
1766015830.192044,82
1766015830.1920488,82
1766015830.192055,82
1766015830.192061,77
1766015830.1920671,78
1766015830.1920729,81
1766015830.192078,77
1766015830.192084,79
1766015830.19209,79
1766015830.192096,75
1766015830.192101,78
1766015830.192107,79
1766015830.192113,80
1766015830.1921191,80
1766015830.192124,78
1766015830.19213,80
1766015830.192136,78
1766015830.192142,75
1766015830.192148,79
1766015830.192153,78
1766015830.192159,81
1766015830.1921651,80
1766015830.192171,78
1766015830.192179,81
1766015830.19219,82
1766015830.1921961,80
1766015830.192201,80
1766015830.192207,80
1766015830.192213,81
1766015830.1922188,80
1766015830.192224,80
1766015830.19223,82
1766015830.192236,79
1766015830.192242,79
1766015830.192249,77
1766015830.192255,78
1766015830.19226,74
1766015830.192266,79
1766015830.192272,77
1766015830.192278,76
1766015830.192283,75
1766015830.192289,76
1766015830.1922948,77
1766015830.1923,76
1766015830.1923058,76
1766015830.192312,76
1766015830.192318,80
1766015830.1923242,81
1766015830.192329,79
1766015830.1923351,82
1766015830.192341,80
1766015830.1923468,76
1766015830.192352,76
1766015830.1923578,78
1766015830.192364,80
1766015830.19237,77
1766015830.192379,76
1766015830.1923862,73
1766015830.192391,71
1766015830.192397,73
1766015830.1924028,75
1766015830.192408,77
1766015830.192414,76
1766015830.19242,75
1766015830.192426,74
1766015830.1924322,74
1766015830.192437,75
1766015830.192443,75
1766015830.192449,74
1766015830.1924548,77
1766015830.192461,78
1766015830.192466,74
1766015830.192472,75
1766015830.192478,76
1766015830.1924841,77
1766015830.19249,76
1766015830.192495,77
1766015830.192501,75
1766015830.1925068,76
1766015830.192513,76
1766015830.192518,74
1766015830.192524,75
1766015830.19253,74
1766015830.192536,74
1766015830.192541,74
1766015830.192547,73
1766015830.192553,76
1766015830.192559,79
1766015830.192564,73
1766015830.1925719,76
1766015830.192579,73
1766015830.192584,76
1766015830.19259,76
1766015830.192596,76
1766015830.1926022,72
1766015830.192607,75
1766015830.1926131,71
1766015830.192619,73
1766015830.192624,75
1766015830.19263,74
1766015830.192636,75
1766015830.192642,74
1766015830.192647,72
1766015830.192653,72
1766015830.192659,73
1766015830.192665,75
1766015830.1926699,73
1766015830.192676,73
1766015830.192682,75
1766015830.1926882,74
1766015830.192694,73
1766015830.1927,73
1766015830.192706,72
1766015830.1927109,73
1766015830.192717,73
1766015830.192723,73
1766015830.192729,71
1766015830.192734,71
1766015830.1927402,70
1766015830.192746,71
1766015830.1927521,70
1766015830.192757,70
1766015830.192765,71
1766015830.1927722,70
1766015830.192777,73
1766015830.192783,70
1766015830.192789,72
1766015830.1927948,70
1766015830.1928,69
1766015830.192806,66
1766015830.192812,69
1766015830.192818,72
1766015830.192823,69
1766015830.192829,67
1766015830.192835,70
1766015830.192841,68
1766015830.192846,71
1766015830.192852,67
1766015830.1928582,70
1766015830.192864,68
1766015830.1928692,70
1766015830.192875,71
1766015830.1928809,74
1766015830.192887,70
1766015830.1928918,70
1766015830.192898,67
1766015830.192904,68
1766015830.1929102,70
1766015830.192916,69
1766015830.1929212,71
1766015830.192927,70
1766015830.192933,69
1766015830.192939,67
1766015830.192944,68
1766015830.19295,71
1766015830.192961,70
1766015830.192967,68
1766015830.1929731,70
1766015830.1929789,71
1766015830.192985,68
1766015830.19299,71
1766015830.192996,68
1766015830.193002,70
1766015830.1930082,66
1766015830.193013,68
1766015830.193019,69
1766015830.193025,71
1766015830.1930299,70
1766015830.193036,70
1766015830.1930418,68
1766015830.193048,70
1766015830.193053,69
1766015830.193059,70
1766015830.193065,69
1766015830.1930702,70
1766015830.193076,68
1766015830.193082,67
1766015830.1930869,67
1766015830.193093,67
1766015830.193099,68
1766015830.193105,67
1766015830.19311,68
1766015830.193116,67
1766015830.1931221,67
1766015830.193127,69
1766015830.193133,66
1766015830.1931388,67
1766015830.193144,67
1766015830.193152,65
1766015830.193158,65
1766015830.193164,68
1766015830.1931698,68
1766015830.193176,65
1766015830.193181,66
1766015830.193187,67
1766015830.193193,66
1766015830.1931992,63
1766015830.1932092,68
1766015830.193215,67
1766015830.193221,65
1766015830.193227,66
1766015830.1932318,63
1766015830.193238,69
1766015830.193244,65
1766015830.19325,66
1766015830.193256,64
1766015830.1932611,63
1766015830.1932669,62
1766015830.193273,64
1766015830.193279,64
1766015830.1932852,64
1766015830.19329,61
1766015830.193296,65
1766015830.193302,66
1766015830.1933079,66
1766015830.193314,66
1766015830.1933188,64
1766015830.193325,65
1766015830.193331,62
1766015830.1933372,65
1766015830.193343,61
1766015830.1933482,67
1766015830.1933582,65
1766015830.193364,66
1766015830.1933708,61
1766015830.193377,64
1766015830.193383,62
1766015830.193389,63
1766015830.193394,64
1766015830.1934001,63
1766015830.1934059,61
1766015830.193411,65
1766015830.193417,63
1766015830.193423,64
1766015830.193429,61
1766015830.193434,63
1766015830.19344,61
1766015830.193446,62
1766015830.1934521,60
1766015830.1934578,63
1766015830.193463,60
1766015830.1934688,62
1766015830.193475,60
1766015830.193481,60
1766015830.193486,62
1766015830.193492,60
1766015830.1934981,58
1766015830.193504,59
1766015830.193509,57
1766015830.193515,60
1766015830.1935208,56
1766015830.193527,57
1766015830.193532,59
1766015830.193538,62
1766015830.193544,59
1766015830.1935492,59
1766015830.1935601,58
1766015830.1935658,58
1766015830.1935732,57
1766015830.193579,57
1766015830.193585,60
1766015830.19359,58
1766015830.193596,57
1766015830.193602,58
1766015830.1936069,56
1766015830.193614,60
1766015830.193619,59
1766015830.193625,58
1766015830.193631,52
1766015830.1936362,55
1766015830.193643,55
1766015830.1936488,55
1766015830.193654,54
1766015830.19366,53
1766015830.193666,52
1766015830.193672,53
1766015830.1936781,53
1766015830.193683,49
1766015830.193689,54
1766015830.193695,55
1766015830.193701,54
1766015830.193707,51
1766015830.1937149,50
1766015830.193721,51
1766015830.193726,50
1766015830.193735,49
1766015830.193741,54
1766015830.1937459,50
1766015830.193752,52
1766015830.193758,52
1766015830.193768,51
1766015830.193774,51
1766015830.193781,51
1766015830.1937869,52
1766015830.193793,49
1766015830.1937978,51
1766015830.193804,50
1766015830.19381,50
1766015830.193816,48
1766015830.193821,48
1766015830.1938272,48
1766015830.1938329,51
1766015830.193839,47
1766015830.193845,45
1766015830.19385,46
1766015830.193856,45
1766015830.193862,50
1766015830.193868,45
1766015830.193873,49
1766015830.1938791,46
1766015830.1938848,47
1766015830.193891,47
1766015830.193897,46
1766015830.193902,48
1766015830.193908,45
1766015830.1939142,46
1766015830.193919,50
1766015830.1939251,43
1766015830.193931,42
1766015830.1939368,46
1766015830.193942,45
1766015830.1939478,46
1766015830.193954,46
1766015830.19396,46
1766015830.19397,42
1766015830.1939762,43
1766015830.193982,44
1766015830.193989,47
1766015830.193994,44
1766015830.1939998,43
1766015830.194006,42
1766015830.194011,42
1766015830.194017,41
1766015830.194023,42
1766015830.194029,39
1766015830.1940339,42
1766015830.19404,44
1766015830.194046,39
1766015830.194052,43
1766015830.194057,47
1766015830.1940632,41
1766015830.194069,44
1766015830.1940749,43
1766015830.19408,41
1766015830.1940858,42
1766015830.194092,43
1766015830.194098,45
1766015830.194104,42
1766015830.194109,39
1766015830.1941152,39
1766015830.194121,40
1766015830.194127,41
1766015830.194133,39
1766015830.1941388,43
1766015830.194144,42
1766015830.19415,43
1766015830.194156,41
1766015830.194162,40
1766015830.194168,43
1766015830.194179,41
1766015830.194185,41
1766015830.194196,39
1766015830.1942022,42
1766015830.194208,38
1766015830.1942132,43
1766015830.194219,38
1766015830.1942248,42
1766015830.194231,39
1766015830.194237,41
1766015830.194243,40
1766015830.194248,39
1766015830.1942542,38
1766015830.19426,38
1766015830.194266,41
1766015830.194271,38
1766015830.194277,37
1766015830.194283,37
1766015830.194289,38
1766015830.194295,38
1766015830.1943,38
1766015830.1943061,37
1766015830.1943119,38
1766015830.194318,36
1766015830.194323,37
1766015830.194329,37
1766015830.194335,39
1766015830.19434,35
1766015830.194346,39
1766015830.1943521,34
1766015830.194358,35
1766015830.1943629,35
1766015830.194369,35
1766015830.1943748,33
1766015830.1943848,38
1766015830.194391,37
1766015830.1943989,37
1766015830.1944041,36
1766015830.19441,38
1766015830.194416,34
1766015830.194421,33
1766015830.1944268,34
1766015830.194433,34
1766015830.194439,37
1766015830.194444,38
1766015830.19445,38
1766015830.194456,36
1766015830.194462,37
1766015830.194467,32
1766015830.194473,36
1766015830.194479,37
1766015830.194485,32
1766015830.194491,36
1766015830.194496,33
1766015830.1945019,37
1766015830.194508,35
1766015830.1945128,34
1766015830.194519,34
1766015830.194525,34
1766015830.194531,35
1766015830.194537,35
1766015830.194544,34
1766015830.194549,32
1766015830.1945548,36
1766015830.194561,37
1766015830.194567,36
1766015830.194572,37
1766015830.194578,34
1766015830.194586,33
1766015830.1945999,35
1766015830.194605,33
1766015830.1946108,35
1766015830.194616,33
1766015830.194622,32
1766015830.194627,34
1766015830.194633,35
1766015830.1946392,33
1766015830.194644,36
1766015830.194649,34
1766015830.194655,36
1766015830.1946602,34
1766015830.194666,34
1766015830.1946712,32
1766015830.1946769,33
1766015830.1946821,33
1766015830.194688,32
1766015830.1946938,30
1766015830.194699,32
1766015830.1947038,31
1766015830.19471,30
1766015830.1947148,33
1766015830.194721,34
1766015830.194726,31
1766015830.194732,31
1766015830.194737,31
1766015830.1947432,30
1766015830.1947489,29
1766015830.1947541,31
1766015830.1947598,32
1766015830.194765,36
1766015830.1947699,33
1766015830.1947782,31
1766015830.194783,32
1766015830.1947908,34
1766015830.194797,30
1766015830.1948018,32
1766015830.194808,30
1766015830.194813,32
1766015830.194818,33
1766015830.194824,32
1766015830.1948302,31
1766015830.194835,29
1766015830.19484,31
1766015830.194846,31
1766015830.1948512,31
1766015830.194857,32
1766015830.1948621,32
1766015830.1948678,29
1766015830.194873,29
1766015830.194879,32
1766015830.194884,29
1766015830.19489,33
1766015830.194895,30
1766015830.194901,31
1766015830.194906,31
1766015830.194912,29
1766015830.1949172,29
1766015830.194923,31
1766015830.1949282,31
1766015830.194933,29
1766015830.194939,33
1766015830.194944,34
1766015830.1949499,28
1766015830.194955,28
1766015830.1949608,28
1766015830.194968,33
1766015830.194974,31
1766015830.1949801,29
1766015830.194987,29
1766015830.194992,29
1766015830.194998,29
1766015830.1950028,29
1766015830.195008,29
1766015830.195014,28
1766015830.195019,30
1766015830.195025,30
1766015830.19503,30
1766015830.195036,29
1766015830.195041,28
1766015830.195047,27
1766015830.1950521,29
1766015830.1950579,30
1766015830.195064,27
1766015830.1950688,28
1766015830.195075,30
1766015830.19508,26
1766015830.195085,28
1766015830.195091,28
1766015830.195096,32
1766015830.195102,30
1766015830.195107,26
1766015830.195113,28
1766015830.1951182,26
1766015830.195123,29
1766015830.1951292,29
1766015830.195134,27
1766015830.1951392,28
1766015830.195145,30
1766015830.195151,29
1766015830.1951559,29
1766015830.1951628,27
1766015830.195169,26
1766015830.195174,28
1766015830.195179,26
1766015830.195185,25
1766015830.19519,31
1766015830.195196,28
1766015830.195201,28
1766015830.1952069,30
1766015830.1952121,29
1766015830.1952178,29
1766015830.195223,28
1766015830.1952288,29
1766015830.195234,31
1766015830.19524,30
1766015830.195245,28
1766015830.195251,28
1766015830.195256,25
1766015830.195262,26
1766015830.195267,25
1766015830.195272,27
1766015830.1952782,25
1766015830.195283,27
1766015830.1952891,28
1766015830.195294,30
1766015830.1953,26
1766015830.1953049,26
1766015830.195311,27
1766015830.195316,30
1766015830.195322,27
1766015830.195327,26
1766015830.195333,23
1766015830.195338,25
1766015830.195345,26
1766015830.195352,27
1766015830.1953568,29
1766015830.195362,26
1766015830.195368,28
1766015830.195374,28
1766015830.195379,24
1766015830.195385,23
1766015830.195391,30
1766015830.1953962,25
1766015830.195401,25
1766015830.1954072,29
1766015830.195412,27
1766015830.1954181,25
1766015830.195423,27
1766015830.195429,28
1766015830.195434,26
1766015830.19544,28
1766015830.195446,25
1766015830.1954508,26
1766015830.195456,25
1766015830.195462,27
1766015830.195468,25
1766015830.195473,27
1766015830.1954792,28
1766015830.195484,22
1766015830.1954901,27
1766015830.195495,28
1766015830.1955001,25
1766015830.1955059,29
1766015830.195512,25
1766015830.1955168,24
1766015830.195523,24
1766015830.195529,28
1766015830.195536,23
1766015830.195541,29
1766015830.1955469,22
1766015830.195552,27
1766015830.1955578,25
1766015830.195563,23
1766015830.1955688,25
1766015830.195574,25
1766015830.1955788,26
1766015830.195585,23
1766015830.195591,25
1766015830.195596,28
1766015830.195601,24
1766015830.195607,23
1766015830.195612,26
1766015830.1956182,26
1766015830.195623,25
1766015830.1956291,29
1766015830.195634,24
1766015830.19564,27
1766015830.1956449,23
1766015830.195651,24
1766015830.1956558,28
1766015830.195662,28
1766015830.195668,25
1766015830.195673,25
1766015830.195679,26
1766015830.1956851,26
1766015830.195691,24
1766015830.1956968,25
1766015830.195702,25
1766015830.1957068,23
1766015830.195714,26
1766015830.19572,24
1766015830.195725,21
1766015830.195731,26
1766015830.1957371,25
1766015830.195742,21
1766015830.1957471,26
1766015830.1957529,26
1766015830.195758,26
1766015830.195764,23
1766015830.195769,26
1766015830.195775,26
1766015830.1957812,24
1766015830.195786,24
1766015830.195792,22
1766015830.195797,25
1766015830.1958022,28
1766015830.195808,29
1766015830.1958132,25
1766015830.195819,22
1766015830.1958241,27
1766015830.19583,24
1766015830.1958349,25
1766015830.195841,27
1766015830.1958458,26
1766015830.195852,26
1766015830.1958568,25
1766015830.195863,25
1766015830.195868,23
1766015830.195873,26
1766015830.195879,25
1766015830.195884,24
1766015830.19589,24
1766015830.195895,25
1766015830.1959019,25
1766015830.195908,23
1766015830.195916,22
1766015830.195921,22
1766015830.1959271,25
1766015830.195932,23
1766015830.195938,27
1766015830.1959429,25
1766015830.195949,23
1766015830.1959538,23
1766015830.195959,20
1766015830.1959648,22
1766015830.19597,26
1766015830.195976,27
1766015830.195982,27
1766015830.195987,25
1766015830.195992,26
1766015830.195998,23
1766015830.1960042,24
1766015830.196009,24
1766015830.1960151,26
1766015830.19602,23
1766015830.1960251,20
1766015830.196031,24
1766015830.196037,25
1766015830.196042,24
1766015830.1960478,25
1766015830.196053,24
1766015830.196059,27
1766015830.196064,25
1766015830.19607,27
1766015830.196075,25
1766015830.196081,24
1766015830.196086,25
1766015830.1960928,23
1766015830.196099,24
1766015830.196107,22
1766015830.196112,23
1766015830.196118,25
1766015830.1961632,23
1766015830.196169,23
1766015830.196175,26
1766015830.1961799,21
1766015830.196185,26
1766015830.196191,26
1766015830.196196,23
1766015830.196202,26
1766015830.196207,23
1766015830.196213,24
1766015830.196218,22
1766015830.196224,25
1766015830.1962292,28
1766015830.196235,24
1766015830.19624,25
1766015830.196246,23
1766015830.196251,26
1766015830.196257,25
1766015830.196262,25
1766015830.196268,24
1766015830.1962729,25
1766015830.196279,24
1766015830.1962838,23
1766015830.196289,25
1766015830.196295,25
1766015830.1963,24
1766015830.196306,26
1766015830.196311,28
1766015830.196317,26
1766015830.196324,23
1766015830.1963289,24
1766015830.196337,21
1766015830.196342,26
1766015830.196347,26
1766015830.196353,27
1766015830.196358,25
1766015830.196364,24
1766015830.19637,25
1766015830.1963751,22
1766015830.1963809,26
1766015830.196386,26
1766015830.1963909,24
1766015830.196397,25
1766015830.1964018,23
1766015830.196408,27
1766015830.196413,22
1766015830.196419,22
1766015830.196424,26
1766015830.19643,26
1766015830.196435,23
1766015830.1964412,25
1766015830.196446,23
1766015830.1964521,24
1766015830.196457,25
1766015830.196463,25
1766015830.1964679,26
1766015830.196474,23
1766015830.196479,24
1766015830.196485,25
1766015830.19649,26
1766015830.1964958,25
1766015830.196501,20
1766015830.196507,25
1766015830.1965141,22
1766015830.196519,26
1766015830.196526,21
1766015830.196532,22
1766015830.1965382,26
1766015830.196543,21
1766015830.1965492,26
1766015830.196554,22
1766015830.1965618,25
1766015830.196567,24
1766015830.196573,22
1766015830.196578,22
1766015830.196584,24
1766015830.196589,24
1766015830.196595,23
1766015830.1966,23
1766015830.196606,26
1766015830.1966112,26
1766015830.196617,23
1766015830.1966221,25
1766015830.196627,26
1766015830.196633,23
1766015830.196639,23
1766015830.196644,24
1766015830.196649,25
1766015830.196655,25
1766015830.19666,22
1766015830.196666,24
1766015830.196672,24
1766015830.1966772,23
1766015830.196683,24
1766015830.196689,23
1766015830.196695,21
1766015830.1966999,21
1766015830.196706,26
1766015830.196713,22
1766015830.196718,22
1766015830.196726,22
1766015830.1967309,20
1766015830.196737,24
1766015830.1967418,24
1766015830.196748,24
1766015830.1967528,19
1766015830.196759,23
1766015830.196764,23
1766015830.19677,24
1766015830.196775,21
1766015830.1967812,23
1766015830.196786,22
1766015830.1967921,22
1766015830.196797,25
1766015830.196803,23
1766015830.196809,24
1766015830.196814,23
1766015830.1968188,21
1766015830.196825,23
1766015830.19683,23
1766015830.196836,21
1766015830.196841,23
1766015830.1968472,26
1766015830.196853,25
1766015830.1968582,24
1766015830.196863,21
1766015830.1968691,22
1766015830.196875,22
1766015830.1968808,22
1766015830.196886,21
1766015830.196892,23
1766015830.196897,20
1766015830.196904,21
1766015830.1969101,21
1766015830.196918,23
1766015830.1969228,23
1766015830.19693,20
1766015830.196935,21
1766015830.1969411,22
1766015830.196946,21
1766015830.196952,23
1766015830.1969569,21
1766015830.196963,23
1766015830.1969678,20
1766015830.196974,23
1766015830.196979,23
1766015830.196985,23
1766015830.19699,21
1766015830.1969962,23
1766015830.197001,22
1766015830.197006,24
1766015830.197012,23
1766015830.1970172,22
1766015830.197023,22
1766015830.1970282,20
1766015830.197034,22
1766015830.19704,22
1766015830.197045,24
1766015830.19705,24
1766015830.197056,19
1766015830.197061,23
1766015830.197067,20
1766015830.1970718,21
1766015830.197078,24
1766015830.197083,22
1766015830.197089,21
1766015830.1970959,24
1766015830.197102,25
1766015830.197109,20
1766015830.197115,23
1766015830.19712,19
1766015830.197126,24
1766015830.197131,19
1766015830.1971369,20
1766015830.197143,23
1766015830.1971478,25
1766015830.197154,22
1766015830.1971588,20
1766015830.197165,20
1766015830.19717,22
1766015830.197176,25
1766015830.197181,24
1766015830.1971872,21
1766015830.197192,22
1766015830.1971982,23
1766015830.197203,24
1766015830.1972091,24
1766015830.197214,25
1766015830.19722,20
1766015830.1972249,21
1766015830.197231,23
1766015830.197236,24
1766015830.197242,20
1766015830.197247,24
1766015830.1972532,26
1766015830.197259,23
1766015830.197264,20
1766015830.197269,26
1766015830.197275,23
1766015830.19728,20
1766015830.197288,25
1766015830.197294,20
1766015830.197302,23
1766015830.1973069,25
1766015830.197313,20
1766015830.1973178,22
1766015830.197324,20
1766015830.1973288,24
1766015830.197335,23
1766015830.197341,22
1766015830.197346,22
1766015830.197351,24
1766015830.197357,23
1766015830.197362,23
1766015830.1973681,21
1766015830.1973739,23
1766015830.197379,25
1766015830.1973839,25
1766015830.19739,22
1766015830.197396,21
1766015830.197401,20
1766015830.197407,21
1766015830.197412,24
1766015830.197418,26
1766015830.1974232,24
1766015830.197429,21
1766015830.1974342,21
1766015830.19744,23
1766015830.1974452,24
1766015830.197451,21
1766015830.197456,24
1766015830.197462,23
1766015830.1974669,23
1766015830.197473,24
1766015830.197479,22
1766015830.197485,23
1766015830.197492,22
1766015830.1974988,23
1766015830.197504,20
1766015830.19751,22
1766015830.197515,25
1766015830.197521,25
1766015830.197526,26
1766015830.197532,22
1766015830.197537,20
1766015830.197543,23
1766015830.1975482,21
1766015830.1975539,22
1766015830.197559,25
1766015830.1975648,22
1766015830.19757,22
1766015830.197576,23
1766015830.197581,21
1766015830.197587,21
1766015830.197592,23
1766015830.197597,23
1766015830.197603,25
1766015830.197608,22
1766015830.1976142,22
1766015830.19762,22
1766015830.1976252,24
1766015830.19763,22
1766015830.1976361,23
1766015830.197641,20
1766015830.197647,20
1766015830.1976519,23
1766015830.197658,22
1766015830.197664,23
1766015830.197669,22
1766015830.197676,21
1766015830.1976829,21
1766015830.197691,23
1766015830.197696,22
1766015830.1977012,23
1766015830.197707,24
1766015830.197713,25
1766015830.197718,23
1766015830.1977239,25
1766015830.197729,22
1766015830.1977339,20
1766015830.19774,24
1766015830.197746,22
1766015830.197751,25
1766015830.1977558,23
1766015830.197762,22
1766015830.197767,23
1766015830.197773,22
1766015830.197778,20
1766015830.197784,22
1766015830.19779,23
1766015830.1977952,25
1766015830.1978009,20
1766015830.1978061,21
1766015830.197812,22
1766015830.197817,26
1766015830.197823,24
1766015830.197828,23
1766015830.197834,23
1766015830.197839,21
1766015830.197845,22
1766015830.1978502,21
1766015830.197856,24
1766015830.1978612,19
1766015830.197869,22
1766015830.1978738,23
1766015830.1978822,24
1766015830.197888,23
1766015830.1978931,23
1766015830.197898,22
1766015830.1979039,21
1766015830.19791,23
1766015830.1979148,25
1766015830.197921,24
1766015830.1979258,23
1766015830.197932,23
1766015830.197937,20
1766015830.197943,22
1766015830.197948,24
1766015830.197954,21
1766015830.197959,26
1766015830.1979651,20
1766015830.19797,23
1766015830.197976,21
1766015830.1979809,23
1766015830.197987,20
1766015830.1979918,22
1766015830.197997,24
1766015830.198003,23
1766015830.198008,24
1766015830.198014,22
1766015830.19802,22
1766015830.198025,22
1766015830.19803,21
1766015830.198036,23
1766015830.1980412,22
1766015830.198047,23
1766015830.1980522,22
1766015830.198059,25
1766015830.198066,23
1766015830.1980731,23
1766015830.1980789,21
1766015830.198084,18
1766015830.19809,24
1766015830.198095,19
1766015830.198101,21
1766015830.198106,23
1766015830.198112,21
1766015830.198117,22
1766015830.198123,22
1766015830.1981282,20
1766015830.198134,20
1766015830.198139,22
1766015830.198144,22
1766015830.19815,21
1766015830.198156,25
1766015830.198161,21
1766015830.198167,21
1766015830.1981719,23
1766015830.198177,20
1766015830.1981828,22
1766015830.198188,21
1766015830.198194,20
1766015830.1982,20
1766015830.198205,24
1766015830.198211,22
1766015830.198216,25
1766015830.1982222,23
1766015830.198227,23
1766015830.1982331,23
1766015830.198238,22
1766015830.198244,23
1766015830.198268,22
1766015830.198275,20
1766015830.1982799,21
1766015830.198286,21
1766015830.1982908,24
1766015830.198297,21
1766015830.198302,23
1766015830.198308,21
1766015830.198313,26
1766015830.1983192,20
1766015830.198324,22
1766015830.1983302,18
1766015830.198336,22
1766015830.1983411,21
1766015830.198346,21
1766015830.1983519,22
1766015830.198358,21
1766015830.1983628,24
1766015830.198369,20
1766015830.1983738,21
1766015830.19838,22
1766015830.198386,23
1766015830.198391,23
1766015830.198397,23
1766015830.1984022,24
1766015830.198408,21
1766015830.1984131,19
1766015830.1984189,20
1766015830.198424,20
1766015830.19843,23
1766015830.198435,21
1766015830.198441,20
1766015830.198447,22
1766015830.198454,20
1766015830.198459,22
1766015830.198467,23
1766015830.198473,19
1766015830.198478,21
1766015830.198484,20
1766015830.1984892,22
1766015830.198495,22
1766015830.1985002,22
1766015830.1985059,20
1766015830.198512,19
1766015830.198518,21
1766015830.198524,21
1766015830.198529,21
1766015830.198535,19
1766015830.19854,24
1766015830.198545,22
1766015830.198551,20
1766015830.198556,22
1766015830.1985621,19
1766015830.1985679,22
1766015830.198573,22
1766015830.1985788,22
1766015830.198584,22
1766015830.19859,21
1766015830.198596,21
1766015830.198601,21
1766015830.1986072,24
1766015830.198612,19
1766015830.1986182,21
1766015830.198623,23
1766015830.1986291,20
1766015830.198635,21
1766015830.19864,22
1766015830.198647,21
1766015830.1986518,21
1766015830.1986601,22
1766015830.198666,21
1766015830.1986718,21
1766015830.198677,23
1766015830.1986828,23
1766015830.198688,21
1766015830.198694,21
1766015830.198699,19
1766015830.198705,22
1766015830.1987112,22
1766015830.198716,23
1766015830.1987221,22
1766015830.198727,22
1766015830.198733,22
1766015830.1987379,19
1766015830.198743,20
1766015830.1987488,20
1766015830.198754,20
1766015830.19876,24
1766015830.198765,22
1766015830.198771,21
1766015830.198776,21
1766015830.198781,22
1766015830.198787,20
1766015830.198792,19
1766015830.1987982,20
1766015830.198803,18
1766015830.1988091,23
1766015830.198814,22
1766015830.19882,22
1766015830.198825,21
1766015830.198831,21
1766015830.198838,19
1766015830.1988428,20
1766015830.1988502,21
1766015830.1988559,20
1766015830.198862,23
1766015830.1988668,21
1766015830.198873,22
1766015830.198879,20
1766015830.1988852,19
1766015830.198891,21
1766015830.1988962,20
1766015830.1989021,22
1766015830.1989079,20
1766015830.198913,22
1766015830.1989188,23
1766015830.198924,21
1766015830.19893,20
1766015830.198935,21
1766015830.198941,19
1766015830.198946,22
1766015830.198952,19
1766015830.198957,22
1766015830.198963,21
1766015830.1989691,23
1766015830.198974,19
1766015830.19898,22
1766015830.1989849,20
1766015830.198991,22
1766015830.198996,22
1766015830.199001,22
1766015830.199007,21
1766015830.1990132,21
1766015830.199018,21
1766015830.1990242,20
1766015830.199029,23
1766015830.199036,20
1766015830.199042,23
1766015830.199049,19
1766015830.199054,23
1766015830.19906,22
1766015830.1990662,22
1766015830.199071,22
1766015830.1990771,17
1766015830.199082,21
1766015830.199088,17
1766015830.199093,22
1766015830.1990988,21
1766015830.199104,23
1766015830.1991098,19
1766015830.199115,23
1766015830.199121,21
1766015830.199126,22
1766015830.199132,22
1766015830.199137,18
1766015830.199143,21
1766015830.199148,18
1766015830.199154,22
1766015830.1991591,22
1766015830.1991649,23
1766015830.19917,23
1766015830.1991758,21
1766015830.199182,21
1766015830.199187,23
1766015830.199193,25
1766015830.199198,26
1766015830.1992042,23
1766015830.19921,20
1766015830.1992152,22
1766015830.199221,22
1766015830.199229,24
1766015830.19925,22
1766015830.199255,21
1766015830.199261,23
1766015830.199266,23
1766015830.199272,24
1766015830.1992772,22
1766015830.199283,25
1766015830.1992881,25
1766015830.199293,25
1766015830.199299,21
1766015830.1993039,24
1766015830.19931,22
1766015830.1993148,21
1766015830.199321,20
1766015830.199326,25
1766015830.199332,22
1766015830.199337,24
1766015830.1993432,23
1766015830.199348,22
1766015830.199353,21
1766015830.199359,21
1766015830.1993868,22
1766015830.1993952,22
1766015830.199401,20
1766015830.1994061,22
1766015830.1994119,20
1766015830.199418,23
1766015830.199424,23
1766015830.199429,21
1766015830.199435,21
1766015830.1994398,24
1766015830.199446,24
1766015830.1994529,21
1766015830.199459,21
1766015830.199465,23
1766015830.199471,23
1766015830.199476,21
1766015830.1994822,24
1766015830.199488,21
1766015830.1994932,22
1766015830.199499,22
1766015830.199504,23
1766015830.19951,22
1766015830.1995158,24
1766015830.199521,24
1766015830.199527,22
1766015830.199532,21
1766015830.199538,25
1766015830.199543,23
1766015830.199549,21
1766015830.1995552,26
1766015830.19956,23
1766015830.1995661,19
1766015830.199571,22
1766015830.199577,27
1766015830.199583,19
1766015830.199588,23
1766015830.199594,26
1766015830.199599,24
1766015830.199605,24
1766015830.19961,22
1766015830.199616,24
1766015830.1996212,24
1766015830.199628,23
1766015830.199633,25
1766015830.199639,19
1766015830.199646,24
1766015830.1996522,23
1766015830.199658,26
1766015830.1996632,26
1766015830.199669,23
1766015830.1996741,23
1766015830.19968,23
1766015830.199685,23
1766015830.199691,22
1766015830.1996958,26
1766015830.199702,25
1766015830.199708,27
1766015830.199713,22
1766015830.199719,23
1766015830.1997252,23
1766015830.19973,23
1766015830.199736,22
1766015830.1997418,23
1766015830.199747,25
1766015830.199753,25
1766015830.199758,23
1766015830.199764,26
1766015830.1997702,24
1766015830.199775,24
1766015830.1997812,25
1766015830.199787,26
1766015830.1997921,25
1766015830.199798,26
1766015830.1998029,25
1766015830.199809,26
1766015830.1998148,25
1766015830.19982,24
1766015830.199826,28
1766015830.1998332,28
1766015830.1998389,29
1766015830.199845,23
1766015830.19985,27
1766015830.199856,22
1766015830.199862,25
1766015830.1998668,28
1766015830.199873,27
1766015830.199879,28
1766015830.199884,27
1766015830.19989,28
1766015830.1998951,27
1766015830.1999009,29
1766015830.199907,28
1766015830.1999118,28
1766015830.199918,28
1766015830.199924,29
1766015830.199929,26
1766015830.199935,28
1766015830.1999402,26
1766015830.199946,26
1766015830.199952,28
1766015830.199957,28
1766015830.1999629,28
1766015830.199969,29
1766015830.1999738,28
1766015830.19998,26
1766015830.199986,30
1766015830.199991,31
1766015830.199997,27
1766015830.2000031,27
1766015830.2000089,27
1766015830.200014,31
1766015830.200022,27
1766015830.200029,29
1766015830.200035,26
1766015830.2000399,29
1766015830.200046,28
1766015830.200052,28
1766015830.200057,30
1766015830.200063,29
1766015830.2000692,32
1766015830.200074,31
1766015830.20008,31
1766015830.200086,32
1766015830.200091,30
1766015830.200097,32
1766015830.2001028,28
1766015830.200108,29
1766015830.200114,29
1766015830.200119,33
1766015830.200125,29
1766015830.20013,26
1766015830.200136,30
1766015830.2001421,29
1766015830.200147,32
1766015830.200153,30
1766015830.2001579,29
1766015830.200164,29
1766015830.20017,29
1766015830.200175,29
1766015830.200181,31
1766015830.200186,31
1766015830.200192,33
1766015830.2001972,32
1766015830.200203,28
1766015830.2002099,30
1766015830.200217,32
1766015830.200222,33
1766015830.2002282,30
1766015830.200234,30
1766015830.2002392,29
1766015830.200245,32
1766015830.2002509,31
1766015830.200256,29
1766015830.2002618,29
1766015830.200267,29
1766015830.2002728,30
1766015830.200278,32
1766015830.200284,25
1766015830.200289,30
1766015830.200295,30
1766015830.2003012,28
1766015830.200306,31
1766015830.2003121,27
1766015830.200317,31
1766015830.200323,31
1766015830.2003279,30
1766015830.200334,30
1766015830.20034,27
1766015830.200345,28
1766015830.200351,32
1766015830.200356,28
1766015830.200362,28
1766015830.2003672,29
1766015830.200373,30
1766015830.200379,29
1766015830.200384,29
1766015830.2003899,29
1766015830.200397,29
1766015830.200403,29
1766015830.2004101,29
1766015830.200416,31
1766015830.200421,27
1766015830.200427,28
1766015830.200432,31
1766015830.200438,29
1766015830.2004428,29
1766015830.200449,29
1766015830.200455,33
1766015830.20046,29
1766015830.200466,31
1766015830.200471,29
1766015830.200477,31
1766015830.200483,31
1766015830.2004879,30
1766015830.200494,29
1766015830.2005,31
1766015830.200505,30
1766015830.200511,29
1766015830.2005172,28
1766015830.200522,31
1766015830.200528,28
1766015830.200535,32
1766015830.200542,32
1766015830.2005491,28
1766015830.200555,29
1766015830.20056,31
1766015830.200566,31
1766015830.2005708,31
1766015830.200577,30
1766015830.2005818,30
1766015830.200587,29
1766015830.200594,28
1766015830.200599,31
1766015830.200604,28
1766015830.200609,30
1766015830.200614,31
1766015830.200619,27
1766015830.2006242,30
1766015830.200629,31
1766015830.200634,30
1766015830.200639,33
1766015830.200644,31
1766015830.200649,32
1766015830.200654,32
1766015830.200659,33
1766015830.200663,30
1766015830.2006679,32
1766015830.200673,31
1766015830.2006779,33
1766015830.200683,30
1766015830.2006881,32
1766015830.200693,32
1766015830.2006981,30
1766015830.200703,29
1766015830.2007082,32
1766015830.200713,30
1766015830.200717,31
1766015830.200722,30
1766015830.200727,33
1766015830.200732,29
1766015830.200737,34
1766015830.200742,31
1766015830.200747,33
1766015830.200752,32
1766015830.200757,28
1766015830.200763,31
1766015830.200769,32
1766015830.200774,30
1766015830.200779,32
1766015830.200784,31
1766015830.20079,31
1766015830.2007942,31
1766015830.200799,33
1766015830.200804,33
1766015830.200809,32
1766015830.200814,33
1766015830.200819,30
1766015830.200824,33
1766015830.200829,32
1766015830.200834,28
1766015830.2008388,32
1766015830.200844,29
1766015830.2008479,28
1766015830.200853,28
1766015830.200858,30
1766015830.200863,31
1766015830.2008681,29
1766015830.200873,32
1766015830.2008781,31
1766015830.200883,30
1766015830.2008882,29
1766015830.200893,30
1766015830.200898,33
1766015830.200903,31
1766015830.200908,29
1766015830.200913,30
1766015830.200918,31
1766015830.200923,28
1766015830.200929,31
1766015830.200935,30
1766015830.2009401,31
1766015830.2009442,32
1766015830.200953,30
1766015830.200958,28
1766015830.200963,32
1766015830.200968,29
1766015830.200974,32
1766015830.2009778,32
1766015830.200983,30
1766015830.2009878,28
1766015830.200993,32
1766015830.2009978,32
1766015830.201003,33
1766015830.201008,34
1766015830.201013,29
1766015830.201018,31
1766015830.2010229,33
1766015830.2010272,30
1766015830.201032,29
1766015830.2010372,32
1766015830.201042,31
1766015830.201047,32
1766015830.201052,27
1766015830.201057,31
1766015830.201062,33
1766015830.201067,33
1766015830.2010722,32
1766015830.201076,33
1766015830.201081,31
1766015830.201086,30
1766015830.201091,29
1766015830.201097,29
1766015830.2011032,30
1766015830.201108,29
1766015830.201113,30
1766015830.201118,31
1766015830.201123,32
1766015830.201128,27
1766015830.201132,32
1766015830.2011368,34
1766015830.201142,33
1766015830.2011468,28
1766015830.201152,30
1766015830.201157,33
1766015830.201162,31
1766015830.201167,33
1766015830.2011719,30
1766015830.2011771,30
1766015830.201182,30
1766015830.2011871,31
1766015830.201192,29
1766015830.2011971,30
1766015830.201202,31
1766015830.201207,28
1766015830.201212,31
1766015830.201217,31
1766015830.201222,32
1766015830.201227,31
1766015830.201232,30
1766015830.201237,30
1766015830.2012422,29
1766015830.201247,29
1766015830.201252,32
1766015830.201257,31
1766015830.2012632,33
1766015830.201269,29
1766015830.2012742,30
1766015830.201279,29
1766015830.2012842,30
1766015830.201289,26
1766015830.2012942,30
1766015830.201299,32
1766015830.201304,32
1766015830.201309,29
1766015830.201314,32
1766015830.201319,30
1766015830.201324,30
1766015830.201329,28
1766015830.201334,29
1766015830.2013388,30
1766015830.201344,29
1766015830.201349,30
1766015830.201354,28
1766015830.201359,27
1766015830.201364,30
1766015830.201369,27
1766015830.201374,30
1766015830.201379,29
1766015830.2013838,32
1766015830.201389,29
1766015830.2013938,29
1766015830.201399,29
1766015830.2014039,27
1766015830.201409,32
1766015830.2014139,31
1766015830.201419,27
1766015830.2014248,32
1766015830.20143,28
1766015830.2014349,32
1766015830.20144,29
1766015830.201445,30
1766015830.2014499,30
1766015830.201455,30
1766015830.20146,30
1766015830.2014651,30
1766015830.20147,29
1766015830.2014751,31
1766015830.20148,32
1766015830.2014852,34
1766015830.201489,30
1766015830.201494,31
1766015830.201499,31
1766015830.201504,30
1766015830.2015092,30
1766015830.201514,30
1766015830.201519,30
1766015830.201524,32
1766015830.201529,31
1766015830.201534,34
1766015830.201539,31
1766015830.201544,32
1766015830.201549,29
1766015830.2015538,30
1766015830.201559,33
1766015830.2015638,31
1766015830.201569,32
1766015830.2015731,30
1766015830.201578,36
1766015830.2015831,35
1766015830.201588,33
1766015830.2015932,32
1766015830.201598,36
1766015830.2016032,31
1766015830.201608,34
1766015830.201613,34
1766015830.201618,31
1766015830.201622,34
1766015830.2016268,32
1766015830.201632,33
1766015830.201637,34
1766015830.201642,35
1766015830.201647,34
1766015830.201652,33
1766015830.201657,34
1766015830.201662,33
1766015830.201667,33
1766015830.2016718,34
1766015830.201677,31
1766015830.2016819,31
1766015830.201687,32
1766015830.2016919,35
1766015830.201697,31
1766015830.2017012,33
1766015830.201706,32
1766015830.2017112,37
1766015830.201716,34
1766015830.2017212,35
1766015830.201726,34
1766015830.201731,33
1766015830.201736,34
1766015830.201741,36
1766015830.201746,32
1766015830.201751,34
1766015830.201756,35
1766015830.201761,33
1766015830.2017658,33
1766015830.201771,32
1766015830.201776,33
1766015830.201781,34
1766015830.201785,36
1766015830.2017899,34
1766015830.201795,37
1766015830.2017999,34
1766015830.201805,35
1766015830.20181,35
1766015830.2018151,33
1766015830.20182,36
1766015830.2018251,37
1766015830.20183,35
1766015830.201835,34
1766015830.2018402,32
1766015830.201845,35
1766015830.2018502,35
1766015830.201855,33
1766015830.2018602,33
1766015830.201864,32
1766015830.201869,36
1766015830.201874,35
1766015830.201879,35
1766015830.2018838,35
1766015830.201889,37
1766015830.2018938,34
1766015830.201899,39
1766015830.201904,36
1766015830.201909,36
1766015830.201914,33
1766015830.201918,37
1766015830.2019231,36
1766015830.201928,33
1766015830.2019331,36
1766015830.201938,38
1766015830.2019432,35
1766015830.201948,35
1766015830.201953,37
1766015830.201958,36
1766015830.201963,38
1766015830.2019682,38
1766015830.201973,36
1766015830.2019782,37
1766015830.201983,33
1766015830.201988,36
1766015830.201993,37
1766015830.201998,37
1766015830.202003,37
1766015830.202008,36
1766015830.202013,37
1766015830.202018,37
1766015830.202025,37
1766015830.2020311,38
1766015830.202037,36
1766015830.2020428,37
1766015830.202049,39
1766015830.202055,38
1766015830.202061,37
1766015830.202067,38
1766015830.2020721,37
1766015830.202077,38
1766015830.2020822,36
1766015830.202087,38
1766015830.202092,38
1766015830.202097,38
1766015830.202102,36
1766015830.202107,40
1766015830.202111,37
1766015830.202116,37
1766015830.202121,37
1766015830.202126,39
1766015830.202131,37
1766015830.202136,35
1766015830.202141,36
1766015830.202146,36
1766015830.2021508,38
1766015830.202155,41
1766015830.2021601,38
1766015830.202165,39
1766015830.2021701,38
1766015830.202175,38
1766015830.2021801,39
1766015830.2021859,34
1766015830.202191,39
1766015830.202196,36
1766015830.2022011,40
1766015830.202206,38
1766015830.2022111,37
1766015830.202216,38
1766015830.20222,39
1766015830.202225,40
1766015830.20223,42
1766015830.202236,41
1766015830.20224,38
1766015830.2022452,40
1766015830.20225,40
1766015830.202255,40
1766015830.20226,39
1766015830.202265,38
1766015830.202271,38
1766015830.202276,36
1766015830.202281,36
1766015830.202286,37
1766015830.202291,36
1766015830.202296,38
1766015830.202301,36
1766015830.202306,37
1766015830.2023108,36
1766015830.202316,39
1766015830.2023208,36
1766015830.202326,34
1766015830.2023308,35
1766015830.202336,35
1766015830.202341,35
1766015830.202345,36
1766015830.2023501,33
1766015830.202355,37
1766015830.2023602,37
1766015830.202365,37
1766015830.2023702,36
1766015830.202375,36
1766015830.20238,36
1766015830.202385,36
1766015830.20239,35
1766015830.202394,36
1766015830.202399,39
1766015830.202404,38
1766015830.202409,35
1766015830.202414,37
1766015830.202419,38
1766015830.202424,34
1766015830.2024288,37
1766015830.202434,35
1766015830.2024388,33
1766015830.202444,34
1766015830.2024488,36
1766015830.202454,34
1766015830.2024589,36
1766015830.202464,38
1766015830.202469,36
1766015830.2024739,36
1766015830.2024791,38
1766015830.202504,35
1766015830.203277,35
1766015830.204278,36
1766015830.205301,38
1766015830.206292,34
1766015830.207294,35
1766015830.2082949,35
1766015830.2093,35
1766015830.2103639,38
1766015830.211288,35
1766015830.212288,35
1766015830.213297,38
1766015830.214305,38
1766015830.215298,36
1766015830.216297,38
1766015830.217314,37
1766015830.2183192,34
1766015830.219348,32
1766015830.220314,32
1766015830.221329,35
1766015830.222334,35
1766015830.2233799,33
1766015830.22432,33
1766015830.2253609,33
1766015830.2263198,35
1766015830.2273421,34
1766015830.2283862,33
1766015830.229387,36
1766015830.2303739,33
1766015830.23139,35
1766015830.232376,34
1766015830.233366,34
1766015830.2344,34
1766015830.235357,33
1766015830.236376,34
1766015830.237374,30
1766015830.238411,33
1766015830.239412,35
1766015830.240396,32
1766015830.2414331,33
1766015830.242421,32
1766015830.2434251,31
1766015830.244386,32
1766015830.245389,33
1766015830.246412,30
1766015830.2474308,31
1766015830.2483761,33
1766015830.2494369,34
1766015830.250441,34
1766015830.251468,33
1766015830.252415,32
1766015830.253435,32
1766015830.254497,31
1766015830.2554722,32
1766015830.256481,33
1766015830.257409,33
1766015830.258409,34
1766015830.2594209,29
1766015830.2604659,32
1766015830.2614112,30
1766015830.262465,29
1766015830.2634828,30
1766015830.2644422,31
1766015830.265437,32
1766015830.266495,32
1766015830.267491,30
1766015830.2684228,33
1766015830.269443,31
1766015830.270489,30
1766015830.271484,31
1766015830.27246,30
1766015830.2734568,32
1766015830.274473,28
1766015830.2755032,29
1766015830.276523,30
1766015830.2774882,26
1766015830.278503,27
1766015830.27953,31
1766015830.2805161,31
1766015830.281522,27
1766015830.282528,29
1766015830.283519,30
1766015830.284493,31
1766015830.2855349,28
1766015830.2865338,28
1766015830.28754,30
1766015830.2885382,30
1766015830.289532,30
1766015830.290535,28
1766015830.291539,29
1766015830.2925382,29
1766015830.293548,29
1766015830.294543,32
1766015830.295556,31
1766015830.296553,28
1766015830.2975738,28
1766015830.298581,25
1766015830.2995682,28
1766015830.300579,26
1766015830.301565,31
1766015830.302565,27
1766015830.303573,29
1766015830.304566,28
1766015830.3055732,30
1766015830.3065732,27
1766015830.307585,28
1766015830.308608,27
1766015830.309603,27
1766015830.310616,27
1766015830.311622,28
1766015830.312596,26
1766015830.3136141,27
1766015830.314614,29
1766015830.315627,26
1766015830.316628,28
1766015830.317606,28
1766015830.318602,27
1766015830.319607,30
1766015830.3206,29
1766015830.3216152,27
1766015830.322626,27
1766015830.323659,29
1766015830.324647,28
1766015830.325639,31
1766015830.326624,26
1766015830.32763,28
1766015830.328622,27
1766015830.329653,31
1766015830.3306382,28
1766015830.3316228,26
1766015830.332625,26
1766015830.333623,27
1766015830.334638,26
1766015830.335657,27
1766015830.336628,29
1766015830.337655,30
1766015830.3386612,27
1766015830.3396428,25
1766015830.340638,29
1766015830.3416278,26
1766015830.342635,30
1766015830.343626,29
1766015830.344644,27
1766015830.345651,28
1766015830.346653,23
1766015830.347656,27
1766015830.348659,26
1766015830.349653,28
1766015830.350658,27
1766015830.351669,26
1766015830.3526678,27
1766015830.3536682,27
1766015830.3546848,27
1766015830.35569,25
1766015830.356699,28
1766015830.357682,28
1766015830.358679,24
1766015830.3597078,26
1766015830.3607008,28
1766015830.361695,26
1766015830.362709,25
1766015830.363701,25
1766015830.3647192,26
1766015830.3657222,27
1766015830.366706,25
1766015830.367712,27
1766015830.368716,25
1766015830.369719,26
1766015830.370719,25
1766015830.371744,27
1766015830.372732,22
1766015830.373751,24
1766015830.374727,23
1766015830.375724,23
1766015830.376731,25
1766015830.3777332,27
1766015830.3787148,25
1766015830.379749,24
1766015830.3807511,27
1766015830.381731,26
1766015830.382762,26
1766015830.383751,27
1766015830.3847558,24
1766015830.385788,26
1766015830.386783,26
1766015830.3877928,22
1766015830.388787,27
1766015830.389795,24
1766015830.3907998,24
1766015830.391793,28
1766015830.392771,29
1766015830.3937721,24
1766015830.394793,23
1766015830.395799,25
1766015830.396818,24
1766015830.397826,24
1766015830.3988101,24
1766015830.399795,26
1766015830.4008162,26
1766015830.401814,24
1766015830.402808,27
1766015830.403805,24
1766015830.4048069,25
1766015830.4058108,26
1766015830.406846,27
1766015830.407849,25
1766015830.4088352,23
1766015830.409819,27
1766015830.41083,23
1766015830.411841,25
1766015830.412843,25
1766015830.4138398,25
1766015830.414845,22
1766015830.415853,26
1766015830.416862,28
1766015830.417863,27
1766015830.41888,23
1766015830.419899,26
1766015830.420876,25
1766015830.4219038,24
1766015830.4228868,24
1766015830.423875,25
1766015830.42488,26
1766015830.4258869,23
1766015830.4269,23
1766015830.427901,26
1766015830.4288902,27
1766015830.429918,25
1766015830.430922,26
1766015830.431963,26
1766015830.432946,28
1766015830.433949,28
1766015830.43496,25
1766015830.4359522,26
1766015830.43695,22
1766015830.43797,22
1766015830.438945,22
1766015830.439935,26
1766015830.440931,24
1766015830.441961,25
1766015830.442967,21
1766015830.443954,24
1766015830.444959,24
1766015830.445973,22
1766015830.446969,27
1766015830.447969,26
1766015830.448981,26
1766015830.449965,24
1766015830.4509828,23
1766015830.4519942,25
1766015830.452995,26
1766015830.45401,25
1766015830.45502,25
1766015830.456009,25
1766015830.4570072,21
1766015830.4580119,25
1766015830.459017,25
1766015830.4600089,25
1766015830.4610019,23
1766015830.462019,23
1766015830.46304,24
1766015830.4639978,26
1766015830.465,26
1766015830.466008,22
1766015830.467026,22
1766015830.468033,25
1766015830.469033,24
1766015830.47002,25
1766015830.4710422,24
1766015830.472044,24
1766015830.473025,22
1766015830.474057,24
1766015830.4750469,25
1766015830.476044,25
1766015830.477045,23
1766015830.4780312,25
1766015830.479031,25
1766015830.480028,22
1766015830.481041,22
1766015830.482035,24
1766015830.483042,25
1766015830.484048,24
1766015830.485038,26
1766015830.486041,24
1766015830.4870589,23
1766015830.488044,27
1766015830.489067,24
1766015830.490148,24
1766015830.4910731,26
1766015830.4921658,25
1766015830.493166,23
1766015830.494168,24
1766015830.495169,24
1766015830.496165,26
1766015830.4971762,26
1766015830.498156,28
1766015830.499159,26
1766015830.500154,24
1766015830.501177,28
1766015830.502167,27
1766015830.503159,25
1766015830.504162,27
1766015830.50514,22
1766015830.506144,27
1766015830.507139,25
1766015830.508138,26
1766015830.5091321,24
1766015830.510127,27
1766015830.511141,25
1766015830.512151,28
1766015830.513195,27
1766015830.514177,26
1766015830.515167,25
1766015830.516139,25
1766015830.5171368,26
1766015830.5181289,26
1766015830.519134,25
1766015830.5201468,27
1766015830.521136,31
1766015830.5221279,30
1766015830.523148,31
1766015830.524139,30
1766015830.5251951,32
1766015830.526151,33
1766015830.527159,35
1766015830.528173,34
1766015830.529189,34
1766015830.530176,35
1766015830.531158,34
1766015830.5321522,34
1766015830.533172,33
1766015830.53416,30
1766015830.535188,32
1766015830.53619,33
1766015830.537195,33
1766015830.538197,34
1766015830.5391948,33
1766015830.540192,33
1766015830.5412009,35
1766015830.542242,33
1766015830.543241,35
1766015830.544254,35
1766015830.5453062,36
1766015830.546272,37
1766015830.547263,35
1766015830.5482821,35
1766015830.5492852,35
1766015830.550276,37
1766015830.5512562,39
1766015830.552259,36
1766015830.5532842,37
1766015830.554281,35
1766015830.5552828,34
1766015830.5562801,36
1766015830.557302,35
1766015830.5583,35
1766015830.559305,37
1766015830.560317,37
1766015830.56128,38
1766015830.562272,40
1766015830.5632908,40
1766015830.564306,42
1766015830.565291,42
1766015830.566297,43
1766015830.5672839,41
1766015830.568301,42
1766015830.569279,44
1766015830.570286,43
1766015830.571311,43
1766015830.572321,42
1766015830.573303,44
1766015830.574282,44
1766015830.5753238,44
1766015830.5763211,44
1766015830.577308,49
1766015830.578326,48
1766015830.579322,46
1766015830.580349,46
1766015830.581331,45
1766015830.582324,44
1766015830.5833228,44
1766015830.584346,50
1766015830.585335,51
1766015830.586335,50
1766015830.587334,53
1766015830.588338,54
1766015830.589345,55
1766015830.5903208,54
1766015830.5913348,56
1766015830.5923488,54
1766015830.593351,55
1766015830.594341,57
1766015830.5953522,53
1766015830.5963762,56
1766015830.597373,54
1766015830.598356,54
1766015830.599375,54
1766015830.600375,54
1766015830.6013749,50
1766015830.6023848,52
1766015830.6033862,52
1766015830.604357,54
1766015830.605385,55
1766015830.606393,59
1766015830.607408,61
1766015830.6084108,65
1766015830.609408,73
1766015830.6104379,72
1766015830.611422,73
1766015830.612427,75
1766015830.613419,74
1766015830.614413,72
1766015830.615405,75
1766015830.616437,73
1766015830.617425,76
1766015830.618467,78
1766015830.6194198,75
1766015830.6204412,72
1766015830.621433,71
1766015830.622439,74
1766015830.623435,77
1766015830.6244638,80
1766015830.6254451,84
1766015830.626461,88
1766015830.627468,89
1766015830.628469,90
1766015830.6294742,91
1766015830.630486,91
1766015830.631475,90
1766015830.6324632,95
1766015830.6334531,92
1766015830.634468,90
1766015830.635467,89
1766015830.6364632,88
1766015830.63749,90
1766015830.6384919,95
1766015830.639497,97
1766015830.640508,97
1766015830.6415071,99
1766015830.642576,104
1766015830.643565,107
1766015830.644567,112
1766015830.645577,110
1766015830.6465878,111
1766015830.647574,111
1766015830.648594,111
1766015830.649607,108
1766015830.65059,109
1766015830.6515892,113
1766015830.652597,112
1766015830.6536021,115
1766015830.654616,116
1766015830.655592,115
1766015830.6566222,112
1766015830.6576169,110
1766015830.658615,113
1766015830.659641,113
1766015830.6606212,119
1766015830.661619,124
1766015830.6626198,126
1766015830.663618,126
1766015830.664633,126
1766015830.665636,127
1766015830.666637,124
1766015830.667639,129
1766015830.668632,132
1766015830.6696289,134
1766015830.670625,137
1766015830.671627,140
1766015830.672631,138
1766015830.67364,141
1766015830.6746418,142
1766015830.6756532,140
1766015830.676657,140
1766015830.67766,138
1766015830.678647,136
1766015830.6796548,135
1766015830.680659,136
1766015830.681667,132
1766015830.682674,134
1766015830.683681,134
1766015830.6846862,138
1766015830.6856918,141
1766015830.686698,145
1766015830.687704,153
1766015830.688708,157
1766015830.689693,161
1766015830.6906939,164
1766015830.691699,162
1766015830.692715,159
1766015830.6937149,161
1766015830.69473,159
1766015830.6957319,158
1766015830.6967208,156
1766015830.69773,153
1766015830.698723,153
1766015830.699734,152
1766015830.700748,155
1766015830.701733,163
1766015830.702743,163
1766015830.7037508,164
1766015830.704751,167
1766015830.705736,169
1766015830.7067788,168
1766015830.707766,173
1766015830.708756,170
1766015830.709791,167
1766015830.710772,168
1766015830.7117782,164
1766015830.712767,163
1766015830.7137809,164
1766015830.7147799,165
1766015830.715762,165
1766015830.7167869,161
1766015830.717768,159
1766015830.718774,159
1766015830.7197871,162
1766015830.7207968,157
1766015830.721807,161
1766015830.722788,161
1766015830.723798,160
1766015830.724812,158
1766015830.725811,159
1766015830.726816,161
1766015830.727809,160
1766015830.728817,160
1766015830.729831,158
1766015830.730839,158
1766015830.731828,158
1766015830.732846,159
1766015830.733856,157
1766015830.734872,156
1766015830.735857,157
1766015830.7368379,154
1766015830.7378502,149
1766015830.738847,149
1766015830.7398531,148
1766015830.740869,146
1766015830.741871,146
1766015830.7428548,150
1766015830.743875,149
1766015830.7448719,149
1766015830.745863,147
1766015830.746871,147
1766015830.747869,152
1766015830.74887,150
1766015830.74988,151
1766015830.7508621,149
1766015830.7518709,152
1766015830.752874,148
1766015830.753867,148
1766015830.754884,144
1766015830.7558951,143
1766015830.756906,143
1766015830.757888,140
1766015830.7589,137
1766015830.759899,137
1766015830.760942,139
1766015830.761921,138
1766015830.762914,140
1766015830.7639208,138
1766015830.764914,138
1766015830.765944,139
1766015830.766944,138
1766015830.767953,134
1766015830.768955,136
1766015830.769956,134
1766015830.770955,130
1766015830.7719538,134
1766015830.772952,133
1766015830.773976,131
1766015830.774977,127
1766015830.775986,128
1766015830.7769752,130
1766015830.7779698,132
1766015830.778979,130
1766015830.779973,132
1766015830.780994,131
1766015830.7819788,131
1766015830.782987,125
1766015830.7839859,127
1766015830.7849998,124
1766015830.786011,124
1766015830.788102,123
1766015830.788126,127
1766015830.7890408,123
1766015830.7899919,122
1766015830.79098,122
1766015830.791976,119
1766015830.7929852,118
1766015830.793987,117
1766015830.794985,119
1766015830.79599,115
1766015830.797004,113
1766015830.798002,116
1766015830.798989,118
1766015830.799988,115
1766015830.8009899,121
1766015830.801996,119
1766015830.803009,118
1766015830.8040152,116
1766015830.805026,115
1766015830.806035,114
1766015830.807012,113
1766015830.808091,114
1766015830.809054,111
1766015830.810036,111
1766015830.8110259,108
1766015830.8120341,107
1766015830.813039,108
1766015830.814025,104
1766015830.815048,107
1766015830.816054,107
1766015830.817045,103
1766015830.818053,106
1766015830.8190541,106
1766015830.820142,107
1766015830.821056,110
1766015830.822152,111
1766015830.823175,111
1766015830.824168,114
1766015830.825171,117
1766015830.8261619,123
1766015830.8271549,128
1766015830.828146,135
1766015830.829141,136
1766015830.830144,136
1766015830.831151,137
1766015830.832147,136
1766015830.8331552,140
1766015830.8341372,140
1766015830.835156,143
1766015830.836173,141
1766015830.837153,139
1766015830.838138,137
1766015830.839139,134
1766015830.840147,137
1766015830.841144,138
1766015830.842141,137
1766015830.8431401,138
1766015830.84414,138
1766015830.8451571,137
1766015830.8461592,137
1766015830.847171,136
1766015830.848232,134
1766015830.849173,131
1766015830.850239,131
1766015830.851244,131
1766015830.8522391,131
1766015830.853235,127
1766015830.85424,126
1766015830.855244,124
1766015830.856204,124
1766015830.8572001,123
1766015830.858208,123
1766015830.8592288,120
1766015830.8601868,120
1766015830.8612192,119
1766015830.862182,114
1766015830.8632162,114
1766015830.864209,113
1766015830.865203,111
1766015830.866236,108
1766015830.867241,106
1766015830.8682399,109
1766015830.869219,106
1766015830.870229,106
1766015830.871225,106
1766015830.8722298,104
1766015830.873239,103
1766015830.874294,102
1766015830.875267,105
1766015830.876252,102
1766015830.877239,102
1766015830.878256,102
1766015830.879256,106
1766015830.880267,104
1766015830.881257,104
1766015830.882266,112
1766015830.883264,116
1766015830.884248,121
1766015830.88525,126
1766015830.886265,130
1766015830.887242,128
1766015830.888336,133
1766015830.889308,135
1766015830.890296,135
1766015830.891274,132
1766015830.892295,129
1766015830.8932989,130
1766015830.894311,129
1766015830.895647,126
1766015830.896309,129
1766015830.897354,128
1766015830.8983839,126
1766015830.899318,125
1766015830.9003258,124
1766015830.901335,120
1766015830.902346,122
1766015830.9033222,121
1766015830.9043689,120
1766015830.905341,117
1766015830.906348,118
1766015830.9073322,116
1766015830.908323,113
1766015830.909345,116
1766015830.910342,112
1766015830.91134,113
1766015830.9123762,110
1766015830.9133928,108
1766015830.9143958,107
1766015830.915426,106
1766015830.916405,106
1766015830.9173608,105
1766015830.918371,103
1766015830.91936,101
1766015830.920429,100
1766015830.921358,100
1766015830.922305,96
1766015830.9233122,98
1766015830.924333,97
1766015830.925335,95
1766015830.926306,92
1766015830.927291,92
1766015830.9283159,93
1766015830.929321,93
1766015830.930335,89
1766015830.931309,89
1766015830.932301,87
1766015830.933322,86
1766015830.934317,84
1766015830.935353,85
1766015830.93633,84
1766015830.937303,80
1766015830.938318,83
1766015830.9393122,82
1766015830.940314,79
1766015830.9413319,81
1766015830.9423401,78
1766015830.9433532,78
1766015830.9443588,77
1766015830.945354,76
1766015830.94635,79
1766015830.947356,85
1766015830.94834,91
1766015830.949354,95
1766015830.950349,98
1766015830.951457,101
1766015830.95237,99
1766015830.9534678,100
1766015830.9544792,101
1766015830.9554381,99
1766015830.956512,101
1766015830.957485,101
1766015830.958494,101
1766015830.959533,101
1766015830.9604568,98
1766015830.961515,103
1766015830.962506,105
1766015830.963489,103
1766015830.964531,102
1766015830.9655292,106
1766015830.966506,107
1766015830.967495,111
1766015830.968509,112
1766015830.9695082,108
1766015830.9706361,112
1766015830.9715369,112
1766015830.972574,111
1766015830.973537,112
1766015830.974537,110
1766015830.975532,109
1766015830.976523,106
1766015830.977542,107
1766015830.978532,104
1766015830.979543,103
1766015830.9805398,101
1766015830.981549,100
1766015830.982555,101
1766015830.9834838,99
1766015830.984513,98
1766015830.98547,96
1766015830.98659,100
1766015830.987464,97
1766015830.9886038,100
1766015830.989554,100
1766015830.990449,98
1766015830.9914691,96
1766015830.9924889,96
1766015830.9934669,96
1766015830.9944808,95
1766015830.995487,94
1766015830.9964879,92
1766015830.997504,90
1766015830.998498,92
1766015830.999507,88
1766015831.000512,87
1766015831.001502,86
1766015831.0025222,87
1766015831.003505,89
1766015831.0045109,87
1766015831.0055082,84
1766015831.0065138,85
1766015831.0075111,80
1766015831.008519,80
1766015831.009523,81
1766015831.010546,78
1766015831.011538,79
1766015831.0125282,78
1766015831.013528,78
1766015831.0145469,83
1766015831.0155678,82
1766015831.0165288,84
1766015831.017534,86
1766015831.018541,89
1766015831.0195358,85
1766015831.020551,85
1766015831.021569,85
1766015831.022563,87
1766015831.0235698,88
1766015831.024538,86
1766015831.0255492,86
1766015831.026562,84
1766015831.027651,86
1766015831.0285592,88
1766015831.02955,88
1766015831.030538,92
1766015831.031543,90
1766015831.0325499,91
1766015831.033565,92
1766015831.034566,90
1766015831.0355468,92
1766015831.0366669,92
1766015831.0377622,90
1766015831.038712,91
1766015831.039563,89
1766015831.040593,87
1766015831.0415978,89
1766015831.042615,88
1766015831.043761,88
1766015831.044728,86
1766015831.045604,90
1766015831.0465999,91
1766015831.0476081,87
1766015831.048613,89
1766015831.049628,91
1766015831.0506198,88
1766015831.052232,93
1766015831.052854,94
1766015831.053796,91
1766015831.054641,91
1766015831.0557241,88
1766015831.057027,90
1766015831.058422,90
1766015831.058617,89
1766015831.060143,89
1766015831.0606341,88
1766015831.06165,90
1766015831.062656,89
1766015831.063668,87
1766015831.064636,87
1766015831.065655,89
1766015831.066666,89
1766015831.0676632,89
1766015831.068667,89
1766015831.069686,87
1766015831.0708082,85
1766015831.071975,83
1766015831.072696,83
1766015831.0736902,86
1766015831.0746849,82
1766015831.075684,84
1766015831.076689,83
1766015831.0776682,80
1766015831.0786939,79
1766015831.079705,79
1766015831.080708,76
1766015831.081749,78
1766015831.082727,76
1766015831.0836868,74
1766015831.084706,74
1766015831.085734,73
1766015831.0867682,72
1766015831.087743,71
1766015831.0887418,73
1766015831.089709,71
1766015831.0907142,70
1766015831.091722,68
1766015831.092735,69
1766015831.0937312,68
1766015831.094728,69
1766015831.095808,71
1766015831.0967839,70
1766015831.097734,66
1766015831.09873,65
1766015831.099798,64
1766015831.10079,63
1766015831.1017668,62
1766015831.102748,68
1766015831.103785,65
1766015831.1048021,66
1766015831.105786,64
1766015831.106814,64
1766015831.107798,63
1766015831.108804,62
1766015831.109805,62
1766015831.110806,62
1766015831.111794,63
1766015831.1128051,64
1766015831.1138299,63
1766015831.1148238,63
1766015831.1158242,64
1766015831.116837,63
1766015831.1178188,63
1766015831.118858,64
1766015831.11981,66
1766015831.120838,62
1766015831.1218328,63
1766015831.1228642,64
1766015831.123841,62
1766015831.124793,62
1766015831.1258318,61
1766015831.126865,63
1766015831.12786,64
1766015831.128871,61
1766015831.129854,63
1766015831.130812,63
1766015831.1318321,60
1766015831.132833,61
1766015831.1338382,61
1766015831.1348538,62
1766015831.1358469,60
1766015831.136852,61
1766015831.137902,59
1766015831.138876,62
1766015831.1398962,60
1766015831.140876,58
1766015831.1419,61
1766015831.1428459,60
1766015831.143863,59
1766015831.144869,59
1766015831.14587,60
1766015831.146862,61
1766015831.1479092,58
1766015831.14893,58
1766015831.1499221,58
1766015831.150926,60
1766015831.1519182,58
1766015831.1529212,59
1766015831.153941,59
1766015831.154944,58
1766015831.155951,56
1766015831.156938,59
1766015831.157932,55
1766015831.158956,56
1766015831.159947,56
1766015831.160955,57
1766015831.161951,60
1766015831.162957,60
1766015831.163954,69
1766015831.164959,76
1766015831.165954,78
1766015831.166956,81
1766015831.1679811,78
1766015831.168992,81
1766015831.169972,83
1766015831.170969,81
1766015831.171977,86
1766015831.1729732,87
1766015831.174004,86
1766015831.174976,88
