timestamp,emg_value
1766015820.317151,112
1766015820.31717,115
1766015820.317188,112
1766015820.317204,111
1766015820.3172212,115
1766015820.317237,112
1766015820.317253,111
1766015820.317269,111
1766015820.317284,111
1766015820.317301,111
1766015820.317317,109
1766015820.317332,107
1766015820.317348,107
1766015820.317364,104
1766015820.3173802,103
1766015820.317396,102
1766015820.3174112,104
1766015820.3174279,102
1766015820.317441,99
1766015820.317457,100
1766015820.317469,99
1766015820.317482,97
1766015820.317495,98
1766015820.317508,97
1766015820.31752,95
1766015820.317534,97
1766015820.317546,93
1766015820.317564,89
1766015820.31758,88
1766015820.3175921,91
1766015820.317605,89
1766015820.317618,91
1766015820.31763,87
1766015820.317643,87
1766015820.317656,83
1766015820.3176692,85
1766015820.3176808,86
1766015820.317694,83
1766015820.3177059,84
1766015820.317719,78
1766015820.317732,79
1766015820.317745,78
1766015820.317757,80
1766015820.31777,81
1766015820.317783,79
1766015820.317796,81
1766015820.3178082,77
1766015820.317821,75
1766015820.317834,76
1766015820.317847,74
1766015820.3178592,76
1766015820.317872,76
1766015820.317885,74
1766015820.317898,80
1766015820.3179111,77
1766015820.317923,86
1766015820.3179362,97
1766015820.317951,106
1766015820.3179672,109
1766015820.317986,107
1766015820.318004,104
1766015820.31802,110
1766015820.318036,113
1766015820.318051,113
1766015820.3180668,116
1766015820.3180852,114
1766015820.3181,116
1766015820.3181162,118
1766015820.318131,116
1766015820.3181472,116
1766015820.318163,118
1766015820.318178,113
1766015820.318194,116
1766015820.3182101,113
1766015820.3182259,114
1766015820.3182411,114
1766015820.3182569,113
1766015820.318293,113
1766015820.318309,112
1766015820.318325,110
1766015820.31834,113
1766015820.318356,110
1766015820.318371,111
1766015820.318387,109
1766015820.318402,107
1766015820.318421,107
1766015820.318439,110
1766015820.318455,110
1766015820.318471,105
1766015820.318486,108
1766015820.318502,109
1766015820.318518,108
1766015820.3185332,105
1766015820.3185549,106
1766015820.318571,106
1766015820.3185868,104
1766015820.318602,104
1766015820.318618,106
1766015820.3186328,105
1766015820.318649,103
1766015820.3186638,102
1766015820.318677,98
1766015820.3186932,102
1766015820.318706,98
1766015820.318718,99
1766015820.318731,95
1766015820.3187442,95
1766015820.318756,94
1766015820.318769,93
1766015820.318789,96
1766015820.3188019,92
1766015820.318814,95
1766015820.318826,94
1766015820.318839,94
1766015820.3188548,91
1766015820.318871,93
1766015820.3188832,92
1766015820.318895,92
1766015820.318908,90
1766015820.3189209,92
1766015820.318933,86
1766015820.3189461,89
1766015820.318959,87
1766015820.318971,84
1766015820.318984,89
1766015820.318996,85
1766015820.319009,84
1766015820.319021,84
1766015820.3190331,85
1766015820.319047,85
1766015820.31906,85
1766015820.319073,84
1766015820.3190851,81
1766015820.319098,81
1766015820.3191109,83
1766015820.319123,80
1766015820.319136,80
1766015820.319148,79
1766015820.3191612,80
1766015820.3191738,80
1766015820.319186,78
1766015820.319199,78
1766015820.319211,75
1766015820.319224,80
1766015820.3192372,76
1766015820.319249,78
1766015820.319262,78
1766015820.319278,76
1766015820.319293,76
1766015820.319306,79
1766015820.319319,77
1766015820.3193312,80
1766015820.319344,83
1766015820.319357,81
1766015820.319369,82
1766015820.319382,82
1766015820.319394,79
1766015820.319407,80
1766015820.319419,84
1766015820.319432,82
1766015820.319445,86
1766015820.319457,84
1766015820.3194702,85
1766015820.319482,83
1766015820.3194938,81
1766015820.319507,81
1766015820.319519,83
1766015820.319532,79
1766015820.319544,81
1766015820.3195572,81
1766015820.3195689,81
1766015820.319582,81
1766015820.319595,85
1766015820.319608,86
1766015820.3196201,88
1766015820.319633,88
1766015820.319646,89
1766015820.319658,86
1766015820.3196712,86
1766015820.319683,88
1766015820.319699,88
1766015820.319724,89
1766015820.3197372,90
1766015820.319749,88
1766015820.319762,87
1766015820.3197749,88
1766015820.319787,83
1766015820.3198001,88
1766015820.319813,87
1766015820.319825,83
1766015820.319838,83
1766015820.31985,84
1766015820.3198621,85
1766015820.319875,83
1766015820.3198872,83
1766015820.3198998,81
1766015820.319912,84
1766015820.319925,84
1766015820.319937,77
1766015820.31995,83
1766015820.319962,84
1766015820.319975,84
1766015820.319988,86
1766015820.32,83
1766015820.320013,88
1766015820.3200262,84
1766015820.3200378,86
1766015820.320051,87
1766015820.3200629,86
1766015820.320076,85
1766015820.320089,84
1766015820.320101,85
1766015820.320114,80
1766015820.32013,83
1766015820.320145,80
1766015820.3201568,80
1766015820.32017,77
1766015820.320182,78
1766015820.320194,74
1766015820.320207,79
1766015820.3202188,76
1766015820.320232,73
1766015820.320245,75
1766015820.320257,74
1766015820.32027,77
1766015820.320283,73
1766015820.3202949,74
1766015820.320308,73
1766015820.320321,73
1766015820.320333,73
1766015820.3203452,74
1766015820.3203578,73
1766015820.320371,72
1766015820.320389,72
1766015820.320402,73
1766015820.320415,71
1766015820.320427,70
1766015820.32044,70
1766015820.3204522,71
1766015820.3204648,71
1766015820.320478,69
1766015820.32049,68
1766015820.320503,68
1766015820.3205152,72
1766015820.3205278,67
1766015820.32054,67
1766015820.320557,66
1766015820.320572,72
1766015820.3205838,72
1766015820.320597,67
1766015820.320609,68
1766015820.320622,69
1766015820.3206348,63
1766015820.320647,66
1766015820.3206599,66
1766015820.320672,64
1766015820.3206851,64
1766015820.320697,70
1766015820.32071,67
1766015820.3207219,65
1766015820.320735,63
1766015820.320748,66
1766015820.32076,64
1766015820.3207731,60
1766015820.320786,65
1766015820.320798,65
1766015820.320811,67
1766015820.320823,68
1766015820.320835,68
1766015820.320848,68
1766015820.3208609,65
1766015820.320873,69
1766015820.3208861,69
1766015820.320898,65
1766015820.3209112,65
1766015820.3209229,68
1766015820.320936,65
1766015820.320948,64
1766015820.320961,67
1766015820.320977,66
1766015820.320992,69
1766015820.321004,64
1766015820.321017,65
1766015820.3210292,63
1766015820.3210418,66
1766015820.321055,69
1766015820.321067,68
1766015820.32108,68
1766015820.321093,67
1766015820.321105,69
1766015820.3211179,64
1766015820.32113,65
1766015820.3211432,68
1766015820.321155,69
1766015820.321168,68
1766015820.3211808,66
1766015820.321194,72
1766015820.321207,68
1766015820.321219,69
1766015820.3212318,71
1766015820.321245,67
1766015820.3212569,68
1766015820.32127,67
1766015820.3212821,66
1766015820.321295,65
1766015820.321307,64
1766015820.3213198,70
1766015820.321332,70
1766015820.321345,66
1766015820.321358,63
1766015820.3213708,67
1766015820.321384,65
1766015820.3214011,63
1766015820.321415,63
1766015820.321428,63
1766015820.32144,63
1766015820.321453,64
1766015820.3214662,59
1766015820.321478,62
1766015820.321491,61
1766015820.321504,61
1766015820.321516,60
1766015820.3215292,61
1766015820.321541,59
1766015820.321554,61
1766015820.321567,60
1766015820.321579,64
1766015820.321592,61
1766015820.3216052,60
1766015820.3216178,60
1766015820.32163,58
1766015820.321643,59
1766015820.321656,63
1766015820.3216681,58
1766015820.3216808,62
1766015820.321694,59
1766015820.321706,63
1766015820.321719,62
1766015820.321732,60
1766015820.321744,60
1766015820.3217568,59
1766015820.32177,61
1766015820.321782,56
1766015820.321795,61
1766015820.3218079,61
1766015820.321824,63
1766015820.3218381,71
1766015820.3218508,77
1766015820.321864,79
1766015820.321876,82
1766015820.321889,83
1766015820.321902,83
1766015820.3219142,82
1766015820.3219268,83
1766015820.32194,86
1766015820.321953,89
1766015820.3219662,88
1766015820.321978,88
1766015820.321991,88
1766015820.322003,89
1766015820.322016,93
1766015820.322028,89
1766015820.322041,94
1766015820.3220532,89
1766015820.3220658,90
1766015820.322079,91
1766015820.322091,90
1766015820.322104,89
1766015820.3221161,86
1766015820.322129,86
1766015820.322142,87
1766015820.322154,87
1766015820.3221672,84
1766015820.322179,83
1766015820.322192,87
1766015820.3222039,85
1766015820.322217,85
1766015820.322229,87
1766015820.3222458,83
1766015820.322261,80
1766015820.322273,78
1766015820.3222861,80
1766015820.322298,79
1766015820.322311,78
1766015820.3223228,78
1766015820.322336,78
1766015820.322349,76
1766015820.322361,80
1766015820.3223739,76
1766015820.322386,78
1766015820.322399,76
1766015820.322412,76
1766015820.3224242,74
1766015820.322437,73
1766015820.32245,75
1766015820.3224618,76
1766015820.322475,75
1766015820.322487,76
1766015820.3225,75
1766015820.3225129,74
1766015820.322525,73
1766015820.322539,77
1766015820.322552,74
1766015820.322565,75
1766015820.322577,74
1766015820.3225899,76
1766015820.322603,73
1766015820.3226151,72
1766015820.322628,73
1766015820.32264,74
1766015820.3226528,74
1766015820.322669,74
1766015820.3226838,75
1766015820.322697,71
1766015820.322711,70
1766015820.322724,71
1766015820.322745,73
1766015820.322758,73
1766015820.3227708,75
1766015820.322783,73
1766015820.322796,77
1766015820.322809,74
1766015820.3228211,71
1766015820.322834,75
1766015820.322846,73
1766015820.322858,75
1766015820.322871,72
1766015820.322884,71
1766015820.3228958,69
1766015820.3229089,71
1766015820.322921,70
1766015820.322934,75
1766015820.322946,73
1766015820.3229592,71
1766015820.3229709,73
1766015820.322984,69
1766015820.322996,70
1766015820.323009,68
1766015820.3230221,70
1766015820.3230348,65
1766015820.323047,68
1766015820.32306,69
1766015820.323072,68
1766015820.323085,72
1766015820.323103,69
1766015820.323116,74
1766015820.3231292,71
1766015820.323141,69
1766015820.323154,68
1766015820.323166,68
1766015820.323179,69
1766015820.323191,67
1766015820.323203,66
1766015820.323216,65
1766015820.3232288,67
1766015820.323242,68
1766015820.323255,70
1766015820.3232682,69
1766015820.3232808,71
1766015820.323293,77
1766015820.323306,84
1766015820.323319,87
1766015820.323331,89
1766015820.3233438,89
1766015820.323356,88
1766015820.323369,90
1766015820.323381,94
1766015820.323394,95
1766015820.3234072,99
1766015820.3234189,97
1766015820.323432,98
1766015820.3234482,101
1766015820.323464,101
1766015820.323479,101
1766015820.323492,99
1766015820.323505,99
1766015820.3235211,98
1766015820.32354,101
1766015820.323555,99
1766015820.3235729,101
1766015820.323592,101
1766015820.323607,99
1766015820.323626,100
1766015820.323641,96
1766015820.3236558,99
1766015820.323671,98
1766015820.323686,98
1766015820.323702,96
1766015820.323717,94
1766015820.323732,95
1766015820.3237472,97
1766015820.323763,96
1766015820.323779,95
1766015820.323794,95
1766015820.323809,95
1766015820.3238258,94
1766015820.323841,96
1766015820.3238552,95
1766015820.32387,94
1766015820.323885,93
1766015820.323901,91
1766015820.323916,93
1766015820.323931,90
1766015820.323946,86
1766015820.323961,88
1766015820.323976,89
1766015820.323991,85
1766015820.3240058,85
1766015820.324028,86
1766015820.324044,85
1766015820.3240588,85
1766015820.324074,82
1766015820.324089,84
1766015820.324105,83
1766015820.32412,85
1766015820.3241348,83
1766015820.32415,80
1766015820.324165,83
1766015820.32418,83
1766015820.324196,81
1766015820.324211,83
1766015820.324227,80
1766015820.3242419,81
1766015820.3242571,75
1766015820.3242722,76
1766015820.324287,77
1766015820.3243022,76
1766015820.324317,75
1766015820.324333,76
1766015820.324348,80
1766015820.324363,79
1766015820.324379,82
1766015820.324394,83
1766015820.324409,84
1766015820.324425,83
1766015820.32444,88
1766015820.324455,85
1766015820.32447,82
1766015820.324485,82
1766015820.3245,85
1766015820.324515,83
1766015820.324534,81
1766015820.3245492,81
1766015820.324564,82
1766015820.324579,81
1766015820.324594,82
1766015820.324609,81
1766015820.3246238,81
1766015820.324639,81
1766015820.324654,79
1766015820.3246698,80
1766015820.324685,80
1766015820.3246999,83
1766015820.324716,84
1766015820.3247309,81
1766015820.324746,85
1766015820.324762,81
1766015820.324777,84
1766015820.3247921,81
1766015820.324807,82
1766015820.324822,83
1766015820.3248372,82
1766015820.324852,85
1766015820.324867,84
1766015820.324882,85
1766015820.324897,86
1766015820.324912,86
1766015820.324927,85
1766015820.324943,91
1766015820.3249578,93
1766015820.324973,94
1766015820.324988,89
1766015820.325003,90
1766015820.325025,89
1766015820.3250408,88
1766015820.325057,86
1766015820.325071,87
1766015820.325087,85
1766015820.325102,86
1766015820.3251169,90
1766015820.3251321,90
1766015820.325147,87
1766015820.325162,87
1766015820.3251781,85
1766015820.325194,90
1766015820.32521,88
1766015820.3252249,92
1766015820.325242,87
1766015820.325257,93
1766015820.3252742,92
1766015820.325289,92
1766015820.325304,91
1766015820.32532,92
1766015820.325335,93
1766015820.3253498,88
1766015820.325365,89
1766015820.32538,93
1766015820.325396,92
1766015820.325411,92
1766015820.3254259,87
1766015820.3254411,89
1766015820.325456,92
1766015820.325472,89
1766015820.3254871,93
1766015820.325502,90
1766015820.325517,87
1766015820.325536,92
1766015820.3255522,86
1766015820.325567,87
1766015820.3255832,85
1766015820.325598,84
1766015820.325613,83
1766015820.325629,86
1766015820.325644,85
1766015820.3256588,83
1766015820.325674,82
1766015820.32569,82
1766015820.325705,80
1766015820.32572,81
1766015820.3257349,80
1766015820.32575,82
1766015820.3257658,81
1766015820.325781,80
1766015820.3257961,82
1766015820.325811,80
1766015820.3258271,79
1766015820.325842,79
1766015820.325857,78
1766015820.325873,78
1766015820.325888,79
1766015820.3259032,75
1766015820.325918,74
1766015820.3259342,73
1766015820.325949,72
1766015820.325964,74
1766015820.325979,72
1766015820.325994,74
1766015820.326009,77
1766015820.3260238,83
1766015820.326045,87
1766015820.326061,87
1766015820.3260758,85
1766015820.326091,89
1766015820.326106,90
1766015820.3261209,92
1766015820.326137,95
1766015820.3261518,97
1766015820.326167,96
1766015820.326182,95
1766015820.326198,90
1766015820.3262131,91
1766015820.326228,90
1766015820.3262432,89
1766015820.326259,93
1766015820.3262742,88
1766015820.326289,89
1766015820.326305,86
1766015820.3263202,82
1766015820.326335,85
1766015820.3263512,85
1766015820.326366,85
1766015820.3263822,87
1766015820.326397,88
1766015820.326412,85
1766015820.326427,84
1766015820.326443,83
1766015820.3264582,81
1766015820.326473,83
1766015820.326489,83
1766015820.326504,79
1766015820.326519,80
1766015820.326538,81
1766015820.326554,82
1766015820.32657,81
1766015820.326585,82
1766015820.326601,77
1766015820.326616,78
1766015820.326632,78
1766015820.326647,76
1766015820.3266618,78
1766015820.326677,77
1766015820.326693,74
1766015820.326708,76
1766015820.326723,76
1766015820.3267388,72
1766015820.326754,76
1766015820.3267689,71
1766015820.326785,73
1766015820.3267999,74
1766015820.326815,70
1766015820.326831,69
1766015820.326846,73
1766015820.3268611,72
1766015820.326876,72
1766015820.326891,69
1766015820.3269062,69
1766015820.326922,70
1766015820.3269372,66
1766015820.326952,65
1766015820.326967,69
1766015820.326983,67
1766015820.327081,69
1766015820.3270981,69
1766015820.327111,69
1766015820.327127,68
1766015820.327142,66
1766015820.327153,73
1766015820.327165,71
1766015820.327179,70
1766015820.32719,71
1766015820.3272011,71
1766015820.327213,70
1766015820.327224,71
1766015820.327235,72
1766015820.3272479,71
1766015820.3272588,70
1766015820.327271,70
1766015820.327282,70
1766015820.3272939,73
1766015820.327305,70
1766015820.327317,70
1766015820.327329,67
1766015820.327341,71
1766015820.327352,67
1766015820.3273642,67
1766015820.3273752,67
1766015820.3273869,66
1766015820.327399,65
1766015820.32741,66
1766015820.327421,68
1766015820.327432,67
1766015820.327444,70
1766015820.3274581,68
1766015820.327469,67
1766015820.327481,69
1766015820.3274949,66
1766015820.327508,68
1766015820.327522,66
1766015820.327533,70
1766015820.3275452,67
1766015820.3275561,67
1766015820.3275678,68
1766015820.3275788,65
1766015820.327591,68
1766015820.327602,64
1766015820.3276129,68
1766015820.3276238,65
1766015820.327636,63
1766015820.327647,63
1766015820.327658,62
1766015820.32767,65
1766015820.327683,65
1766015820.3276951,63
1766015820.327706,63
1766015820.3277178,60
1766015820.327732,61
1766015820.327745,62
1766015820.327756,60
1766015820.3277671,63
1766015820.327779,59
1766015820.32779,57
1766015820.32781,59
1766015820.327821,59
1766015820.327832,59
1766015820.3278441,57
1766015820.327855,59
1766015820.327866,58
1766015820.327878,57
1766015820.32789,57
1766015820.3279061,56
1766015820.327924,57
1766015820.327935,59
1766015820.327946,58
1766015820.327959,57
1766015820.32797,57
1766015820.3279822,57
1766015820.3279932,57
1766015820.3280041,57
1766015820.3280158,55
1766015820.3280268,52
1766015820.328041,52
1766015820.328052,53
1766015820.328063,55
1766015820.328075,53
1766015820.328086,55
1766015820.328099,57
1766015820.32811,57
1766015820.3281221,56
1766015820.328133,53
1766015820.3281438,53
1766015820.3281548,53
1766015820.328167,53
1766015820.328178,54
1766015820.328189,51
1766015820.328201,54
1766015820.328212,55
1766015820.328223,52
1766015820.328234,50
1766015820.328245,53
1766015820.328257,54
1766015820.328269,50
1766015820.3282838,54
1766015820.328303,50
1766015820.328316,50
1766015820.328327,50
1766015820.3283389,49
1766015820.32835,51
1766015820.328362,51
1766015820.328373,51
1766015820.328385,50
1766015820.328396,53
1766015820.328407,51
1766015820.328419,49
1766015820.3284302,49
1766015820.328442,48
1766015820.328453,50
1766015820.3284638,47
1766015820.328477,49
1766015820.328489,48
1766015820.3285,50
1766015820.328511,49
1766015820.328522,49
1766015820.3285341,49
1766015820.328545,48
1766015820.328556,51
1766015820.328568,47
1766015820.3285792,52
1766015820.3285902,49
1766015820.328602,51
1766015820.328613,50
1766015820.328624,49
1766015820.328636,48
1766015820.328647,49
1766015820.3286579,47
1766015820.328671,47
1766015820.328686,47
1766015820.3286982,46
1766015820.3287091,44
1766015820.3287208,46
1766015820.328733,46
1766015820.328746,46
1766015820.328758,45
1766015820.328769,45
1766015820.3287811,50
1766015820.328792,49
1766015820.328803,52
1766015820.3288162,51
1766015820.328827,52
1766015820.3288388,48
1766015820.328852,50
1766015820.328863,49
1766015820.328875,51
1766015820.328886,50
1766015820.328898,53
1766015820.3289092,49
1766015820.328923,49
1766015820.328934,49
1766015820.328945,47
1766015820.3289568,49
1766015820.328968,48
1766015820.328979,49
1766015820.328994,47
1766015820.3290062,49
1766015820.3290172,49
1766015820.3290281,49
1766015820.329041,47
1766015820.329053,49
1766015820.32907,44
1766015820.329083,48
1766015820.329094,48
1766015820.3291059,50
1766015820.329118,49
1766015820.329129,50
1766015820.32914,48
1766015820.329151,48
1766015820.329163,49
1766015820.329174,49
1766015820.329192,50
1766015820.329204,49
1766015820.329216,47
1766015820.329227,44
1766015820.3292422,45
1766015820.3292532,47
1766015820.3292642,48
1766015820.329277,47
1766015820.329289,46
1766015820.3293,48
1766015820.329312,48
1766015820.329323,48
1766015820.329334,49
1766015820.329346,47
1766015820.3293571,46
1766015820.329368,47
1766015820.32938,49
1766015820.329391,47
1766015820.329403,48
1766015820.329414,45
1766015820.3294258,47
1766015820.329437,48
1766015820.32945,45
1766015820.329464,47
1766015820.329476,51
1766015820.329487,47
1766015820.3294988,46
1766015820.32951,47
1766015820.329521,51
1766015820.3295329,47
1766015820.3295438,47
1766015820.329555,48
1766015820.329566,50
1766015820.329578,49
1766015820.329589,47
1766015820.3296,48
1766015820.329611,48
1766015820.329623,45
1766015820.329634,47
1766015820.3296452,47
1766015820.3296561,44
1766015820.329667,48
1766015820.329679,46
1766015820.3296902,49
1766015820.329702,45
1766015820.3297129,48
1766015820.329725,51
1766015820.329736,48
1766015820.329748,52
1766015820.329761,50
1766015820.329773,52
1766015820.3297842,49
1766015820.3297951,52
1766015820.329807,50
1766015820.329818,47
1766015820.3298318,49
1766015820.329845,49
1766015820.329857,48
1766015820.329869,51
1766015820.32988,49
1766015820.329891,50
1766015820.3299031,49
1766015820.329914,49
1766015820.329925,50
1766015820.3299358,49
1766015820.329948,51
1766015820.329959,48
1766015820.3299708,50
1766015820.329982,47
1766015820.329993,50
1766015820.330004,49
1766015820.330016,48
1766015820.330027,47
1766015820.330038,47
1766015820.3300521,50
1766015820.330063,46
1766015820.3300748,45
1766015820.3300889,51
1766015820.3301,46
1766015820.330112,49
1766015820.330123,47
1766015820.330134,50
1766015820.330146,51
1766015820.330157,49
1766015820.3301692,49
1766015820.3301802,51
1766015820.3301911,47
1766015820.330204,50
1766015820.330219,49
1766015820.330231,49
1766015820.330245,50
1766015820.330257,53
1766015820.33027,50
1766015820.330283,53
1766015820.330295,50
1766015820.330307,50
1766015820.3303208,50
1766015820.330333,49
1766015820.330344,48
1766015820.330356,47
1766015820.330367,48
1766015820.330378,51
1766015820.330389,50
1766015820.330401,50
1766015820.3304121,49
1766015820.330423,52
1766015820.330434,49
1766015820.330445,46
1766015820.330456,50
1766015820.3304682,50
1766015820.3304791,47
1766015820.33049,48
1766015820.3305018,50
1766015820.330513,49
1766015820.330524,47
1766015820.330536,50
1766015820.3305469,53
1766015820.330561,51
1766015820.3305721,53
1766015820.330584,53
1766015820.3305972,58
1766015820.3306088,57
1766015820.3306198,54
1766015820.330631,56
1766015820.330643,57
1766015820.330654,55
1766015820.330666,53
1766015820.330677,58
1766015820.330688,55
1766015820.3307,56
1766015820.3307111,55
1766015820.330723,55
1766015820.3307362,54
1766015820.3307478,54
1766015820.3307588,54
1766015820.33077,51
1766015820.330782,55
1766015820.330793,52
1766015820.330805,54
1766015820.330816,51
1766015820.330827,51
1766015820.330838,55
1766015820.3308501,52
1766015820.330861,52
1766015820.330873,52
1766015820.330884,52
1766015820.330896,51
1766015820.3309069,52
1766015820.3309178,50
1766015820.33093,49
1766015820.330941,52
1766015820.330952,52
1766015820.330963,52
1766015820.33108,53
1766015820.3311172,49
1766015820.33113,50
1766015820.3311412,51
1766015820.331151,48
1766015820.3311622,48
1766015820.3311832,51
1766015820.331193,48
1766015820.3312042,53
1766015820.3312142,46
1766015820.331224,51
1766015820.331234,49
1766015820.331244,47
1766015820.331254,49
1766015820.331264,47
1766015820.331275,49
1766015820.331285,50
1766015820.331295,49
1766015820.331305,47
1766015820.331315,50
1766015820.3313248,49
1766015820.3313348,51
1766015820.331382,50
1766015820.3313951,50
1766015820.331406,48
1766015820.3314161,49
1766015820.331427,51
1766015820.331437,49
1766015820.3314471,49
1766015820.3314571,45
1766015820.331467,48
1766015820.331477,49
1766015820.331491,47
1766015820.331501,50
1766015820.331512,48
1766015820.331522,49
1766015820.331532,47
1766015820.331542,45
1766015820.331552,46
1766015820.331562,48
1766015820.331572,46
1766015820.331582,49
1766015820.3315918,47
1766015820.3316019,53
1766015820.3316119,52
1766015820.331622,50
1766015820.3316321,49
1766015820.3316422,48
1766015820.3316522,48
1766015820.3316622,48
1766015820.331672,49
1766015820.331682,49
1766015820.331692,51
1766015820.331703,46
1766015820.331713,53
1766015820.331723,51
1766015820.331733,53
1766015820.331743,49
1766015820.331755,53
1766015820.331787,54
1766015820.3318012,51
1766015820.3318121,54
1766015820.3318222,52
1766015820.3318322,54
1766015820.3318431,54
1766015820.331868,54
1766015820.331879,51
1766015820.331889,51
1766015820.331899,53
1766015820.3319092,47
1766015820.33192,53
1766015820.331934,49
1766015820.331944,53
1766015820.331954,54
1766015820.331964,52
1766015820.331975,54
1766015820.331985,53
1766015820.3319948,53
1766015820.332005,54
1766015820.332015,52
1766015820.332026,55
1766015820.332036,51
1766015820.332046,54
1766015820.332056,51
1766015820.332066,53
1766015820.332076,53
1766015820.332087,56
1766015820.332097,57
1766015820.332107,55
1766015820.332117,56
1766015820.332127,55
1766015820.3321369,52
1766015820.332148,58
1766015820.3321579,54
1766015820.3321679,56
1766015820.3321779,54
1766015820.33219,53
1766015820.332204,53
1766015820.332214,55
1766015820.332224,53
1766015820.332234,52
1766015820.332244,54
1766015820.332254,54
1766015820.332265,53
1766015820.332275,52
1766015820.332285,52
1766015820.332296,53
1766015820.332306,54
1766015820.332316,53
1766015820.332326,53
1766015820.3323362,53
1766015820.332362,53
1766015820.332373,54
1766015820.332383,53
1766015820.332394,53
1766015820.332404,53
1766015820.332414,52
1766015820.332426,51
1766015820.332437,53
1766015820.332447,54
1766015820.332457,55
1766015820.332468,54
1766015820.332479,57
1766015820.332489,56
1766015820.332499,57
1766015820.33251,56
1766015820.332521,54
1766015820.332531,52
1766015820.332541,54
1766015820.332553,51
1766015820.3325639,53
1766015820.332574,54
1766015820.332588,54
1766015820.332598,52
1766015820.332609,52
1766015820.332619,52
1766015820.332629,53
1766015820.33264,51
1766015820.33265,54
1766015820.33266,55
1766015820.332671,55
1766015820.332681,53
1766015820.332692,55
1766015820.332702,56
1766015820.332712,57
1766015820.332722,58
1766015820.332733,57
1766015820.332743,58
1766015820.332753,60
1766015820.3327649,56
1766015820.3327749,56
1766015820.3327858,59
1766015820.3327968,58
1766015820.3328068,56
1766015820.332818,56
1766015820.3328278,56
1766015820.3328378,54
1766015820.332848,58
1766015820.3328588,56
1766015820.332869,57
1766015820.3328798,60
1766015820.33289,62
1766015820.332903,63
1766015820.332913,68
1766015820.33299,66
1766015820.3330061,67
1766015820.33302,66
1766015820.3330328,64
1766015820.333046,65
1766015820.333059,67
1766015820.333072,63
1766015820.3330848,62
1766015820.333098,66
1766015820.333111,65
1766015820.333123,63
1766015820.3331368,62
1766015820.33315,64
1766015820.333163,67
1766015820.3331761,66
1766015820.333189,70
1766015820.333202,70
1766015820.333215,71
1766015820.333228,70
1766015820.333241,73
1766015820.3333309,66
1766015820.333407,68
1766015820.333421,69
1766015820.333434,69
1766015820.333447,70
1766015820.333459,69
1766015820.333472,70
1766015820.333486,73
1766015820.333498,71
1766015820.3335109,72
1766015820.333536,72
1766015820.333554,70
1766015820.333567,69
1766015820.33358,68
1766015820.3335922,68
1766015820.333605,70
1766015820.3336189,71
1766015820.333632,67
1766015820.3336809,70
1766015820.333695,65
1766015820.333708,69
1766015820.33372,71
1766015820.333733,71
1766015820.333745,69
1766015820.333757,73
1766015820.33377,69
1766015820.3337831,72
1766015820.333795,72
1766015820.333807,73
1766015820.3338199,75
1766015820.333832,74
1766015820.333847,74
1766015820.333859,75
1766015820.333872,72
1766015820.333885,75
1766015820.3338969,76
1766015820.333909,73
1766015820.3339221,76
1766015820.3339698,78
1766015820.333983,74
1766015820.333996,75
1766015820.3340092,76
1766015820.334021,71
1766015820.334034,72
1766015820.3340511,72
1766015820.3340642,73
1766015820.334077,71
1766015820.334089,74
1766015820.334101,69
1766015820.334114,71
1766015820.3341272,70
1766015820.3341389,72
1766015820.334154,72
1766015820.334167,74
1766015820.33418,71
1766015820.334192,71
1766015820.334205,75
1766015820.334218,77
1766015820.33423,76
1766015820.334243,76
1766015820.3342552,75
1766015820.3342679,77
1766015820.33428,77
1766015820.334293,74
1766015820.334305,74
1766015820.3343182,74
1766015820.3343308,71
1766015820.334344,72
1766015820.334356,73
1766015820.334369,73
1766015820.334381,75
1766015820.3343942,73
1766015820.334406,75
1766015820.3344178,76
1766015820.334431,76
1766015820.334443,74
1766015820.33446,76
1766015820.334473,76
1766015820.334486,75
1766015820.3344982,73
1766015820.334511,76
1766015820.334523,71
1766015820.3345358,71
1766015820.334549,74
1766015820.334561,72
1766015820.334574,71
1766015820.3345861,75
1766015820.334599,74
1766015820.334611,74
1766015820.334624,74
1766015820.3346372,73
1766015820.334649,74
1766015820.334661,71
1766015820.334674,76
1766015820.334686,74
1766015820.334699,73
1766015820.334711,74
1766015820.3347242,73
1766015820.3347368,75
1766015820.334749,72
1766015820.334761,72
1766015820.334774,72
1766015820.3347871,70
1766015820.334799,72
1766015820.334811,73
1766015820.3348238,72
1766015820.334837,74
1766015820.334849,74
1766015820.334862,72
1766015820.334878,73
1766015820.334892,74
1766015820.3349051,71
1766015820.334917,73
1766015820.33493,71
1766015820.3349419,74
1766015820.334955,71
1766015820.334968,71
1766015820.33498,71
1766015820.334993,73
1766015820.335006,71
1766015820.335019,70
1766015820.335031,74
1766015820.335043,70
1766015820.3350558,72
1766015820.335068,72
1766015820.3350809,69
1766015820.335093,69
1766015820.335115,73
1766015820.335128,74
1766015820.3351412,73
1766015820.3351529,72
1766015820.335166,71
1766015820.335179,71
1766015820.335191,72
1766015820.3352041,70
1766015820.335216,69
1766015820.335229,72
1766015820.3352408,68
1766015820.335254,71
1766015820.335266,69
1766015820.335278,68
1766015820.335291,71
1766015820.335308,72
1766015820.3353212,69
1766015820.335333,69
1766015820.335346,68
1766015820.335358,68
1766015820.335371,69
1766015820.335383,69
1766015820.335396,66
1766015820.335409,67
1766015820.3354208,73
1766015820.335434,69
1766015820.3354461,70
1766015820.335459,72
1766015820.3354712,70
1766015820.3354828,68
1766015820.335496,70
1766015820.335509,70
1766015820.335521,69
1766015820.335534,68
1766015820.335546,67
1766015820.335559,66
1766015820.335571,70
1766015820.335584,69
1766015820.335596,64
1766015820.3356092,68
1766015820.335621,67
1766015820.335634,68
1766015820.335646,69
1766015820.335659,68
1766015820.335671,69
1766015820.335684,67
1766015820.335696,68
1766015820.3357089,66
1766015820.335726,69
1766015820.3357382,68
1766015820.3357508,67
1766015820.335763,65
1766015820.335776,65
1766015820.335788,64
1766015820.3358011,66
1766015820.335813,66
1766015820.335826,65
1766015820.3358378,65
1766015820.335851,64
1766015820.335863,64
1766015820.335876,65
1766015820.335888,63
1766015820.335901,64
1766015820.335913,65
1766015820.33593,62
1766015820.3359418,62
1766015820.335954,63
1766015820.335967,67
1766015820.335979,63
1766015820.335992,63
1766015820.336004,61
1766015820.336017,61
1766015820.3360288,63
1766015820.336041,62
1766015820.336054,62
1766015820.336066,61
1766015820.3360791,63
1766015820.3360908,61
1766015820.336104,63
1766015820.336116,61
1766015820.336132,63
1766015820.3361468,62
1766015820.33616,62
1766015820.336172,62
1766015820.336185,60
1766015820.3361979,62
1766015820.33621,63
1766015820.336222,60
1766015820.336235,61
1766015820.336247,60
1766015820.33626,61
1766015820.3362718,58
1766015820.3362849,58
1766015820.336297,59
1766015820.336309,59
1766015820.3363242,62
1766015820.336336,61
1766015820.336349,60
1766015820.336361,60
1766015820.336374,59
1766015820.336386,56
1766015820.336399,59
1766015820.3364108,57
1766015820.3364239,59
1766015820.336436,57
1766015820.336449,58
1766015820.336461,57
1766015820.3364742,56
1766015820.3364859,59
1766015820.336498,57
1766015820.336511,54
1766015820.336523,53
1766015820.3365362,54
1766015820.336551,59
1766015820.336565,59
1766015820.336577,59
1766015820.33659,55
1766015820.3366022,55
1766015820.3366148,54
1766015820.336627,57
1766015820.33664,56
1766015820.336652,53
1766015820.3366652,54
1766015820.336677,51
1766015820.33669,52
1766015820.3367019,52
1766015820.336715,52
1766015820.336728,54
1766015820.33674,54
1766015820.336753,53
1766015820.3367648,55
1766015820.336778,51
1766015820.336791,53
1766015820.336803,53
1766015820.336816,50
1766015820.336828,51
1766015820.33684,51
1766015820.336853,52
1766015820.336865,52
1766015820.336878,52
1766015820.336889,52
1766015820.336899,49
1766015820.33691,50
1766015820.33692,47
1766015820.336931,49
1766015820.3369422,50
1766015820.3369548,50
1766015820.336967,49
1766015820.336977,48
1766015820.336988,49
1766015820.336998,45
1766015820.337009,47
1766015820.33702,48
1766015820.33703,50
1766015820.337041,46
1766015820.337051,46
1766015820.337062,47
1766015820.3370721,44
1766015820.3370829,44
1766015820.3370938,48
1766015820.3371038,47
1766015820.3371148,44
1766015820.337125,45
1766015820.337136,44
1766015820.337146,44
1766015820.337157,42
1766015820.337167,44
1766015820.3371782,43
1766015820.337188,42
1766015820.3372018,43
1766015820.337213,45
1766015820.3372228,43
1766015820.337234,40
1766015820.337245,43
1766015820.337255,40
1766015820.337266,41
1766015820.337276,41
1766015820.337287,45
1766015820.337298,40
1766015820.337313,41
1766015820.3373241,38
1766015820.337335,42
1766015820.337346,39
1766015820.337356,41
1766015820.337367,38
1766015820.337377,40
1766015820.337388,38
1766015820.337398,38
1766015820.337409,39
1766015820.337419,39
1766015820.33743,39
1766015820.337441,37
1766015820.337452,36
1766015820.337462,38
1766015820.337473,37
1766015820.337483,36
1766015820.3374941,39
1766015820.337504,38
1766015820.337515,36
1766015820.337526,37
1766015820.337537,39
1766015820.337547,38
1766015820.337557,37
1766015820.337568,37
1766015820.337579,35
1766015820.337589,33
1766015820.3376,36
1766015820.33761,34
1766015820.337621,32
1766015820.337631,35
1766015820.337642,35
1766015820.337653,38
1766015820.337666,38
1766015820.3376782,34
1766015820.3376892,34
1766015820.3377001,34
1766015820.3377101,33
1766015820.337721,35
1766015820.3377311,36
1766015820.3377411,36
1766015820.337752,33
1766015820.337762,35
1766015820.337773,37
1766015820.337784,37
1766015820.337794,34
1766015820.337805,36
1766015820.337815,31
1766015820.337825,33
1766015820.337836,36
1766015820.337847,34
1766015820.337857,34
1766015820.337868,35
1766015820.337878,31
1766015820.337889,36
1766015820.337899,35
1766015820.33791,32
1766015820.33792,36
1766015820.337931,33
1766015820.337941,36
1766015820.337952,36
1766015820.337962,36
1766015820.3379729,35
1766015820.337983,35
1766015820.337994,32
1766015820.338005,32
1766015820.3380191,33
1766015820.33803,33
1766015820.33804,33
1766015820.338051,32
1766015820.338061,35
1766015820.338072,31
1766015820.338082,33
1766015820.338094,34
1766015820.3381052,34
1766015820.3381162,33
1766015820.3381262,34
1766015820.3381371,32
1766015820.338148,33
1766015820.3381581,32
1766015820.338169,32
1766015820.338179,34
1766015820.3381891,34
1766015820.3382,30
1766015820.338211,28
1766015820.338221,33
1766015820.338232,30
1766015820.338242,35
1766015820.338252,32
1766015820.338263,33
1766015820.338273,30
1766015820.338284,33
1766015820.338294,32
1766015820.338305,30
1766015820.338315,29
1766015820.338326,31
1766015820.338336,31
1766015820.338347,29
1766015820.338357,31
1766015820.338371,29
1766015820.338382,32
1766015820.338393,31
1766015820.338403,29
1766015820.3384142,29
1766015820.338424,28
1766015820.3384352,29
1766015820.338445,27
1766015820.3384562,30
1766015820.338466,28
1766015820.3384771,29
1766015820.3384871,31
1766015820.338498,30
1766015820.338509,27
1766015820.338519,27
1766015820.33853,27
1766015820.33854,29
1766015820.338551,30
1766015820.338561,29
1766015820.338571,27
1766015820.338582,31
1766015820.338592,30
1766015820.338603,28
1766015820.338613,28
1766015820.338624,28
1766015820.338634,31
1766015820.338645,28
1766015820.338655,25
1766015820.338666,27
1766015820.338677,27
1766015820.338687,29
1766015820.338698,29
1766015820.338708,29
1766015820.338722,28
1766015820.338733,28
1766015820.338743,27
1766015820.338754,28
1766015820.338764,27
1766015820.3387752,26
1766015820.3387861,29
1766015820.3387961,27
1766015820.338807,31
1766015820.3388171,29
1766015820.338827,26
1766015820.338838,27
1766015820.338849,28
1766015820.338859,30
1766015820.33887,29
1766015820.338881,30
1766015820.338891,27
1766015820.338902,28
1766015820.338912,28
1766015820.338923,26
1766015820.338933,25
1766015820.338944,25
1766015820.338954,27
1766015820.338965,26
1766015820.338976,30
1766015820.338986,28
1766015820.338997,24
1766015820.339007,25
1766015820.3390179,28
1766015820.339028,26
1766015820.339039,28
1766015820.3390489,27
1766015820.3390589,26
1766015820.339073,32
1766015820.339085,27
1766015820.339095,27
1766015820.339106,26
1766015820.339116,28
1766015820.339127,26
1766015820.339137,27
1766015820.339147,28
1766015820.339158,26
1766015820.339169,24
1766015820.339179,24
1766015820.33919,23
1766015820.3392,27
1766015820.339211,25
1766015820.339221,25
1766015820.339232,24
1766015820.339242,26
1766015820.339253,27
1766015820.339263,26
1766015820.339274,27
1766015820.339284,28
1766015820.339295,23
1766015820.339305,26
1766015820.339316,26
1766015820.339326,24
1766015820.339336,27
1766015820.339347,23
1766015820.339357,26
1766015820.3393679,23
1766015820.3393779,26
1766015820.3393888,25
1766015820.3393989,24
1766015820.3394089,27
1766015820.339424,25
1766015820.339434,23
1766015820.3394449,23
1766015820.339455,23
1766015820.339466,25
1766015820.3394759,26
1766015820.339487,26
1766015820.3394969,22
1766015820.339508,24
1766015820.339518,28
1766015820.339529,24
1766015820.339539,25
1766015820.33955,25
1766015820.33956,24
1766015820.339571,25
1766015820.339581,24
1766015820.339592,22
1766015820.339603,25
1766015820.339613,25
1766015820.339624,26
1766015820.339634,26
1766015820.339645,24
1766015820.339655,27
1766015820.339666,28
1766015820.3396769,27
1766015820.3396869,23
1766015820.3396978,23
1766015820.3397079,26
1766015820.3397188,26
1766015820.3397288,25
1766015820.3397398,22
1766015820.3397498,24
1766015820.3397608,26
1766015820.339775,22
1766015820.3397892,24
1766015820.339799,21
1766015820.3398101,25
1766015820.3398201,24
1766015820.339863,24
1766015820.3398788,25
1766015820.339891,24
1766015820.339901,24
1766015820.339912,24
1766015820.339923,24
1766015820.3399339,21
1766015820.339945,24
1766015820.3399549,22
1766015820.339966,24
1766015820.339977,22
1766015820.339988,25
1766015820.339999,25
1766015820.34001,22
1766015820.340021,24
1766015820.340032,21
1766015820.3400419,25
1766015820.340053,24
1766015820.340064,25
1766015820.340075,24
1766015820.340086,24
1766015820.340097,24
1766015820.340107,25
1766015820.340118,22
1766015820.34013,24
1766015820.340141,23
1766015820.340151,22
1766015820.340162,22
1766015820.3401759,25
1766015820.34019,22
1766015820.340201,23
1766015820.3402119,23
1766015820.340222,24
1766015820.340235,25
1766015820.340245,23
1766015820.340256,27
1766015820.340267,25
1766015820.340278,22
1766015820.340289,25
1766015820.3403,27
1766015820.340311,23
1766015820.340321,24
1766015820.340332,24
1766015820.340343,25
1766015820.340354,21
1766015820.340364,24
1766015820.340375,26
1766015820.3403862,25
1766015820.3403971,27
1766015820.340408,24
1766015820.340419,22
1766015820.340429,25
1766015820.34044,24
1766015820.340451,25
1766015820.340462,23
1766015820.340472,26
1766015820.3404832,26
1766015820.3404942,25
1766015820.3405042,24
1766015820.3405151,22
1766015820.340526,25
1766015820.340537,23
1766015820.3405492,25
1766015820.34056,25
1766015820.340571,27
1766015820.3405812,24
1766015820.3405921,26
1766015820.3406029,23
1766015820.3406138,27
1766015820.3406248,24
1766015820.3406348,25
1766015820.3406458,25
1766015820.340657,26
1766015820.3406668,26
1766015820.340678,26
1766015820.340689,21
1766015820.3407,25
1766015820.3407109,25
1766015820.340721,24
1766015820.3407319,28
1766015820.3407428,27
1766015820.340754,26
1766015820.340765,22
1766015820.340775,26
1766015820.340787,25
1766015820.340798,23
1766015820.34087,24
1766015820.340883,22
1766015820.340938,25
1766015820.34095,24
1766015820.340961,24
1766015820.340971,26
1766015820.340982,24
1766015820.340993,24
1766015820.3410041,25
1766015820.341015,23
1766015820.341026,25
1766015820.341036,24
1766015820.341047,25
1766015820.341057,26
1766015820.341068,28
1766015820.341078,26
1766015820.341089,25
1766015820.341099,23
1766015820.34111,24
1766015820.341121,25
1766015820.341131,28
1766015820.341142,25
1766015820.341152,22
1766015820.341163,28
1766015820.341173,28
1766015820.341184,26
1766015820.341194,26
1766015820.341205,26
1766015820.341215,24
1766015820.341226,23
1766015820.341237,23
1766015820.341247,23
1766015820.341258,25
1766015820.341268,25
1766015820.341279,26
1766015820.341289,27
1766015820.3413,25
1766015820.34131,24
1766015820.341321,26
1766015820.341331,24
1766015820.341342,24
1766015820.341352,25
1766015820.341367,24
1766015820.341378,24
1766015820.341388,26
1766015820.341399,22
1766015820.341409,25
1766015820.34142,24
1766015820.34143,25
1766015820.341441,25
1766015820.341451,24
1766015820.341462,23
1766015820.341472,27
1766015820.341483,24
1766015820.341493,26
1766015820.341504,26
1766015820.3415139,24
1766015820.341524,25
1766015820.341535,26
1766015820.341546,24
1766015820.341556,28
1766015820.341567,23
1766015820.341577,27
1766015820.3415868,27
1766015820.341598,23
1766015820.341608,23
1766015820.341619,25
1766015820.341629,23
1766015820.34164,24
1766015820.341651,22
1766015820.341661,27
1766015820.341672,25
1766015820.341682,25
1766015820.341693,24
1766015820.341703,27
1766015820.341714,24
1766015820.341724,26
1766015820.341735,26
1766015820.341745,27
1766015820.3417559,23
1766015820.3417659,22
1766015820.3417768,26
1766015820.3417878,26
1766015820.3417978,26
1766015820.3418088,27
1766015820.34182,26
1766015820.341831,23
1766015820.341841,25
1766015820.341852,26
1766015820.341862,28
1766015820.341873,25
1766015820.341884,27
1766015820.3418949,25
1766015820.3419058,23
1766015820.3419158,24
1766015820.3419268,25
1766015820.341938,25
1766015820.3419478,24
1766015820.341959,28
1766015820.341969,26
1766015820.34198,23
1766015820.34199,27
1766015820.342001,27
1766015820.342011,25
1766015820.342022,24
1766015820.342032,27
1766015820.342043,26
1766015820.3420532,26
1766015820.3420641,27
1766015820.3420742,24
1766015820.3420851,23
1766015820.3420951,26
1766015820.342106,25
1766015820.342117,25
1766015820.342127,25
1766015820.342138,24
1766015820.342148,25
1766015820.342159,28
1766015820.34217,27
1766015820.34218,27
1766015820.3421912,23
1766015820.3422022,25
1766015820.3422122,25
1766015820.3422232,26
1766015820.3422332,25
1766015820.3422441,27
1766015820.3422542,25
1766015820.3422651,26
1766015820.3422751,27
1766015820.342286,26
1766015820.3422961,26
1766015820.342307,26
1766015820.342318,27
1766015820.342328,27
1766015820.342339,27
1766015820.342349,26
1766015820.34236,27
1766015820.34237,27
1766015820.342381,26
1766015820.342391,27
1766015820.342402,25
1766015820.342412,27
1766015820.342423,27
1766015820.342433,27
1766015820.342444,27
1766015820.3424551,28
1766015820.342465,26
1766015820.3424761,25
1766015820.342488,25
1766015820.342499,24
1766015820.34251,27
1766015820.3425212,27
1766015820.342531,26
1766015820.3425422,26
1766015820.342552,26
1766015820.3425632,27
1766015820.3425732,24
1766015820.3425841,28
1766015820.3425941,25
1766015820.342605,24
1766015820.3426151,27
1766015820.342626,23
1766015820.342636,25
1766015820.3426461,25
1766015820.342657,21
1766015820.342668,25
1766015820.342678,26
1766015820.342689,25
1766015820.342699,27
1766015820.34271,26
1766015820.34272,25
1766015820.342731,26
1766015820.342741,25
1766015820.342751,26
1766015820.342762,24
1766015820.342773,26
1766015820.342784,26
1766015820.342795,24
1766015820.342805,24
1766015820.342816,24
1766015820.342826,24
1766015820.342839,22
1766015820.342849,26
1766015820.34286,25
1766015820.34287,23
1766015820.343885,22
1766015820.34484,24
1766015820.345879,24
1766015820.346905,25
1766015820.3478882,22
1766015820.348872,23
1766015820.349879,23
1766015820.350891,24
1766015820.3519092,23
1766015820.3529,27
1766015820.3539252,25
1766015820.354932,26
1766015820.3559208,25
1766015820.3569112,25
1766015820.3579059,24
1766015820.358922,27
1766015820.359916,25
1766015820.360917,26
1766015820.3619368,25
1766015820.362947,24
1766015820.363948,25
1766015820.364931,25
1766015820.365943,24
1766015820.3669639,25
1766015820.367946,27
1766015820.368942,28
1766015820.369931,22
1766015820.3709178,25
1766015820.3719099,27
1766015820.372971,23
1766015820.37396,26
1766015820.374958,22
1766015820.375963,23
1766015820.376961,26
1766015820.377954,24
1766015820.378956,24
1766015820.379982,24
1766015820.3809679,25
1766015820.3819761,23
1766015820.382963,26
1766015820.383989,24
1766015820.3849769,26
1766015820.385983,24
1766015820.386985,26
1766015820.3879879,23
1766015820.389194,23
1766015820.39001,27
1766015820.3910432,25
1766015820.392032,21
1766015820.3929658,23
1766015820.394015,24
1766015820.39503,23
1766015820.396008,24
1766015820.39698,22
1766015820.39799,26
1766015820.398974,22
1766015820.3999832,24
1766015820.401029,22
1766015820.40198,23
1766015820.4030359,24
1766015820.40399,22
1766015820.405028,23
1766015820.4059908,26
1766015820.40704,23
1766015820.407999,25
1766015820.409051,22
1766015820.410079,20
1766015820.4110332,26
1766015820.412035,23
1766015820.413068,24
1766015820.414068,23
1766015820.415064,19
1766015820.41604,22
1766015820.417061,26
1766015820.418071,25
1766015820.4190762,23
1766015820.420104,24
1766015820.421084,25
1766015820.422082,23
1766015820.423064,25
1766015820.424046,23
1766015820.425087,26
1766015820.426087,23
1766015820.427105,21
1766015820.4280782,23
1766015820.4290822,24
1766015820.4301949,23
1766015820.431094,23
1766015820.432107,24
1766015820.433172,23
1766015820.434189,24
1766015820.435189,21
1766015820.4361768,24
1766015820.437176,22
1766015820.438189,24
1766015820.439187,23
1766015820.440192,22
1766015820.441189,20
1766015820.442198,23
1766015820.443187,21
1766015820.4441879,24
1766015820.4451919,23
1766015820.446186,24
1766015820.4472,20
1766015820.448191,24
1766015820.4492002,22
1766015820.450197,24
1766015820.451193,23
1766015820.4521978,23
1766015820.453195,21
1766015820.4541922,22
1766015820.455193,21
1766015820.456191,21
1766015820.457195,24
1766015820.4581969,25
1766015820.459192,22
1766015820.460187,20
1766015820.461194,25
1766015820.4621902,20
1766015820.463199,23
1766015820.4641962,22
1766015820.4652128,25
1766015820.466211,23
1766015820.4672158,21
1766015820.468223,21
1766015820.469225,23
1766015820.4702232,24
1766015820.47121,19
1766015820.472224,26
1766015820.47322,22
1766015820.474236,24
1766015820.4752371,22
1766015820.4762409,25
1766015820.4772449,25
1766015820.4782531,20
1766015820.47925,22
1766015820.4802501,25
1766015820.481247,20
1766015820.4822478,22
1766015820.48326,23
1766015820.484258,23
1766015820.485261,22
1766015820.486269,22
1766015820.487277,21
1766015820.488272,22
1766015820.48928,23
1766015820.49029,22
1766015820.4912739,22
1766015820.492298,22
1766015820.493291,23
1766015820.4942951,23
1766015820.49529,23
1766015820.496293,21
1766015820.4972858,21
1766015820.498307,21
1766015820.499288,22
1766015820.500279,22
1766015820.501272,21
1766015820.502346,25
1766015820.5033112,23
1766015820.504319,22
1766015820.5053172,23
1766015820.506326,23
1766015820.507318,23
1766015820.5083132,23
1766015820.5093188,20
1766015820.510337,22
1766015820.5113568,23
1766015820.512356,22
1766015820.5133471,25
1766015820.5143511,24
1766015820.5153449,26
1766015820.516347,22
1766015820.517345,23
1766015820.5183702,21
1766015820.5193632,24
1766015820.5203671,26
1766015820.521378,25
1766015820.522367,26
1766015820.523367,31
1766015820.524388,31
1766015820.525388,35
1766015820.5263941,38
1766015820.527403,40
1766015820.5284119,42
1766015820.529402,40
1766015820.530401,44
1766015820.5314062,45
1766015820.532404,46
1766015820.533399,47
1766015820.5344052,48
1766015820.53542,47
1766015820.5364218,49
1766015820.537416,48
1766015820.5384169,49
1766015820.539436,49
1766015820.54043,48
1766015820.54143,49
1766015820.542421,47
1766015820.543426,46
1766015820.544426,48
1766015820.545433,44
1766015820.546439,47
1766015820.547441,44
1766015820.5484421,46
1766015820.549449,47
1766015820.550446,44
1766015820.551456,40
1766015820.552465,46
1766015820.5534668,42
1766015820.5544589,44
1766015820.5554712,45
1766015820.556463,43
1766015820.557482,48
1766015820.5584881,47
1766015820.559516,47
1766015820.56055,44
1766015820.561495,45
1766015820.5625129,42
1766015820.5635169,46
1766015820.564493,45
1766015820.565482,42
1766015820.566497,46
1766015820.567497,43
1766015820.568484,41
1766015820.569494,42
1766015820.570478,43
1766015820.57151,43
1766015820.5725172,44
1766015820.573515,43
1766015820.574495,45
1766015820.575518,44
1766015820.57652,43
1766015820.5775151,42
1766015820.578536,42
1766015820.579537,43
1766015820.580534,43
1766015820.581526,44
1766015820.582506,41
1766015820.583531,38
1766015820.584519,42
1766015820.585519,39
1766015820.586514,41
1766015820.587533,39
1766015820.5885272,37
1766015820.5895119,40
1766015820.5905201,37
1766015820.591536,41
1766015820.5925262,41
1766015820.593524,36
1766015820.594541,44
1766015820.5955331,42
1766015820.59655,42
1766015820.597544,48
1766015820.598551,48
1766015820.599551,52
1766015820.6005409,49
1766015820.6015801,53
1766015820.602588,55
1766015820.603596,53
1766015820.604606,50
1766015820.605613,54
1766015820.6066098,50
1766015820.607594,52
1766015820.608609,51
1766015820.60961,54
1766015820.6106298,50
1766015820.611635,48
1766015820.612633,51
1766015820.61363,53
1766015820.614624,52
1766015820.6156301,47
1766015820.616629,49
1766015820.61763,53
1766015820.618626,55
1766015820.619648,56
1766015820.6206322,60
1766015820.621654,59
1766015820.622647,63
1766015820.623654,66
1766015820.624661,66
1766015820.625658,68
1766015820.6266592,71
1766015820.627668,72
1766015820.628654,73
1766015820.6296818,77
1766015820.630672,75
1766015820.631676,80
1766015820.632682,75
1766015820.6336691,74
1766015820.634676,76
1766015820.63567,79
1766015820.636718,80
1766015820.6376908,78
1766015820.638696,77
1766015820.639709,80
1766015820.640697,76
1766015820.641689,80
1766015820.6426969,78
1766015820.643702,77
1766015820.644707,75
1766015820.64571,73
1766015820.646715,74
1766015820.647695,78
1766015820.6486971,76
1766015820.649707,77
1766015820.650728,75
1766015820.651722,74
1766015820.652729,72
1766015820.653721,73
1766015820.654725,70
1766015820.6557481,74
1766015820.656755,75
1766015820.6577332,74
1766015820.65874,79
1766015820.659759,78
1766015820.6607559,86
1766015820.6617448,92
1766015820.662747,96
1766015820.6638641,102
1766015820.664854,107
1766015820.665854,112
1766015820.666868,114
1766015820.6678479,115
1766015820.6688619,113
1766015820.669866,118
1766015820.6708758,119
1766015820.671885,118
1766015820.6728802,116
1766015820.6739001,115
1766015820.6748722,115
1766015820.6758919,112
1766015820.676905,114
1766015820.677897,109
1766015820.6789088,109
1766015820.679894,111
1766015820.6809092,109
1766015820.681917,110
1766015820.682921,113
1766015820.6839302,112
1766015820.6849291,113
1766015820.685933,112
1766015820.686933,112
1766015820.687947,112
1766015820.6889338,110
1766015820.6899571,109
1766015820.690939,114
1766015820.6919591,113
1766015820.692939,112
1766015820.693936,115
1766015820.694958,118
1766015820.6959748,125
1766015820.69696,132
1766015820.6979609,135
1766015820.698963,144
1766015820.6999629,148
1766015820.700968,148
1766015820.701947,152
1766015820.702965,148
1766015820.703967,150
1766015820.704965,145
1766015820.7059672,149
1766015820.706959,151
1766015820.7079759,153
1766015820.708961,158
1766015820.709975,156
1766015820.710987,156
1766015820.71199,155
1766015820.712987,157
1766015820.714008,160
1766015820.714986,159
1766015820.715988,158
1766015820.7170188,163
1766015820.7179992,163
1766015820.719001,162
1766015820.720015,159
1766015820.72102,163
1766015820.7220109,162
1766015820.723043,162
1766015820.724038,160
1766015820.7250292,162
1766015820.726036,157
1766015820.727017,158
1766015820.72802,157
1766015820.7290292,159
1766015820.7300348,155
1766015820.731043,157
1766015820.732057,155
1766015820.7330618,155
1766015820.734085,151
1766015820.735054,150
1766015820.73606,151
1766015820.73706,149
1766015820.738061,148
1766015820.739058,148
1766015820.7400699,146
1766015820.74107,144
1766015820.742072,144
1766015820.743066,144
1766015820.744071,142
1766015820.7450829,141
1766015820.746064,139
1766015820.747069,139
1766015820.748091,136
1766015820.749092,137
1766015820.7501,136
1766015820.7510872,135
1766015820.752105,134
1766015820.753094,135
1766015820.754099,132
1766015820.755113,129
1766015820.7561972,128
1766015820.757192,127
1766015820.758191,129
1766015820.759101,130
1766015820.7601979,125
1766015820.761199,129
1766015820.762197,129
1766015820.7631931,130
1766015820.764205,130
1766015820.7652009,125
1766015820.7662,125
1766015820.767195,127
1766015820.768202,123
1766015820.7692008,124
1766015820.770186,121
1766015820.7712169,121
1766015820.772199,120
1766015820.7731998,119
1766015820.774198,118
1766015820.7751942,115
1766015820.776208,116
1766015820.77719,116
1766015820.7782001,120
1766015820.7792,120
1766015820.7801962,117
1766015820.7812,121
1766015820.7821922,118
1766015820.7831979,123
1766015820.784203,123
1766015820.7852008,121
1766015820.7862,125
1766015820.7872021,126
1766015820.788219,124
1766015820.789203,126
1766015820.7902222,121
1766015820.791224,122
1766015820.792219,122
1766015820.793219,124
1766015820.794235,118
1766015820.795221,119
1766015820.796222,119
1766015820.7972171,117
1766015820.798233,119
1766015820.799228,117
1766015820.80025,114
1766015820.801236,115
1766015820.802235,112
1766015820.803244,113
1766015820.804258,113
1766015820.8052568,113
1766015820.806262,109
1766015820.807253,111
1766015820.808285,110
1766015820.8092248,110
1766015820.810252,108
1766015820.8112671,110
1766015820.812267,106
1766015820.8132741,104
1766015820.8142898,105
1766015820.815275,103
1766015820.816294,102
1766015820.8172789,103
1766015820.818284,105
1766015820.819287,101
1766015820.8202891,107
1766015820.821298,109
1766015820.822297,108
1766015820.823308,108
1766015820.824319,111
1766015820.8253188,108
1766015820.826328,109
1766015820.827322,108
1766015820.8283362,105
1766015820.829322,107
1766015820.8303208,106
1766015820.83132,106
1766015820.832341,108
1766015820.833339,114
1766015820.834336,116
1766015820.835346,114
1766015820.836352,115
1766015820.837343,114
1766015820.83834,113
1766015820.839355,110
1766015820.8403609,106
1766015820.8413599,108
1766015820.842346,110
1766015820.843348,108
1766015820.844369,108
1766015820.8453581,104
1766015820.846357,105
1766015820.8473659,106
1766015820.848373,104
1766015820.849374,104
1766015820.850286,98
1766015820.851278,99
1766015820.852376,102
1766015820.853385,100
1766015820.854291,99
1766015820.8553011,96
1766015820.856308,96
1766015820.85731,95
1766015820.858315,95
1766015820.859307,94
1766015820.860321,90
1766015820.86133,94
1766015820.862335,89
1766015820.863339,91
1766015820.864324,91
1766015820.865334,92
1766015820.866327,91
1766015820.867337,92
1766015820.868362,95
1766015820.869361,91
1766015820.870363,93
1766015820.871358,94
1766015820.872355,95
1766015820.873352,91
1766015820.874357,90
1766015820.8753479,91
1766015820.876353,94
1766015820.877378,93
1766015820.878363,93
1766015820.8793669,95
1766015820.880376,96
1766015820.881376,96
1766015820.8823922,96
1766015820.883391,95
1766015820.8843951,94
1766015820.885377,93
1766015820.886382,96
1766015820.887413,94
1766015820.88842,92
1766015820.889395,90
1766015820.890403,91
1766015820.8914251,87
1766015820.892405,89
1766015820.89341,87
1766015820.894411,88
1766015820.895432,90
1766015820.896426,86
1766015820.89743,87
1766015820.898435,87
1766015820.89945,89
1766015820.9004328,87
1766015820.9014359,84
1766015820.902447,84
1766015820.903444,85
1766015820.904453,81
1766015820.905442,81
1766015820.9064472,80
1766015820.9074502,79
1766015820.908462,81
1766015820.909458,77
1766015820.910466,75
1766015820.911469,79
1766015820.912456,77
1766015820.9134731,77
1766015820.914471,76
1766015820.915478,72
1766015820.9164832,72
1766015820.917488,71
1766015820.9184902,73
1766015820.919486,72
1766015820.920487,70
1766015820.9214962,71
1766015820.9224849,67
1766015820.92349,69
1766015820.924489,66
1766015820.925514,66
1766015820.926502,65
1766015820.927495,67
1766015820.928488,69
1766015820.929514,69
1766015820.9304981,69
1766015820.93152,75
1766015820.932528,82
1766015820.933517,90
1766015820.9346292,100
1766015820.93563,104
1766015820.936623,105
1766015820.937637,105
1766015820.9386399,104
1766015820.939639,112
1766015820.9406579,114
1766015820.9416478,117
1766015820.942631,118
1766015820.94364,117
1766015820.944641,118
1766015820.945615,118
1766015820.9466398,118
1766015820.9476218,118
1766015820.948618,115
1766015820.949615,116
1766015820.9506052,118
1766015820.951607,116
1766015820.952611,114
1766015820.9536152,117
1766015820.9546099,113
1766015820.955617,112
1766015820.956608,110
1766015820.95762,109
1766015820.958635,107
1766015820.959635,107
1766015820.96066,105
1766015820.9616609,102
1766015820.9626582,101
1766015820.963567,99
1766015820.9646442,100
1766015820.965607,99
1766015820.966573,97
1766015820.967587,97
1766015820.96857,93
1766015820.969573,95
1766015820.970569,98
1766015820.971581,96
1766015820.972598,96
1766015820.973582,99
1766015820.9746718,105
1766015820.9756858,111
1766015820.9766982,110
1766015820.97773,111
1766015820.978701,108
1766015820.979698,110
1766015820.980674,111
1766015820.9816902,105
1766015820.982698,111
1766015820.983704,107
1766015820.984705,108
1766015820.985708,105
1766015820.986706,108
1766015820.987711,107
1766015820.988749,102
1766015820.989732,106
1766015820.990745,104
1766015820.991745,101
1766015820.992736,102
1766015820.99373,101
1766015820.9947479,102
1766015820.99565,99
1766015820.9967282,98
1766015820.997699,96
1766015820.9987001,99
1766015820.999681,94
1766015821.000672,98
1766015821.0016818,96
1766015821.002681,96
1766015821.00367,92
1766015821.00468,95
1766015821.005682,94
1766015821.0066838,95
1766015821.007661,93
1766015821.008689,94
1766015821.009692,92
1766015821.010686,95
1766015821.01168,92
1766015821.012707,93
1766015821.013696,92
1766015821.014703,96
1766015821.0157042,98
1766015821.016804,100
1766015821.017808,101
1766015821.018805,106
1766015821.0198028,105
1766015821.0208352,105
1766015821.021845,110
1766015821.0228631,110
1766015821.02386,109
1766015821.024859,107
1766015821.025873,109
1766015821.0268521,106
1766015821.027882,106
1766015821.028874,107
1766015821.029869,106
1766015821.030868,101
1766015821.031838,102
1766015821.03288,103
1766015821.033838,104
1766015821.0348392,103
1766015821.035881,105
1766015821.0368361,106
1766015821.037902,104
1766015821.038906,103
1766015821.0398788,105
1766015821.040889,107
1766015821.0419,112
1766015821.042911,113
1766015821.043921,113
1766015821.044875,116
1766015821.0458848,117
1766015821.046881,114
1766015821.047887,115
1766015821.0489202,114
1766015821.049932,114
1766015821.050941,113
1766015821.051938,111
1766015821.052935,113
1766015821.053918,110
1766015821.054914,112
1766015821.055922,114
1766015821.056942,112
1766015821.05796,113
1766015821.058943,112
1766015821.0599492,108
1766015821.060954,109
1766015821.062052,105
1766015821.062948,104
1766015821.063987,104
1766015821.064938,103
1766015821.0659862,103
1766015821.066965,102
1766015821.0679748,102
1766015821.06889,99
1766015821.069929,102
1766015821.070951,101
1766015821.071939,101
1766015821.072947,100
1766015821.073926,98
1766015821.07492,99
1766015821.075902,99
1766015821.076908,96
1766015821.077912,99
1766015821.078892,96
1766015821.079875,94
1766015821.0809212,94
1766015821.0819578,95
1766015821.082935,93
1766015821.083943,95
1766015821.084952,93
1766015821.0859299,92
1766015821.0869,93
1766015821.087903,91
1766015821.088934,89
1766015821.089897,89
1766015821.090952,87
1766015821.091958,88
1766015821.092942,86
1766015821.0939462,83
1766015821.09494,82
1766015821.0959392,86
1766015821.0969548,85
1766015821.097934,88
1766015821.0989661,88
1766015821.0999758,90
1766015821.10098,88
1766015821.101978,87
1766015821.10296,85
1766015821.10397,87
1766015821.104981,89
1766015821.105995,87
1766015821.106988,89
1766015821.108001,83
1766015821.109001,84
1766015821.110006,86
1766015821.1109939,86
1766015821.1119812,85
1766015821.112988,87
1766015821.114005,84
1766015821.114978,82
1766015821.116012,86
1766015821.117017,81
1766015821.118022,83
1766015821.11902,80
1766015821.1200159,81
1766015821.121021,81
1766015821.122041,82
1766015821.122999,81
1766015821.124028,84
1766015821.1250281,81
1766015821.126036,81
1766015821.127038,84
1766015821.128043,83
1766015821.1290429,82
1766015821.130055,83
1766015821.131051,81
1766015821.1320372,81
1766015821.133066,79
1766015821.134065,78
1766015821.135094,77
1766015821.136083,79
1766015821.1370728,81
1766015821.1380742,79
1766015821.13908,79
1766015821.140075,76
1766015821.1410959,78
1766015821.142091,77
1766015821.143109,76
1766015821.144104,72
1766015821.1450791,77
1766015821.146166,74
1766015821.1472042,76
1766015821.148074,72
1766015821.149188,74
1766015821.1501079,73
1766015821.1511931,71
1766015821.152201,74
1766015821.153192,75
1766015821.1541839,73
1766015821.155196,67
1766015821.1561768,69
1766015821.1571891,72
1766015821.1581912,67
1766015821.1591969,69
1766015821.160199,68
1766015821.161172,67
1766015821.162196,68
1766015821.1631958,68
1766015821.164198,66
1766015821.1651928,64
1766015821.166204,64
1766015821.1671932,65
1766015821.168195,68
1766015821.169204,65
1766015821.170218,63
1766015821.1711922,65
1766015821.17219,69
1766015821.1731782,66
1766015821.174191,67
1766015821.175199,67
1766015821.1761868,70
1766015821.177195,70
1766015821.178182,71
1766015821.179187,74
1766015821.1801732,71
1766015821.1811788,74
1766015821.1822,75
1766015821.183199,75
1766015821.1842,75
1766015821.185212,75
1766015821.186214,77
1766015821.187201,77
1766015821.1882062,81
1766015821.189211,80
1766015821.190229,81
1766015821.191228,80
1766015821.19222,80
1766015821.1932118,85
1766015821.1942358,85
1766015821.19521,82
1766015821.196212,83
1766015821.197237,81
1766015821.1982121,84
1766015821.199235,84
1766015821.200243,81
1766015821.2012439,83
1766015821.202235,78
1766015821.2032378,83
1766015821.2042398,80
1766015821.2052622,82
1766015821.206246,82
1766015821.2072709,81
1766015821.208265,80
1766015821.209279,77
1766015821.210253,78
1766015821.2112541,78
1766015821.2122781,80
1766015821.213266,78
1766015821.214268,77
1766015821.215274,79
1766015821.216287,77
1766015821.2172842,73
1766015821.218273,75
1766015821.2193,75
1766015821.220313,73
1766015821.221299,76
1766015821.2222981,75
1766015821.223297,74
1766015821.2242959,73
1766015821.22529,71
1766015821.2262971,72
1766015821.2273111,72
1766015821.2283251,70
1766015821.229318,71
1766015821.230328,70
1766015821.231315,69
1766015821.232318,67
1766015821.233324,66
1766015821.234345,67
1766015821.2353349,72
1766015821.23635,69
1766015821.237355,71
1766015821.238349,68
1766015821.239359,65
1766015821.2403572,65
1766015821.241355,63
1766015821.2423449,64
1766015821.24335,61
1766015821.244349,67
1766015821.245384,68
1766015821.246368,67
1766015821.247363,67
1766015821.248378,69
1766015821.249383,67
1766015821.2503831,70
1766015821.251358,76
1766015821.2523808,82
1766015821.2534258,83
1766015821.254421,85
1766015821.2553961,85
1766015821.256407,87
1766015821.25741,88
1766015821.258402,88
1766015821.259407,87
1766015821.260406,88
1766015821.26141,90
1766015821.262435,89
1766015821.2634282,88
1766015821.26444,90
1766015821.265416,87
1766015821.266434,89
1766015821.267429,90
1766015821.268428,87
1766015821.2694411,88
1766015821.270452,89
1766015821.2714581,87
1766015821.272455,90
1766015821.273443,88
1766015821.2744498,91
1766015821.275452,87
1766015821.276454,90
1766015821.277471,89
1766015821.2784598,93
1766015821.279474,90
1766015821.280458,89
1766015821.281483,88
1766015821.2824588,90
1766015821.283461,88
1766015821.284467,87
1766015821.285474,88
1766015821.286468,89
1766015821.2874858,86
1766015821.288469,87
1766015821.2894871,88
1766015821.2904818,86
1766015821.291491,85
1766015821.2924879,85
1766015821.293493,86
1766015821.294497,86
1766015821.295521,86
1766015821.2965171,85
1766015821.2975202,81
1766015821.298501,83
1766015821.299514,78
1766015821.300512,81
1766015821.301518,80
1766015821.302515,78
1766015821.303541,83
1766015821.304536,81
1766015821.305541,78
1766015821.306543,81
1766015821.307565,77
1766015821.3085508,76
1766015821.309549,78
1766015821.3105469,81
1766015821.311542,81
1766015821.312553,78
1766015821.3135738,79
1766015821.314553,76
1766015821.315557,76
1766015821.316562,76
1766015821.3175838,76
