timestamp,emg_value
1766015785.768223,27
1766015785.7682571,28
1766015785.768279,27
1766015785.768304,26
1766015785.7683241,25
1766015785.7683442,28
1766015785.768362,26
1766015785.76838,29
1766015785.7683961,27
1766015785.768414,29
1766015785.76843,30
1766015785.768446,26
1766015785.7684622,29
1766015785.768477,29
1766015785.768492,31
1766015785.768508,27
1766015785.768523,24
1766015785.768536,28
1766015785.7685492,26
1766015785.768564,23
1766015785.768577,30
1766015785.76859,27
1766015785.7686028,28
1766015785.768616,31
1766015785.768628,28
1766015785.768641,30
1766015785.768654,28
1766015785.768668,31
1766015785.768681,29
1766015785.768694,25
1766015785.768707,29
1766015785.76872,28
1766015785.768757,26
1766015785.7687712,29
1766015785.7687838,29
1766015785.7687979,29
1766015785.768811,29
1766015785.768824,27
1766015785.7688372,31
1766015785.7688498,30
1766015785.768863,28
1766015785.768888,32
1766015785.768901,29
1766015785.768914,29
1766015785.7689269,29
1766015785.768939,28
1766015785.7689521,27
1766015785.768965,27
1766015785.768985,33
1766015785.768998,28
1766015785.769011,29
1766015785.769025,32
1766015785.769038,28
1766015785.769063,29
1766015785.7690759,29
1766015785.76909,32
1766015785.769103,30
1766015785.769116,34
1766015785.769137,36
1766015785.76915,31
1766015785.769163,34
1766015785.769176,29
1766015785.7691891,30
1766015785.7692091,30
1766015785.769238,30
1766015785.7692559,29
1766015785.769269,30
1766015785.769283,31
1766015785.769296,33
1766015785.769309,31
1766015785.769322,31
1766015785.769334,32
1766015785.7693481,33
1766015785.7693608,29
1766015785.769374,32
1766015785.769386,31
1766015785.7694001,33
1766015785.769425,34
1766015785.769438,30
1766015785.769451,32
1766015785.769464,30
1766015785.7694771,28
1766015785.7694972,32
1766015785.769511,33
1766015785.7695308,33
1766015785.769544,28
1766015785.769558,33
1766015785.7695732,30
1766015785.769589,35
1766015785.769602,30
1766015785.769616,31
1766015785.769629,31
1766015785.769651,30
1766015785.769664,33
1766015785.7696772,33
1766015785.76969,30
1766015785.769705,32
1766015785.7697191,34
1766015785.769732,34
1766015785.7697449,33
1766015785.769758,30
1766015785.769771,32
1766015785.769784,34
1766015785.769797,33
1766015785.769809,33
1766015785.769822,32
1766015785.769835,31
1766015785.769848,35
1766015785.7698612,34
1766015785.769888,31
1766015785.769901,31
1766015785.769931,33
1766015785.7699451,32
1766015785.7699578,35
1766015785.769971,31
1766015785.769984,31
1766015785.7699971,30
1766015785.770009,31
1766015785.770022,30
1766015785.770035,28
1766015785.770048,32
1766015785.770061,31
1766015785.7700741,34
1766015785.770087,31
1766015785.7700999,30
1766015785.770113,32
1766015785.770126,33
1766015785.770139,35
1766015785.7701519,31
1766015785.770175,35
1766015785.77019,32
1766015785.7702029,34
1766015785.770216,34
1766015785.770234,31
1766015785.770248,33
1766015785.770261,32
1766015785.7702742,34
1766015785.770287,33
1766015785.7703009,34
1766015785.770314,35
1766015785.770328,33
1766015785.7703412,34
1766015785.770355,33
1766015785.770368,30
1766015785.7703822,34
1766015785.770402,34
1766015785.770421,35
1766015785.7704341,34
1766015785.770446,31
1766015785.77046,33
1766015785.770472,32
1766015785.770485,34
1766015785.770498,29
1766015785.7705112,35
1766015785.7705238,29
1766015785.770537,30
1766015785.77055,35
1766015785.770562,30
1766015785.770575,35
1766015785.770588,32
1766015785.770614,34
1766015785.770627,31
1766015785.770644,31
1766015785.770657,34
1766015785.7706711,32
1766015785.770684,32
1766015785.7706969,33
1766015785.77071,35
1766015785.770723,35
1766015785.7707362,34
1766015785.7707489,33
1766015785.770762,35
1766015785.7707741,30
1766015785.7707882,31
1766015785.7708,36
1766015785.770813,33
1766015785.770826,33
1766015785.770839,32
1766015785.770852,30
1766015785.770865,36
1766015785.7708778,33
1766015785.770891,33
1766015785.770903,33
1766015785.770916,33
1766015785.7709289,30
1766015785.770942,32
1766015785.770955,32
1766015785.770968,32
1766015785.770988,35
1766015785.771001,34
1766015785.771014,35
1766015785.771026,31
1766015785.7710469,34
1766015785.77106,33
1766015785.771073,35
1766015785.771088,32
1766015785.771101,29
1766015785.7711139,31
1766015785.771126,31
1766015785.7711391,31
1766015785.7711518,34
1766015785.771165,35
1766015785.771178,32
1766015785.7711911,30
1766015785.771204,33
1766015785.7712169,32
1766015785.77123,33
1766015785.7712471,32
1766015785.77126,32
1766015785.771273,31
1766015785.771286,35
1766015785.7712991,31
1766015785.7713122,34
1766015785.7713249,32
1766015785.771339,34
1766015785.771352,32
1766015785.7713652,33
1766015785.7713768,33
1766015785.77139,33
1766015785.771403,33
1766015785.771416,32
1766015785.771429,30
1766015785.771442,32
1766015785.7714539,35
1766015785.771467,31
1766015785.77148,32
1766015785.7714932,33
1766015785.771508,34
1766015785.771521,30
1766015785.771534,30
1766015785.7715461,34
1766015785.771559,31
1766015785.7715719,29
1766015785.771585,36
1766015785.771598,31
1766015785.771611,29
1766015785.7716422,34
1766015785.7716548,27
1766015785.771668,33
1766015785.771681,33
1766015785.7716942,31
1766015785.7717068,33
1766015785.77172,33
1766015785.771733,32
1766015785.7717462,34
1766015785.771758,29
1766015785.771771,32
1766015785.7717838,30
1766015785.771797,30
1766015785.77181,34
1766015785.7718232,30
1766015785.7718358,33
1766015785.771849,29
1766015785.771862,33
1766015785.7718751,31
1766015785.771888,32
1766015785.771901,33
1766015785.771925,33
1766015785.7719371,31
1766015785.77195,33
1766015785.771965,31
1766015785.771978,32
1766015785.771991,31
1766015785.7720041,33
1766015785.772017,32
1766015785.7720299,32
1766015785.772043,31
1766015785.7720551,32
1766015785.772068,33
1766015785.7720819,30
1766015785.772094,32
1766015785.7721071,34
1766015785.77212,32
1766015785.77214,34
1766015785.7721531,31
1766015785.7721658,33
1766015785.772179,35
1766015785.772192,32
1766015785.772204,30
1766015785.772217,31
1766015785.77223,33
1766015785.772248,31
1766015785.7722611,30
1766015785.772274,33
1766015785.772287,33
1766015785.7723,33
1766015785.772313,30
1766015785.772326,36
1766015785.7723389,31
1766015785.772353,33
1766015785.772367,29
1766015785.7723799,32
1766015785.772395,34
1766015785.7724109,34
1766015785.772424,31
1766015785.772437,31
1766015785.772449,31
1766015785.7724621,33
1766015785.772483,33
1766015785.772496,31
1766015785.772508,28
1766015785.772521,28
1766015785.7725341,31
1766015785.772547,30
1766015785.77256,30
1766015785.772585,32
1766015785.772605,29
1766015785.772618,31
1766015785.772631,28
1766015785.772644,30
1766015785.772657,28
1766015785.77267,30
1766015785.772683,29
1766015785.772696,32
1766015785.7727082,29
1766015785.7727208,28
1766015785.772734,31
1766015785.772747,28
1766015785.7727602,31
1766015785.772773,31
1766015785.772786,27
1766015785.772803,29
1766015785.772816,30
1766015785.7728279,29
1766015785.772841,26
1766015785.772856,29
1766015785.772869,31
1766015785.772882,33
1766015785.772894,29
1766015785.772907,30
1766015785.772928,29
1766015785.772941,31
1766015785.7729542,26
1766015785.7729669,29
1766015785.772979,30
1766015785.772992,29
1766015785.773005,28
1766015785.7730298,28
1766015785.773047,29
1766015785.77306,25
1766015785.773073,29
1766015785.773086,32
1766015785.773099,31
1766015785.773112,32
1766015785.7731252,26
1766015785.7731369,29
1766015785.773154,29
1766015785.7731671,30
1766015785.7731788,31
1766015785.773192,28
1766015785.773205,28
1766015785.7732182,30
1766015785.7732348,31
1766015785.773249,28
1766015785.773262,28
1766015785.773275,30
1766015785.7732868,27
1766015785.773302,32
1766015785.773315,31
1766015785.7733278,28
1766015785.773341,28
1766015785.773354,27
1766015785.773367,28
1766015785.77338,31
1766015785.773393,30
1766015785.773406,26
1766015785.773419,27
1766015785.773432,27
1766015785.7734451,29
1766015785.773459,27
1766015785.7734778,27
1766015785.773491,30
1766015785.773504,27
1766015785.7735171,28
1766015785.77353,28
1766015785.773543,29
1766015785.773555,25
1766015785.773568,28
1766015785.7735941,24
1766015785.773607,30
1766015785.77362,24
1766015785.773633,29
1766015785.773646,27
1766015785.773659,28
1766015785.7736719,29
1766015785.773684,27
1766015785.7736971,27
1766015785.77371,29
1766015785.773723,28
1766015785.773736,27
1766015785.773751,28
1766015785.7737641,28
1766015785.7737758,24
1766015785.773789,25
1766015785.773802,26
1766015785.7738152,26
1766015785.773828,26
1766015785.773841,26
1766015785.773854,27
1766015785.773867,27
1766015785.77388,28
1766015785.773895,29
1766015785.773909,25
1766015785.773921,26
1766015785.7739341,29
1766015785.7739468,28
1766015785.7739599,27
1766015785.773973,25
1766015785.773986,28
1766015785.7739992,29
1766015785.7740119,26
1766015785.774025,27
1766015785.774038,27
1766015785.7740512,27
1766015785.774064,28
1766015785.774077,27
1766015785.77409,26
1766015785.774103,24
1766015785.7741172,26
1766015785.7741299,25
1766015785.774143,28
1766015785.774156,26
1766015785.7741709,27
1766015785.774184,26
1766015785.774197,25
1766015785.77421,29
1766015785.7742348,28
1766015785.774249,28
1766015785.774262,23
1766015785.774275,26
1766015785.774288,26
1766015785.7743008,27
1766015785.774314,27
1766015785.774327,27
1766015785.774341,25
1766015785.774354,23
1766015785.774369,26
1766015785.774383,26
1766015785.774397,27
1766015785.774412,25
1766015785.774425,26
1766015785.774438,26
1766015785.774451,23
1766015785.774464,25
1766015785.774477,24
1766015785.77449,23
1766015785.774504,24
1766015785.7745202,26
1766015785.774536,27
1766015785.77455,28
1766015785.774564,27
1766015785.7745779,24
1766015785.774591,25
1766015785.774605,28
1766015785.7746181,25
1766015785.774634,25
1766015785.774647,27
1766015785.774661,28
1766015785.774674,26
1766015785.7746859,24
1766015785.774699,22
1766015785.774712,25
1766015785.7747252,25
1766015785.7747378,27
1766015785.774751,22
1766015785.774764,26
1766015785.7747772,25
1766015785.7747898,27
1766015785.774803,29
1766015785.774816,24
1766015785.7748291,28
1766015785.774842,26
1766015785.774857,24
1766015785.774871,26
1766015785.774886,26
1766015785.774901,25
1766015785.774914,27
1766015785.7749271,27
1766015785.77494,24
1766015785.774955,25
1766015785.7749681,20
1766015785.774982,27
1766015785.7749949,26
1766015785.775008,21
1766015785.7750201,24
1766015785.775033,24
1766015785.7750459,23
1766015785.775063,24
1766015785.7750778,27
1766015785.775091,24
1766015785.775104,25
1766015785.775122,25
1766015785.775135,29
1766015785.775148,25
1766015785.775161,25
1766015785.775174,25
1766015785.775187,24
1766015785.7752,27
1766015785.775213,26
1766015785.775226,25
1766015785.775245,25
1766015785.7752588,26
1766015785.775275,26
1766015785.775288,25
1766015785.7753012,25
1766015785.7753139,24
1766015785.775327,23
1766015785.77534,24
1766015785.775352,26
1766015785.7753658,24
1766015785.775379,26
1766015785.775392,25
1766015785.7754052,25
1766015785.775418,28
1766015785.77543,25
1766015785.7754428,25
1766015785.775456,26
1766015785.775469,26
1766015785.7754822,26
1766015785.775497,24
1766015785.7755132,26
1766015785.775528,24
1766015785.775541,21
1766015785.775554,27
1766015785.775567,24
1766015785.77558,27
1766015785.7755919,25
1766015785.775605,27
1766015785.775618,23
1766015785.7756312,24
1766015785.7756438,25
1766015785.775657,23
1766015785.77567,25
1766015785.7756832,24
1766015785.7756958,25
1766015785.775708,27
1766015785.775721,22
1766015785.775734,25
1766015785.775747,23
1766015785.77576,23
1766015785.7757728,28
1766015785.775786,29
1766015785.775799,24
1766015785.775811,25
1766015785.7758248,27
1766015785.775838,24
1766015785.77585,26
1766015785.775863,24
1766015785.775876,24
1766015785.7758908,24
1766015785.775906,23
1766015785.7759192,25
1766015785.775935,26
1766015785.775949,27
1766015785.775962,27
1766015785.775975,29
1766015785.7759879,23
1766015785.776001,26
1766015785.776014,26
1766015785.776027,24
1766015785.7760398,23
1766015785.776053,24
1766015785.776066,23
1766015785.776082,28
1766015785.776096,24
1766015785.7761111,27
1766015785.776126,27
1766015785.7761421,26
1766015785.776155,23
1766015785.7761679,25
1766015785.77618,25
1766015785.776194,21
1766015785.776206,24
1766015785.776219,25
1766015785.776232,23
1766015785.776246,25
1766015785.776264,26
1766015785.7762802,24
1766015785.776295,24
1766015785.776308,25
1766015785.776321,26
1766015785.776334,25
1766015785.776347,27
1766015785.77636,24
1766015785.776375,25
1766015785.7763898,24
1766015785.7764008,25
1766015785.776413,27
1766015785.776424,25
1766015785.776435,26
1766015785.776447,24
1766015785.776458,28
1766015785.776469,26
1766015785.776481,28
1766015785.776492,24
1766015785.776504,26
1766015785.776515,24
1766015785.776526,24
1766015785.7765381,27
1766015785.776549,27
1766015785.77656,24
1766015785.776572,25
1766015785.776583,25
1766015785.7765949,25
1766015785.7766058,24
1766015785.776618,22
1766015785.77663,29
1766015785.776644,24
1766015785.776656,25
1766015785.7766678,23
1766015785.776682,24
1766015785.776694,26
1766015785.776705,25
1766015785.776716,25
1766015785.7767282,23
1766015785.7767391,26
1766015785.77675,26
1766015785.7767649,24
1766015785.776778,25
1766015785.77679,27
1766015785.776801,26
1766015785.7768168,23
1766015785.776831,27
1766015785.7768419,25
1766015785.776853,24
1766015785.776865,24
1766015785.776876,25
1766015785.776887,22
1766015785.7768981,26
1766015785.77691,24
1766015785.776921,25
1766015785.776932,26
1766015785.7769432,28
1766015785.7769542,28
1766015785.7769659,26
1766015785.7769768,24
1766015785.7769878,26
1766015785.777,27
1766015785.777011,27
1766015785.777022,26
1766015785.7770329,24
1766015785.777045,26
1766015785.777056,25
1766015785.777067,25
1766015785.777078,25
1766015785.77709,26
1766015785.777101,26
1766015785.777112,27
1766015785.777123,27
1766015785.777136,25
1766015785.77715,27
1766015785.777163,25
1766015785.777174,26
1766015785.777185,26
1766015785.777196,26
1766015785.7772071,25
1766015785.777219,26
1766015785.77723,26
1766015785.777241,25
1766015785.777257,28
1766015785.77727,26
1766015785.777283,28
1766015785.777295,26
1766015785.777306,25
1766015785.777317,27
1766015785.777329,25
1766015785.77734,25
1766015785.777351,27
1766015785.7773619,28
1766015785.777374,28
1766015785.777385,28
1766015785.777396,25
1766015785.777407,25
1766015785.777419,27
1766015785.77743,27
1766015785.777442,28
1766015785.777453,25
1766015785.7774642,26
1766015785.777475,25
1766015785.777487,26
1766015785.777498,25
1766015785.7775092,28
1766015785.777523,26
1766015785.777537,26
1766015785.777549,26
1766015785.7775612,24
1766015785.7775722,26
1766015785.7775831,24
1766015785.777594,28
1766015785.7776058,27
1766015785.777617,27
1766015785.777628,28
1766015785.7776399,27
1766015785.7776508,28
1766015785.777664,27
1766015785.777677,28
1766015785.777691,26
1766015785.7777028,22
1766015785.777714,26
1766015785.777726,26
1766015785.777737,27
1766015785.777749,26
1766015785.77776,29
1766015785.777771,25
1766015785.7777832,29
1766015785.7777941,27
1766015785.777805,26
1766015785.777817,29
1766015785.777828,28
1766015785.7778392,29
1766015785.7778502,27
1766015785.777861,30
1766015785.7778728,25
1766015785.777884,28
1766015785.777896,26
1766015785.777911,25
1766015785.777923,26
1766015785.777935,23
1766015785.777946,26
1766015785.777963,27
1766015785.7779741,29
1766015785.777986,27
1766015785.777997,28
1766015785.778008,25
1766015785.7780192,25
1766015785.778031,28
1766015785.778042,27
1766015785.778053,28
1766015785.7780638,26
1766015785.778076,26
1766015785.778087,29
1766015785.7780979,24
1766015785.77811,29
1766015785.778121,27
1766015785.778132,31
1766015785.778143,26
1766015785.778155,26
1766015785.778166,27
1766015785.778177,27
1766015785.778188,28
1766015785.7782001,25
1766015785.778211,26
1766015785.778222,27
1766015785.778234,28
1766015785.7782452,26
1766015785.778261,27
1766015785.7782779,23
1766015785.778293,27
1766015785.778305,29
1766015785.778316,26
1766015785.778327,24
1766015785.778338,27
1766015785.77835,28
1766015785.778361,23
1766015785.778372,25
1766015785.778383,26
1766015785.7783942,25
1766015785.778406,27
1766015785.7784169,26
1766015785.7784278,23
1766015785.7784388,23
1766015785.778451,26
1766015785.778462,24
1766015785.778473,27
1766015785.7784839,25
1766015785.778495,26
1766015785.778507,25
1766015785.778518,27
1766015785.778529,26
1766015785.7785401,25
1766015785.778551,29
1766015785.778563,24
1766015785.778574,27
1766015785.7785852,25
1766015785.7785962,24
1766015785.778608,27
1766015785.7786188,25
1766015785.7786298,24
1766015785.778642,22
1766015785.7786539,25
1766015785.778668,27
1766015785.778681,28
1766015785.7786932,25
1766015785.778707,27
1766015785.778719,26
1766015785.77873,25
1766015785.778741,24
1766015785.778754,26
1766015785.7787662,26
1766015785.7787771,28
1766015785.778788,24
1766015785.778799,25
1766015785.778811,24
1766015785.778822,24
1766015785.778833,27
1766015785.7788439,25
1766015785.778856,27
1766015785.778867,25
1766015785.778878,27
1766015785.77889,26
1766015785.778901,24
1766015785.778912,27
1766015785.778924,25
1766015785.778937,28
1766015785.778948,26
1766015785.77896,24
1766015785.778971,25
1766015785.778982,28
1766015785.7789938,27
1766015785.7790048,28
1766015785.779016,24
1766015785.779028,27
1766015785.779041,28
1766015785.779053,24
1766015785.7790642,27
1766015785.7790751,27
1766015785.779086,24
1766015785.779098,27
1766015785.779109,29
1766015785.7791202,22
1766015785.779132,25
1766015785.7791429,27
1766015785.7791538,27
1766015785.779165,29
1766015785.779176,26
1766015785.779188,29
1766015785.779199,24
1766015785.77921,24
1766015785.779221,25
1766015785.779232,26
1766015785.779244,27
1766015785.7792552,26
1766015785.7792718,23
1766015785.779285,27
1766015785.779298,24
1766015785.77931,25
1766015785.7793212,28
1766015785.7793322,28
1766015785.7793431,26
1766015785.7793548,25
1766015785.7793658,26
1766015785.779377,28
1766015785.779388,26
1766015785.7793999,24
1766015785.7794108,25
1766015785.779426,24
1766015785.7794392,26
1766015785.7794502,26
1766015785.7794611,28
1766015785.7794728,24
1766015785.7794838,26
1766015785.779495,28
1766015785.779507,25
1766015785.779518,28
1766015785.7795289,28
1766015785.779541,26
1766015785.779552,28
1766015785.779563,26
1766015785.779574,25
1766015785.7795851,27
1766015785.779597,25
1766015785.7796092,28
1766015785.7796202,28
1766015785.7796311,27
1766015785.7796428,26
1766015785.7796538,23
1766015785.779665,25
1766015785.779677,27
1766015785.779688,27
1766015785.7796988,23
1766015785.77971,27
1766015785.779722,25
1766015785.779733,29
1766015785.779744,28
1766015785.779755,26
1766015785.779766,28
1766015785.779778,26
1766015785.7797902,25
1766015785.779804,22
1766015785.7798169,25
1766015785.779828,23
1766015785.779839,26
1766015785.77985,25
1766015785.779862,29
1766015785.7798731,24
1766015785.779884,24
1766015785.779895,30
1766015785.779907,25
1766015785.7799182,28
1766015785.7799292,24
1766015785.7799401,27
1766015785.779951,25
1766015785.7799628,27
1766015785.779974,25
1766015785.779985,27
1766015785.779996,23
1766015785.7800078,23
1766015785.780019,27
1766015785.78003,26
1766015785.780042,27
1766015785.780053,29
1766015785.780064,28
1766015785.780075,27
1766015785.780087,29
1766015785.780098,25
1766015785.7801092,27
1766015785.7801201,27
1766015785.780131,25
1766015785.780142,27
1766015785.7801542,24
1766015785.7801678,27
1766015785.780181,28
1766015785.780193,23
1766015785.780204,26
1766015785.780215,27
1766015785.7802272,25
1766015785.7802382,26
1766015785.78025,22
1766015785.780261,27
1766015785.7802722,22
1766015785.780285,25
1766015785.780297,25
1766015785.780308,26
1766015785.780319,25
1766015785.780331,27
1766015785.780342,25
1766015785.780353,25
1766015785.780365,28
1766015785.780375,24
1766015785.780385,24
1766015785.780395,26
1766015785.780405,26
1766015785.780415,26
1766015785.780425,25
1766015785.7804348,27
1766015785.7804449,26
1766015785.7804549,27
1766015785.780465,29
1766015785.780475,28
1766015785.7804852,25
1766015785.7804952,25
1766015785.7805052,27
1766015785.780515,26
1766015785.780528,26
1766015785.78054,25
1766015785.78055,26
1766015785.7805598,26
1766015785.78057,28
1766015785.78058,25
1766015785.780591,27
1766015785.780601,23
1766015785.780611,28
1766015785.780621,26
1766015785.780631,26
1766015785.780641,27
1766015785.780651,26
1766015785.780661,24
1766015785.780671,24
1766015785.780681,27
1766015785.780691,27
1766015785.780701,25
1766015785.780711,24
1766015785.780721,26
1766015785.780732,23
1766015785.780742,26
1766015785.780752,27
1766015785.7807622,25
1766015785.7807722,24
1766015785.780782,27
1766015785.780792,28
1766015785.780802,25
1766015785.780818,25
1766015785.780829,25
1766015785.78084,29
1766015785.78085,27
1766015785.7808619,23
1766015785.780875,28
1766015785.780886,27
1766015785.780896,25
1766015785.780906,26
1766015785.780916,26
1766015785.780926,25
1766015785.780936,25
1766015785.780946,28
1766015785.7809558,27
1766015785.7809658,30
1766015785.780976,26
1766015785.780986,28
1766015785.780996,26
1766015785.781006,26
1766015785.781016,28
1766015785.7810261,28
1766015785.7810361,28
1766015785.781047,26
1766015785.7810571,27
1766015785.781067,29
1766015785.781077,27
1766015785.781087,27
1766015785.781096,24
1766015785.781106,26
1766015785.781116,27
1766015785.78113,30
1766015785.7811399,27
1766015785.7811499,29
1766015785.7811599,28
1766015785.78117,29
1766015785.78118,26
1766015785.78119,26
1766015785.781204,25
1766015785.781216,25
1766015785.781226,26
1766015785.781236,27
1766015785.781246,27
1766015785.781257,27
1766015785.7812722,28
1766015785.781284,27
1766015785.781296,29
1766015785.781306,28
1766015785.781316,26
1766015785.781326,28
1766015785.781337,26
1766015785.781347,27
1766015785.781357,27
1766015785.781367,23
1766015785.781377,26
1766015785.781387,24
1766015785.781397,24
1766015785.7814069,27
1766015785.781417,28
1766015785.781427,25
1766015785.781437,24
1766015785.781447,28
1766015785.781457,27
1766015785.781467,26
1766015785.7814772,24
1766015785.781487,27
1766015785.7820978,23
1766015785.782109,28
1766015785.7821188,24
1766015785.7821288,27
1766015785.782142,27
1766015785.782154,26
1766015785.782165,27
1766015785.782175,25
1766015785.782185,25
1766015785.7821949,23
1766015785.782206,24
1766015785.7822158,25
1766015785.7822258,27
1766015785.7822359,24
1766015785.7822452,27
1766015785.7822561,24
1766015785.78235,27
1766015785.782368,27
1766015785.782382,26
1766015785.782395,27
1766015785.782408,27
1766015785.7824209,25
1766015785.782434,24
1766015785.782447,24
1766015785.7824588,25
1766015785.782472,27
1766015785.782485,24
1766015785.782497,29
1766015785.78251,28
1766015785.7825222,26
1766015785.7825348,26
1766015785.782548,25
1766015785.78256,27
1766015785.782573,26
1766015785.782586,25
1766015785.7825978,26
1766015785.782611,27
1766015785.782631,23
1766015785.7826428,25
1766015785.782656,27
1766015785.782669,28
1766015785.7826822,26
1766015785.7826939,28
1766015785.782707,25
1766015785.78272,29
1766015785.782733,30
1766015785.782746,23
1766015785.782759,26
1766015785.782772,27
1766015785.782784,27
1766015785.782797,27
1766015785.7828102,28
1766015785.7828228,25
1766015785.782835,26
1766015785.782848,32
1766015785.782861,26
1766015785.782874,27
1766015785.782887,24
1766015785.7828999,28
1766015785.782913,29
1766015785.782926,27
1766015785.782939,29
1766015785.7829509,29
1766015785.782964,30
1766015785.782977,28
1766015785.7829928,25
1766015785.783006,26
1766015785.783019,27
1766015785.7830322,26
1766015785.783047,25
1766015785.783061,27
1766015785.7830741,30
1766015785.783087,27
1766015785.7831,25
1766015785.783113,26
1766015785.783126,29
1766015785.783139,27
1766015785.783152,25
1766015785.783165,27
1766015785.783177,28
1766015785.783201,27
1766015785.783346,26
1766015785.7833889,26
1766015785.7833998,28
1766015785.783411,28
1766015785.783422,27
1766015785.783456,27
1766015785.783471,28
1766015785.783484,27
1766015785.783496,25
1766015785.783509,26
1766015785.783544,25
1766015785.783556,23
1766015785.783566,27
1766015785.7835772,24
1766015785.7836149,28
1766015785.783629,25
1766015785.783642,27
1766015785.783654,27
1766015785.7836668,26
1766015785.783697,29
1766015785.783714,25
1766015785.7837281,26
1766015785.783763,28
1766015785.783784,24
1766015785.783794,25
1766015785.783804,24
1766015785.783814,27
1766015785.783823,24
1766015785.783833,24
1766015785.783843,24
1766015785.783853,26
1766015785.783863,25
1766015785.783873,28
1766015785.783882,26
1766015785.783892,28
1766015785.783902,27
1766015785.783911,27
1766015785.783921,28
1766015785.7839308,25
1766015785.783941,26
1766015785.78395,25
1766015785.783962,27
1766015785.783974,22
1766015785.783985,23
1766015785.783995,25
1766015785.7840059,23
1766015785.784016,25
1766015785.7840261,26
1766015785.7840362,24
1766015785.7840462,28
1766015785.784056,25
1766015785.784066,24
1766015785.7840772,25
1766015785.7840881,26
1766015785.784103,26
1766015785.78412,25
1766015785.78413,24
1766015785.78414,29
1766015785.784151,27
1766015785.78416,23
1766015785.78417,26
1766015785.78418,26
1766015785.784191,27
1766015785.784202,26
1766015785.784214,23
1766015785.784226,26
1766015785.784236,29
1766015785.784246,25
1766015785.784256,28
1766015785.784327,25
1766015785.784343,26
1766015785.784356,28
1766015785.784369,24
1766015785.7843819,27
1766015785.784395,22
1766015785.784408,26
1766015785.7844212,25
1766015785.7844338,27
1766015785.784468,23
1766015785.784489,26
1766015785.784538,25
1766015785.784557,24
1766015785.784571,27
1766015785.784584,24
1766015785.784597,25
1766015785.784611,24
1766015785.784628,26
1766015785.7846441,25
1766015785.784657,26
1766015785.7846699,24
1766015785.784683,25
1766015785.784696,27
1766015785.7847092,23
1766015785.7847219,28
1766015785.784735,27
1766015785.784748,24
1766015785.7847612,27
1766015785.7847738,26
1766015785.784787,23
1766015785.7848,26
1766015785.7848132,25
1766015785.784826,28
1766015785.784839,26
1766015785.784852,26
1766015785.7848651,24
1766015785.784878,26
1766015785.784891,27
1766015785.784904,26
1766015785.7849169,26
1766015785.78493,24
1766015785.784943,27
1766015785.784956,26
1766015785.7849689,26
1766015785.784982,26
1766015785.784995,25
1766015785.7850082,26
1766015785.7850208,26
1766015785.785034,24
1766015785.785047,25
1766015785.785066,26
1766015785.785079,26
1766015785.785092,22
1766015785.785105,26
1766015785.785119,25
1766015785.785132,25
1766015785.785145,26
1766015785.785158,22
1766015785.785172,23
1766015785.7851892,28
1766015785.785202,27
1766015785.785215,26
1766015785.785228,28
1766015785.7852411,28
1766015785.785254,27
1766015785.785268,23
1766015785.785281,27
1766015785.785294,28
1766015785.785307,27
1766015785.78532,26
1766015785.785341,27
1766015785.785354,27
1766015785.785367,28
1766015785.7853801,25
1766015785.785393,27
1766015785.7854059,26
1766015785.785419,22
1766015785.785432,24
1766015785.7854452,25
1766015785.7854578,27
1766015785.785471,23
1766015785.785484,25
1766015785.785502,26
1766015785.785517,25
1766015785.78553,24
1766015785.785543,24
1766015785.785556,25
1766015785.785569,23
1766015785.785582,25
1766015785.785595,24
1766015785.785608,22
1766015785.78562,25
1766015785.785633,24
1766015785.7856472,24
1766015785.785662,23
1766015785.785675,26
1766015785.7856882,24
1766015785.785701,22
1766015785.785714,24
1766015785.785727,26
1766015785.7857401,22
1766015785.785753,28
1766015785.785766,26
1766015785.785779,28
1766015785.785792,25
1766015785.785805,27
1766015785.785818,27
1766015785.785831,22
1766015785.7858438,24
1766015785.785857,25
1766015785.7858691,24
1766015785.785882,25
1766015785.7858949,25
1766015785.785908,23
1766015785.785921,25
1766015785.78594,24
1766015785.7859561,24
1766015785.7859688,23
1766015785.785981,24
1766015785.785995,26
1766015785.7860081,29
1766015785.7860212,27
1766015785.7860339,25
1766015785.786047,25
1766015785.78606,23
1766015785.786073,25
1766015785.7860858,24
1766015785.786099,24
1766015785.786113,26
1766015785.7861261,25
1766015785.786137,27
1766015785.786148,27
1766015785.786159,24
1766015785.78617,25
1766015785.786182,22
1766015785.786192,21
1766015785.7862039,23
1766015785.7862148,24
1766015785.786226,23
1766015785.786237,26
1766015785.786248,25
1766015785.786259,26
1766015785.78627,24
1766015785.7862809,26
1766015785.786293,23
1766015785.786304,27
1766015785.786315,23
1766015785.786326,25
1766015785.78634,24
1766015785.7863522,25
1766015785.7863638,25
1766015785.7863748,25
1766015785.786386,26
1766015785.786397,23
1766015785.786408,22
1766015785.786419,26
1766015785.78643,22
1766015785.7864408,26
1766015785.786452,25
1766015785.786462,23
1766015785.786473,25
1766015785.786484,23
1766015785.786495,27
1766015785.786506,25
1766015785.786517,27
1766015785.786528,23
1766015785.786539,26
1766015785.78655,26
1766015785.786561,24
1766015785.786571,25
1766015785.786582,22
1766015785.786593,21
1766015785.786604,24
1766015785.7866151,21
1766015785.786626,23
1766015785.786637,22
1766015785.786648,27
1766015785.786659,25
1766015785.786669,26
1766015785.78668,25
1766015785.7866912,25
1766015785.7867022,22
1766015785.786722,24
1766015785.786736,26
1766015785.786747,24
1766015785.786758,26
1766015785.786768,24
1766015785.786779,23
1766015785.78679,27
1766015785.7868009,25
1766015785.7868118,26
1766015785.7868228,21
1766015785.786834,24
1766015785.786845,25
1766015785.786855,23
1766015785.786866,25
1766015785.786877,24
1766015785.786888,24
1766015785.7868989,24
1766015785.78691,24
1766015785.786921,27
1766015785.786932,25
1766015785.786943,23
1766015785.786953,24
1766015785.786964,26
1766015785.786975,26
1766015785.7869859,23
1766015785.786997,25
1766015785.787008,24
1766015785.787018,22
1766015785.78703,25
1766015785.78704,23
1766015785.787051,22
1766015785.787062,25
1766015785.7870731,22
1766015785.7870898,26
1766015785.787103,26
1766015785.787114,26
1766015785.787125,24
1766015785.787137,22
1766015785.787147,25
1766015785.787158,23
1766015785.787169,24
1766015785.78718,25
1766015785.7871912,20
1766015785.7872021,23
1766015785.787213,25
1766015785.787224,24
1766015785.787235,23
1766015785.787246,26
1766015785.787256,23
1766015785.787267,25
1766015785.7872782,24
1766015785.7872891,23
1766015785.7873,24
1766015785.787311,20
1766015785.787322,26
1766015785.787333,25
1766015785.787344,23
1766015785.787355,25
1766015785.7873652,25
1766015785.7873762,25
1766015785.787387,23
1766015785.7873979,26
1766015785.7874079,27
1766015785.7874188,24
1766015785.7874298,25
1766015785.7874408,24
1766015785.787455,21
1766015785.787468,25
1766015785.787479,21
1766015785.7874901,23
1766015785.787501,22
1766015785.787512,23
1766015785.787523,23
1766015785.787534,24
1766015785.7875452,22
1766015785.7875562,23
1766015785.7875671,25
1766015785.787578,23
1766015785.787589,22
1766015785.7875998,23
1766015785.78761,22
1766015785.787621,25
1766015785.7876322,22
1766015785.787643,24
1766015785.787654,26
1766015785.787665,24
1766015785.7876759,26
1766015785.7876868,23
1766015785.787698,23
1766015785.787709,23
1766015785.787719,25
1766015785.78773,26
1766015785.787741,24
1766015785.787752,24
1766015785.7877629,23
1766015785.7877738,24
1766015785.787785,21
1766015785.787796,23
1766015785.787807,23
1766015785.787821,23
1766015785.7878342,23
1766015785.7878458,20
1766015785.7878568,25
1766015785.787868,23
1766015785.787879,23
1766015785.787894,23
1766015785.787905,23
1766015785.787916,23
1766015785.7879272,24
1766015785.787937,22
1766015785.7879481,24
1766015785.78796,18
1766015785.78797,22
1766015785.787981,21
1766015785.787992,22
1766015785.788003,20
1766015785.788026,22
1766015785.788037,20
1766015785.7880478,20
1766015785.788059,20
1766015785.78807,23
1766015785.788081,20
1766015785.7880929,23
1766015785.7881038,22
1766015785.788115,22
1766015785.788126,24
1766015785.788137,23
1766015785.788147,21
1766015785.788158,20
1766015785.788169,21
1766015785.7881799,21
1766015785.788191,20
1766015785.788202,19
1766015785.788216,20
1766015785.7882292,21
1766015785.788241,21
1766015785.7882519,21
1766015785.7882628,21
1766015785.7882738,23
1766015785.788285,21
1766015785.788296,21
1766015785.788307,23
1766015785.788318,23
1766015785.788332,22
1766015785.788343,21
1766015785.7883542,24
1766015785.7883651,23
1766015785.788376,22
1766015785.788387,20
1766015785.788398,21
1766015785.788409,20
1766015785.7884202,22
1766015785.788432,20
1766015785.7884429,22
1766015785.7884538,24
1766015785.7884648,23
1766015785.7884748,22
1766015785.788486,23
1766015785.788497,21
1766015785.788508,21
1766015785.788519,21
1766015785.7885299,22
1766015785.7885408,19
1766015785.788552,26
1766015785.788563,23
1766015785.788574,24
1766015785.788588,20
1766015785.788599,21
1766015785.78861,22
1766015785.788621,23
1766015785.7886322,24
1766015785.7886431,21
1766015785.788654,21
1766015785.788665,22
1766015785.788676,21
1766015785.788687,22
1766015785.7886982,21
1766015785.7887092,21
1766015785.7887201,23
1766015785.7887309,22
1766015785.788741,20
1766015785.7887528,21
1766015785.788764,19
1766015785.788775,23
1766015785.788785,21
1766015785.788796,20
1766015785.788807,20
1766015785.788818,22
1766015785.7888288,24
1766015785.7888398,22
1766015785.788851,23
1766015785.788873,23
1766015785.7888849,20
1766015785.788895,18
1766015785.788906,17
1766015785.788917,20
1766015785.788928,20
1766015785.788939,21
1766015785.788956,20
1766015785.7889678,21
1766015785.788979,22
1766015785.78899,23
1766015785.789001,19
1766015785.789011,23
1766015785.789022,25
1766015785.789033,22
1766015785.789044,22
1766015785.7890549,21
1766015785.789066,24
1766015785.789077,23
1766015785.789088,22
1766015785.789099,19
1766015785.789109,19
1766015785.78912,21
1766015785.789131,20
1766015785.7891421,22
1766015785.789153,23
1766015785.789164,22
1766015785.789175,24
1766015785.789185,22
1766015785.789196,21
1766015785.789207,22
1766015785.789218,22
1766015785.7892292,23
1766015785.789239,21
1766015785.7892501,23
1766015785.789261,19
1766015785.789272,19
1766015785.789283,24
1766015785.789293,19
1766015785.789304,19
1766015785.7893171,24
1766015785.7893288,20
1766015785.78934,21
1766015785.789351,21
1766015785.789361,21
1766015785.789372,23
1766015785.789383,23
1766015785.7893949,20
1766015785.7894049,20
1766015785.7894158,19
1766015785.789427,23
1766015785.789438,21
1766015785.789448,18
1766015785.789459,20
1766015785.78947,24
1766015785.789481,20
1766015785.789492,19
1766015785.7895029,20
1766015785.7895129,21
1766015785.789524,22
1766015785.789535,18
1766015785.789546,23
1766015785.789557,19
1766015785.789568,21
1766015785.789579,24
1766015785.789589,20
1766015785.7896,18
1766015785.789611,21
1766015785.789622,22
1766015785.789633,20
1766015785.789644,19
1766015785.789655,21
1766015785.789665,19
1766015785.7896829,21
1766015785.789694,19
1766015785.789705,21
1766015785.789716,17
1766015785.789727,22
1766015785.789737,21
1766015785.789748,20
1766015785.789759,18
1766015785.78977,19
1766015785.7897909,23
1766015785.789802,21
1766015785.789813,20
1766015785.789824,21
1766015785.789835,24
1766015785.789846,21
1766015785.789856,24
1766015785.789867,22
1766015785.7898781,22
1766015785.789889,18
1766015785.7899,23
1766015785.789911,18
1766015785.789922,22
1766015785.789933,23
1766015785.7899442,23
1766015785.7899551,20
1766015785.7899652,21
1766015785.7899761,20
1766015785.789987,19
1766015785.789998,20
1766015785.790009,21
1766015785.79002,21
1766015785.79003,19
1766015785.790041,21
1766015785.7900548,17
1766015785.790068,22
1766015785.7900789,18
1766015785.79009,24
1766015785.7900999,23
1766015785.790111,21
1766015785.790122,23
1766015785.790133,22
1766015785.790144,22
1766015785.790155,24
1766015785.790165,25
1766015785.790176,22
1766015785.7901871,18
1766015785.790198,20
1766015785.790209,21
1766015785.79022,21
1766015785.79023,19
1766015785.790241,21
1766015785.790252,21
1766015785.790263,20
1766015785.790273,23
1766015785.790284,22
1766015785.7902951,21
1766015785.790306,22
1766015785.790317,21
1766015785.790327,20
1766015785.790338,20
1766015785.790349,21
1766015785.79036,20
1766015785.79037,23
1766015785.790381,22
1766015785.790394,23
1766015785.790405,19
1766015785.790422,20
1766015785.7904341,25
1766015785.790445,21
1766015785.790456,22
1766015785.790467,24
1766015785.790478,20
1766015785.7904892,21
1766015785.790499,19
1766015785.7905102,20
1766015785.7905211,19
1766015785.790532,19
1766015785.7905421,21
1766015785.790553,22
1766015785.790564,21
1766015785.790575,19
1766015785.790586,24
1766015785.7905972,21
1766015785.7906072,19
1766015785.7906182,21
1766015785.7906291,21
1766015785.79064,19
1766015785.7906508,20
1766015785.790661,20
1766015785.7906718,23
1766015785.7906828,18
1766015785.790694,19
1766015785.790705,22
1766015785.790716,22
1766015785.790727,20
1766015785.790737,21
1766015785.790748,22
1766015785.7907588,21
1766015785.7907698,22
1766015785.790786,18
1766015785.7907982,22
1766015785.7908092,23
1766015785.7908201,23
1766015785.790831,21
1766015785.790842,22
1766015785.790853,21
1766015785.790863,21
1766015785.790875,19
1766015785.7908852,19
1766015785.7908962,19
1766015785.790907,19
1766015785.7909179,23
1766015785.7909288,21
1766015785.7909389,22
1766015785.7909498,22
1766015785.7909608,20
1766015785.7909708,23
1766015785.7909818,23
1766015785.790993,19
1766015785.791004,21
1766015785.791015,17
1766015785.7910259,21
1766015785.791036,24
1766015785.7910469,22
1766015785.7910578,19
1766015785.791069,23
1766015785.79108,20
1766015785.791091,24
1766015785.791101,23
1766015785.791112,22
1766015785.791123,22
1766015785.7911391,22
1766015785.791153,23
1766015785.7911649,18
1766015785.791179,19
1766015785.79119,20
1766015785.791201,21
1766015785.791212,22
1766015785.791223,21
1766015785.791233,21
1766015785.791244,19
1766015785.791255,21
1766015785.791266,23
1766015785.791276,20
1766015785.791287,20
1766015785.7912982,18
1766015785.791309,21
1766015785.7913191,24
1766015785.79133,24
1766015785.791341,22
1766015785.791351,22
1766015785.791362,23
1766015785.791373,19
1766015785.791384,19
1766015785.7913952,20
1766015785.791405,21
1766015785.7914162,21
1766015785.7914271,23
1766015785.791438,20
1766015785.791449,20
1766015785.79146,16
1766015785.79147,21
1766015785.791481,23
1766015785.791492,21
1766015785.7915032,21
1766015785.7915142,24
1766015785.791528,20
1766015785.791539,23
1766015785.791549,24
1766015785.79156,22
1766015785.7915719,22
1766015785.791583,21
1766015785.791594,22
1766015785.791605,21
1766015785.791615,20
1766015785.791626,22
1766015785.791637,22
1766015785.791647,22
1766015785.791658,23
1766015785.791669,21
1766015785.79168,20
1766015785.7916899,23
1766015785.791701,23
1766015785.791712,20
1766015785.791722,18
1766015785.791733,21
1766015785.791744,22
1766015785.791755,19
1766015785.791766,22
1766015785.791776,22
1766015785.791787,24
1766015785.791798,23
1766015785.791811,23
1766015785.7918222,20
1766015785.7918332,21
1766015785.7918441,23
1766015785.7918541,25
1766015785.791865,22
1766015785.791876,23
1766015785.791886,22
1766015785.791897,21
1766015785.791908,23
1766015785.791925,23
1766015785.791937,21
1766015785.7919471,21
1766015785.791958,22
1766015785.791969,17
1766015785.791979,20
1766015785.79199,23
1766015785.792001,24
1766015785.792012,22
1766015785.792022,20
1766015785.792033,20
1766015785.792044,23
1766015785.7920551,23
1766015785.792065,21
1766015785.792076,20
1766015785.792087,22
1766015785.792097,21
1766015785.792106,22
1766015785.792115,23
1766015785.792125,20
1766015785.7921338,22
1766015785.792143,23
1766015785.792157,20
1766015785.792166,20
1766015785.792175,23
1766015785.792185,20
1766015785.7921941,25
1766015785.792203,19
1766015785.792212,23
1766015785.792222,23
1766015785.7922308,20
1766015785.7922401,23
1766015785.7922502,21
1766015785.792265,19
1766015785.792276,22
1766015785.792292,19
1766015785.792301,22
1766015785.792311,22
1766015785.79232,21
1766015785.792329,20
1766015785.7923388,20
1766015785.792348,20
1766015785.7923572,20
1766015785.792366,21
1766015785.792375,21
1766015785.792385,23
1766015785.792394,21
1766015785.792403,22
1766015785.7924118,20
1766015785.792421,22
1766015785.792431,23
1766015785.7924402,24
1766015785.792455,21
1766015785.792465,21
1766015785.7924778,21
1766015785.792487,24
1766015785.7924962,19
1766015785.792505,21
1766015785.792515,21
1766015785.792524,23
1766015785.792533,23
1766015785.792542,20
1766015785.792552,21
1766015785.7925608,22
1766015785.79257,22
1766015785.7925792,21
1766015785.792594,23
1766015785.792604,20
1766015785.792614,23
1766015785.7926242,21
1766015785.792633,21
1766015785.792642,22
1766015785.7926521,22
1766015785.792661,22
1766015785.79267,24
1766015785.79268,20
1766015785.7926888,21
1766015785.7926981,22
1766015785.7927082,21
1766015785.792717,21
1766015785.792727,20
1766015785.792736,21
1766015785.7927449,20
1766015785.792755,21
1766015785.792764,25
1766015785.792773,24
1766015785.792785,22
1766015785.7927942,21
1766015785.792804,22
1766015785.792813,25
1766015785.792823,22
1766015785.792832,19
1766015785.792841,21
1766015785.79285,23
1766015785.7928598,22
1766015785.792869,25
1766015785.7928782,24
1766015785.7928882,22
1766015785.792897,21
1766015785.792906,21
1766015785.792918,23
1766015785.7929301,20
1766015785.792939,22
1766015785.792948,22
1766015785.792958,21
1766015785.7929668,19
1766015785.792976,25
1766015785.7929852,22
1766015785.792994,20
1766015785.793004,24
1766015785.793013,22
1766015785.793022,22
1766015785.793031,23
1766015785.793041,22
1766015785.79305,19
1766015785.793059,20
1766015785.7930691,21
1766015785.793078,22
1766015785.79309,20
1766015785.793099,21
1766015785.793108,22
1766015785.793118,20
1766015785.7931268,24
1766015785.7931361,22
1766015785.7931452,23
1766015785.793155,22
1766015785.793164,20
1766015785.793173,17
1766015785.793182,22
1766015785.793192,21
1766015785.793201,21
1766015785.79321,20
1766015785.793219,21
1766015785.7932339,23
1766015785.7932448,21
1766015785.7932549,21
1766015785.7932642,22
1766015785.793273,17
1766015785.793283,20
1766015785.793292,20
1766015785.793301,20
1766015785.79332,20
1766015785.793329,21
1766015785.7933388,20
1766015785.793348,24
1766015785.793358,19
1766015785.7933671,20
1766015785.793377,23
1766015785.793386,20
1766015785.793395,22
1766015785.793407,22
1766015785.793417,20
1766015785.793426,23
1766015785.7934349,20
1766015785.7934442,21
1766015785.7934542,21
1766015785.793463,20
1766015785.793473,22
1766015785.793487,22
1766015785.793497,22
1766015785.793507,23
1766015785.793516,18
1766015785.793526,22
1766015785.793535,21
1766015785.793544,20
1766015785.7935529,23
1766015785.793563,21
1766015785.793578,19
1766015785.7935889,20
1766015785.793598,21
1766015785.793607,22
1766015785.793617,19
1766015785.793626,23
1766015785.7936351,21
1766015785.7936451,21
1766015785.793654,23
1766015785.793663,21
1766015785.793673,20
1766015785.7936819,23
1766015785.793691,20
1766015785.7937012,22
1766015785.79371,20
1766015785.793719,23
1766015785.793729,23
1766015785.793739,22
1766015785.793748,24
1766015785.793757,21
1766015785.793771,20
1766015785.793781,24
1766015785.7937899,19
1766015785.793799,20
1766015785.793809,26
1766015785.793818,21
1766015785.793827,20
1766015785.793837,21
1766015785.793847,23
1766015785.793856,24
1766015785.793866,17
1766015785.793875,24
1766015785.7938838,21
1766015785.793899,21
1766015785.793909,19
1766015785.793919,24
1766015785.7939289,20
1766015785.793938,23
1766015785.793947,23
1766015785.7939572,20
1766015785.793966,21
1766015785.793975,23
1766015785.7939851,20
1766015785.793995,19
1766015785.794004,23
1766015785.794013,21
1766015785.7940228,21
1766015785.794032,21
1766015785.7940412,24
1766015785.79405,19
1766015785.79406,23
1766015785.794069,21
1766015785.7940779,22
1766015785.794088,24
1766015785.794097,24
1766015785.794107,21
1766015785.794116,24
1766015785.794125,22
1766015785.794134,20
1766015785.794144,20
1766015785.794153,23
1766015785.794163,23
1766015785.7941718,22
1766015785.794181,21
1766015785.7941902,23
1766015785.7942002,25
1766015785.794209,20
1766015785.794224,19
1766015785.794235,18
1766015785.794245,23
1766015785.794254,22
1766015785.7942631,22
1766015785.794272,22
1766015785.794281,24
1766015785.794301,27
1766015785.7943099,24
1766015785.7943192,22
1766015785.7943292,23
1766015785.794338,22
1766015785.794347,21
1766015785.794357,19
1766015785.794366,23
1766015785.794375,25
1766015785.7943838,21
1766015785.794393,22
1766015785.794403,23
1766015785.7944121,21
1766015785.794421,25
1766015785.79443,20
1766015785.79444,19
1766015785.7944489,20
1766015785.7944582,22
1766015785.794467,21
1766015785.794476,23
1766015785.794485,20
1766015785.7944949,22
1766015785.794504,25
1766015785.794513,21
1766015785.794522,23
1766015785.794531,23
1766015785.794546,22
1766015785.7945569,23
1766015785.7945669,22
1766015785.794576,25
1766015785.7945862,21
1766015785.794595,22
1766015785.794604,22
1766015785.794613,21
1766015785.794622,21
1766015785.794632,22
1766015785.7946408,24
1766015785.794653,22
1766015785.794662,20
1766015785.794671,22
1766015785.79468,20
1766015785.794689,24
1766015785.794698,24
1766015785.794708,25
1766015785.7947168,23
1766015785.794726,22
1766015785.7947352,21
1766015785.794744,20
1766015785.794753,24
1766015785.794762,24
1766015785.794772,21
1766015785.794781,21
1766015785.7947898,22
1766015785.794799,22
1766015785.7948081,24
1766015785.794817,21
1766015785.794826,22
1766015785.7948349,22
1766015785.7948449,23
1766015785.794854,22
1766015785.794865,25
1766015785.7948759,22
1766015785.7948852,21
1766015785.7948952,21
1766015785.794904,20
1766015785.794913,21
1766015785.794923,22
1766015785.794932,23
1766015785.794941,22
1766015785.794951,21
1766015785.7949598,23
1766015785.794969,26
1766015785.794979,23
1766015785.794988,24
1766015785.794997,23
1766015785.795007,25
1766015785.795017,22
1766015785.795027,22
1766015785.7950358,23
1766015785.7950459,20
1766015785.7950552,21
1766015785.795064,20
1766015785.795073,22
1766015785.795083,22
1766015785.7950919,23
1766015785.795101,23
1766015785.79511,25
1766015785.7951202,22
1766015785.795129,23
1766015785.7951381,25
1766015785.7951481,23
1766015785.795157,23
1766015785.795166,23
1766015785.795176,23
1766015785.795187,23
1766015785.795199,24
1766015785.795208,22
1766015785.7952168,24
1766015785.7952268,21
1766015785.795236,20
1766015785.7952452,23
1766015785.795255,22
1766015785.795264,23
1766015785.795273,23
1766015785.7952828,19
1766015785.795292,22
1766015785.7953012,20
1766015785.7953112,24
1766015785.79532,21
1766015785.79533,22
1766015785.795339,21
1766015785.795348,23
1766015785.795358,23
1766015785.795367,20
1766015785.795376,24
1766015785.7953851,24
1766015785.795394,24
1766015785.795404,19
1766015785.795413,22
1766015785.7954218,21
1766015785.795431,23
1766015785.7954402,24
1766015785.7954502,21
1766015785.795459,21
1766015785.795468,21
1766015785.795477,22
1766015785.795487,22
1766015785.795498,21
1766015785.79551,20
1766015785.7955189,18
1766015785.795528,22
1766015785.795538,23
1766015785.7955468,23
1766015785.795556,20
1766015785.795566,21
1766015785.7955751,23
1766015785.795584,20
1766015785.795593,21
1766015785.795603,21
1766015785.7956119,22
1766015785.7956212,19
1766015785.7956312,20
1766015785.79564,23
1766015785.795649,21
1766015785.7956579,22
1766015785.795668,21
1766015785.795677,23
1766015785.795686,21
1766015785.795696,23
1766015785.795705,21
1766015785.7957141,21
1766015785.795724,21
1766015785.795733,23
1766015785.795742,18
1766015785.795752,22
1766015785.7957609,20
1766015785.7957702,24
1766015785.795779,20
1766015785.795788,23
1766015785.795798,20
1766015785.795809,21
1766015785.795821,18
1766015785.79583,22
1766015785.795839,19
1766015785.795848,22
1766015785.795858,21
1766015785.795867,16
1766015785.795876,21
1766015785.795885,22
1766015785.795895,20
1766015785.795904,24
1766015785.795914,20
1766015785.795923,18
1766015785.7959318,21
1766015785.795941,20
1766015785.7959511,22
1766015785.79596,20
1766015785.795969,20
1766015785.795979,19
1766015785.795988,20
1766015785.795997,20
1766015785.796007,22
1766015785.796017,22
1766015785.7960262,23
1766015785.796035,21
1766015785.796045,23
1766015785.7960541,20
1766015785.796063,21
1766015785.796073,22
1766015785.796082,21
1766015785.7960908,22
1766015785.7961001,22
1766015785.7961102,21
1766015785.7961211,20
1766015785.7961311,22
1766015785.7961411,19
1766015785.79615,21
1766015785.79616,21
1766015785.796169,22
1766015785.7961779,18
1766015785.7961879,19
1766015785.796198,23
1766015785.7962081,25
1766015785.7962172,22
1766015785.796226,23
1766015785.796235,18
1766015785.796244,21
1766015785.796254,22
1766015785.796263,22
1766015785.796272,22
1766015785.796281,24
1766015785.796291,20
1766015785.7963,24
1766015785.796309,19
1766015785.796319,21
1766015785.7963278,22
1766015785.796337,22
1766015785.7963462,22
1766015785.796355,22
1766015785.796364,22
1766015785.796373,22
1766015785.796383,19
1766015785.796392,21
1766015785.7964008,21
1766015785.79641,21
1766015785.79642,20
1766015785.7964292,22
1766015785.796441,22
1766015785.796452,21
1766015785.796461,23
1766015785.796471,22
1766015785.79648,21
1766015785.796489,20
1766015785.7964978,19
1766015785.7965078,24
1766015785.7965171,22
1766015785.7965262,21
1766015785.796536,20
1766015785.796545,17
1766015785.796554,18
1766015785.7965639,23
1766015785.796573,20
1766015785.796582,21
1766015785.7965922,20
1766015785.796601,21
1766015785.79661,22
1766015785.796619,22
1766015785.796629,22
1766015785.796638,21
1766015785.7966468,20
1766015785.7966568,23
1766015785.7966661,23
1766015785.796675,22
1766015785.796685,22
1766015785.796694,20
1766015785.7967029,22
1766015785.7967129,18
1766015785.796722,19
1766015785.796731,21
1766015785.79674,22
1766015785.796752,26
1766015785.796763,22
1766015785.796772,21
1766015785.796782,22
1766015785.796791,21
1766015785.7968,20
1766015785.796809,21
1766015785.796819,22
1766015785.7968278,19
1766015785.796837,21
1766015785.7968462,20
1766015785.796855,22
1766015785.796865,21
1766015785.796874,22
1766015785.7968829,20
1766015785.796892,19
1766015785.7969012,21
1766015785.796911,22
1766015785.79692,21
1766015785.7969291,20
1766015785.796938,21
1766015785.796947,19
1766015785.796957,21
1766015785.7969658,22
1766015785.7969751,22
1766015785.796984,23
1766015785.796993,21
1766015785.797002,20
1766015785.7970119,23
1766015785.797021,22
1766015785.79703,22
1766015785.7970402,20
1766015785.797049,22
1766015785.79706,20
1766015785.79707,20
1766015785.797081,20
1766015785.79709,21
1766015785.7971,20
1766015785.797109,20
1766015785.797118,23
1766015785.797127,23
1766015785.7971368,20
1766015785.797146,21
1766015785.7971551,23
1766015785.797164,22
1766015785.797174,19
1766015785.797183,21
1766015785.7971919,23
1766015785.797201,25
1766015785.7972102,23
1766015785.79722,21
1766015785.797229,23
1766015785.797238,22
1766015785.797248,24
1766015785.797257,23
1766015785.797266,25
1766015785.7972748,18
1766015785.7972841,23
1766015785.7972941,21
1766015785.797303,21
1766015785.797312,24
1766015785.797322,22
1766015785.7973309,21
1766015785.79734,22
1766015785.7973492,19
1766015785.797359,22
1766015785.797368,20
1766015785.7973802,21
1766015785.7973912,24
1766015785.7974012,23
1766015785.79741,26
1766015785.797419,22
1766015785.797428,21
1766015785.797437,21
1766015785.7974458,22
1766015785.797455,24
1766015785.797465,21
1766015785.7974741,24
1766015785.797483,23
1766015785.797492,25
1766015785.7975008,22
1766015785.79751,18
1766015785.7975192,20
1766015785.797528,20
1766015785.797538,22
1766015785.797547,24
1766015785.797556,22
1766015785.797565,20
1766015785.797575,20
1766015785.7975838,21
1766015785.797593,23
1766015785.797602,21
1766015785.797611,20
1766015785.79762,21
1766015785.7976289,22
1766015785.797639,19
1766015785.797648,22
1766015785.797657,23
1766015785.797666,23
1766015785.797675,23
1766015785.797686,22
1766015785.797697,19
1766015785.797706,23
1766015785.797715,24
1766015785.797725,24
1766015785.7977338,24
1766015785.797743,22
1766015785.7977521,20
1766015785.797761,23
1766015785.797771,24
1766015785.79778,25
1766015785.7977889,22
1766015785.7977989,22
1766015785.7978082,23
1766015785.797817,24
1766015785.797826,21
1766015785.797835,23
1766015785.797845,26
1766015785.797854,19
1766015785.797863,21
1766015785.797872,23
1766015785.797882,22
1766015785.7978911,21
1766015785.7979,22
1766015785.79791,26
1766015785.797919,24
1766015785.7979279,24
1766015785.797937,23
1766015785.797947,22
1766015785.797956,24
1766015785.797965,22
1766015785.797975,20
1766015785.797984,22
1766015785.797996,22
1766015785.798005,19
1766015785.798016,23
1766015785.798025,23
1766015785.798033,20
1766015785.798042,26
1766015785.7980502,23
1766015785.798058,21
1766015785.798066,23
1766015785.798074,23
1766015785.798083,22
1766015785.798091,24
1766015785.798099,20
1766015785.798107,26
1766015785.7981162,22
1766015785.798124,24
1766015785.798132,21
1766015785.7981398,24
1766015785.798149,22
1766015785.798157,21
1766015785.798165,21
1766015785.798173,20
1766015785.798181,25
1766015785.79819,23
1766015785.798198,24
1766015785.7982059,22
1766015785.798215,25
1766015785.798223,24
1766015785.7982311,25
1766015785.798239,22
1766015785.798248,22
1766015785.7982562,23
1766015785.798264,25
1766015785.798273,25
1766015785.798283,22
1766015785.7982929,22
1766015785.798301,22
1766015785.7983098,22
1766015785.7983181,21
1766015785.798326,21
1766015785.798335,23
1766015785.798343,23
1766015785.798351,23
1766015785.79836,24
1766015785.798368,19
1766015785.7983758,22
1766015785.7983842,25
1766015785.798393,21
1766015785.798401,21
1766015785.798409,24
1766015785.7984169,25
1766015785.7984262,21
1766015785.798434,24
1766015785.798442,22
1766015785.79845,22
1766015785.798458,22
1766015785.7984672,24
1766015785.798475,25
1766015785.798483,22
1766015785.7984908,23
1766015785.7985,22
1766015785.798508,20
1766015785.798516,25
1766015785.798526,23
1766015785.7985349,23
1766015785.7985432,22
1766015785.798551,25
1766015785.798562,22
1766015785.798571,20
1766015785.79858,27
1766015785.7985878,23
1766015785.7985961,20
1766015785.798605,22
1766015785.798613,23
1766015785.798621,20
1766015785.798629,24
1766015785.7986372,22
1766015785.798646,21
1766015785.7986538,23
1766015785.798662,21
1766015785.79867,20
1766015785.798678,20
1766015785.798687,22
1766015785.7986948,21
1766015785.7987032,24
1766015785.798711,19
1766015785.79872,21
1766015785.798728,22
1766015785.7987359,25
1766015785.7987452,21
1766015785.798753,24
1766015785.798761,24
1766015785.798769,24
1766015785.798778,21
1766015785.7987862,23
1766015785.798794,21
1766015785.7988029,19
1766015785.798811,23
1766015785.798819,24
1766015785.798827,23
1766015785.798836,21
1766015785.798846,22
1766015785.798856,20
1766015785.798864,22
1766015785.798872,25
1766015785.79888,23
1766015785.798889,21
1766015785.7988968,22
1766015785.7989051,24
1766015785.798913,21
1766015785.7989209,22
1766015785.79893,19
1766015785.798938,26
1766015785.7989461,21
1766015785.798954,23
1766015785.7989628,19
1766015785.798971,21
1766015785.798979,24
1766015785.798987,23
1766015785.798996,21
1766015785.7990038,25
1766015785.7990122,24
1766015785.79902,22
1766015785.7990289,21
1766015785.799037,20
1766015785.799045,21
1766015785.799053,20
1766015785.799062,24
1766015785.79907,18
1766015785.799078,22
1766015785.799086,21
1766015785.799094,22
1766015785.799103,23
1766015785.799111,20
1766015785.7991219,19
1766015785.7991302,20
1766015785.799139,19
1766015785.799147,20
1766015785.799155,21
1766015785.7991638,24
1766015785.7991722,23
1766015785.79918,21
1766015785.799188,21
1766015785.799197,21
1766015785.799205,21
1766015785.7992132,23
1766015785.799221,21
1766015785.7992299,19
1766015785.799238,22
1766015785.799246,22
1766015785.799254,23
1766015785.799262,21
1766015785.7992709,22
1766015785.7992792,22
1766015785.799287,21
1766015785.799295,22
1766015785.7993028,22
1766015785.7993119,22
1766015785.79932,21
1766015785.799328,22
1766015785.799337,23
1766015785.7993448,21
1766015785.7993531,22
1766015785.799361,21
1766015785.79937,18
1766015785.799378,21
1766015785.799386,23
1766015785.7993941,21
1766015785.799405,21
1766015785.799415,24
1766015785.799423,25
1766015785.799432,22
1766015785.79944,24
1766015785.799448,24
1766015785.799456,21
1766015785.799465,25
1766015785.799474,25
1766015785.799482,23
1766015785.7994912,19
1766015785.799499,21
1766015785.7995079,22
1766015785.799516,22
1766015785.799525,24
1766015785.7995331,20
1766015785.799542,21
1766015785.79955,23
1766015785.7995589,26
1766015785.7995672,23
1766015785.799575,20
1766015785.799584,21
1766015785.799592,21
1766015785.7996001,22
1766015785.799608,22
1766015785.7996259,21
1766015785.799635,22
1766015785.7996428,23
1766015785.799652,24
1766015785.79966,21
1766015785.799668,21
1766015785.799677,22
1766015785.799685,21
1766015785.799696,21
1766015785.7997062,22
1766015785.799714,25
1766015785.799723,21
1766015785.799731,22
1766015785.799739,23
1766015785.7997482,21
1766015785.799756,25
1766015785.799764,22
1766015785.7997718,23
1766015785.799781,24
1766015785.799789,21
1766015785.799797,25
1766015785.7998059,22
1766015785.799814,21
1766015785.799822,23
1766015785.79983,21
1766015785.799838,22
1766015785.799847,23
1766015785.799855,27
1766015785.799863,26
1766015785.799871,23
1766015785.79988,22
1766015785.799888,22
1766015785.799896,20
1766015785.799904,27
1766015785.799913,25
1766015785.7999208,22
1766015785.7999291,28
1766015785.799938,24
1766015785.799946,25
1766015785.799954,24
1766015785.799962,24
1766015785.799973,25
1766015785.799982,25
1766015785.799992,27
1766015785.8,26
1766015785.800009,29
1766015785.8000169,28
1766015785.800025,24
1766015785.800033,26
1766015785.800042,24
1766015785.80005,29
1766015785.8000581,27
1766015785.8000672,29
1766015785.800075,30
1766015785.800083,33
1766015785.800092,33
1766015785.8001,33
1766015785.800108,32
1766015785.800112,33
1766015785.800117,35
1766015785.800122,35
1766015785.8001258,35
1766015785.8001301,33
1766015785.800135,34
1766015785.800139,35
1766015785.800143,35
1766015785.800148,32
1766015785.800152,37
1766015785.8001568,33
1766015785.8001611,32
1766015785.8001652,34
1766015785.80017,33
1766015785.800174,32
1766015785.8001778,31
1766015785.800183,34
1766015785.800195,34
1766015785.8002,35
1766015785.800205,36
1766015785.8002088,35
1766015785.800213,33
1766015785.800218,33
1766015785.800222,35
1766015785.800226,34
1766015785.800231,32
1766015785.800235,30
1766015785.800239,31
1766015785.8002439,35
1766015785.8002481,33
1766015785.800252,32
1766015785.800257,33
1766015785.800261,31
1766015785.800265,31
1766015785.80027,33
1766015785.800274,30
1766015785.8002791,29
1766015785.800283,32
1766015785.800287,30
1766015785.800291,29
1766015785.8002958,30
1766015785.800309,32
1766015785.800313,31
1766015785.8003168,31
1766015785.800322,31
1766015785.8003259,31
1766015785.80033,33
1766015785.8003352,32
1766015785.800339,32
1766015785.800344,31
1766015785.80035,28
1766015785.800354,29
1766015785.80036,32
1766015785.800364,28
1766015785.800368,32
1766015785.800373,31
1766015785.8003771,31
1766015785.800382,30
1766015785.800386,30
1766015785.80039,28
1766015785.800395,28
1766015785.800399,32
1766015785.800404,30
1766015785.8004081,29
1766015785.800412,31
1766015785.800417,32
1766015785.8004212,28
1766015785.800429,32
1766015785.8004339,29
1766015785.800438,31
1766015785.800443,32
1766015785.800447,32
1766015785.800451,32
1766015785.800456,30
1766015785.80046,32
1766015785.8004649,31
1766015785.800469,30
1766015785.800473,32
1766015785.800478,32
1766015785.800482,32
1766015785.8004868,34
1766015785.800491,35
1766015785.8004951,35
1766015785.8005,35
1766015785.80051,38
1766015785.8005152,37
1766015785.80052,35
1766015785.800524,34
1766015785.8005278,35
1766015785.800533,35
1766015785.800537,35
1766015785.800541,34
1766015785.800546,35
1766015785.80055,33
1766015785.800554,36
1766015785.800559,35
1766015785.8005629,36
1766015785.8005672,37
1766015785.800572,37
1766015785.800576,33
1766015785.80058,35
1766015785.800585,34
1766015785.800589,35
1766015785.8005939,40
1766015785.800598,42
1766015785.8006022,47
1766015785.800607,49
1766015785.800611,50
1766015785.8006148,52
1766015785.80062,50
1766015785.8006241,53
1766015785.800628,51
1766015785.800632,51
1766015785.800637,50
1766015785.800641,55
1766015785.8006458,53
1766015785.80065,54
1766015785.80066,52
1766015785.800664,53
1766015785.80067,56
1766015785.800674,55
1766015785.8006778,57
1766015785.800683,57
1766015785.800687,59
1766015785.800691,59
1766015785.8006961,59
1766015785.8007,63
1766015785.800705,62
1766015785.800709,66
1766015785.800713,61
1766015785.800718,63
1766015785.800722,62
1766015785.800726,63
1766015785.800731,62
1766015785.800735,59
1766015785.800739,59
1766015785.8007438,59
1766015785.800748,63
1766015785.8007522,59
1766015785.800757,59
1766015785.800761,62
1766015785.800765,58
1766015785.80077,58
1766015785.8007739,59
1766015785.800779,60
1766015785.8007832,60
1766015785.800787,60
1766015785.800792,58
1766015785.8007958,59
1766015785.8008,62
1766015785.800805,58
1766015785.800815,60
1766015785.800819,62
1766015785.8008242,59
1766015785.800828,57
1766015785.800833,59
1766015785.800837,59
1766015785.800842,58
1766015785.800846,61
1766015785.80085,59
1766015785.800855,55
1766015785.800859,54
1766015785.800863,56
1766015785.800868,53
1766015785.8008718,53
1766015785.8008761,52
1766015785.800881,53
1766015785.800885,49
1766015785.8008902,51
1766015785.800894,52
1766015785.800898,52
1766015785.8009028,53
1766015785.800907,50
1766015785.8009112,51
1766015785.800916,50
1766015785.80092,47
1766015785.8009238,48
1766015785.800929,50
1766015785.8009331,51
1766015785.800937,46
1766015785.8009422,48
1766015785.800946,44
1766015785.80095,47
1766015785.8009548,49
1766015785.8009589,47
1766015785.8009658,48
1766015785.80097,49
1766015785.800978,48
1766015785.8009841,51
1766015785.8009899,54
1766015785.800996,55
1766015785.801002,54
1766015785.801009,55
1766015785.8010151,53
1766015785.8010209,55
1766015785.801027,53
1766015785.801033,54
1766015785.8010392,56
1766015785.801045,56
1766015785.801051,58
1766015785.801057,55
1766015785.8010628,53
1766015785.801069,54
1766015785.801075,53
1766015785.8010812,55
1766015785.801085,52
1766015785.80109,54
1766015785.8010938,51
1766015785.8010979,50
1766015785.801103,54
1766015785.801107,52
1766015785.801111,51
1766015785.801116,54
1766015785.801127,52
1766015785.801131,51
1766015785.801135,50
1766015785.801141,51
1766015785.801146,53
1766015785.801151,56
1766015785.801158,52
1766015785.801162,52
1766015785.801167,51
1766015785.801173,52
1766015785.801177,51
1766015785.8011808,50
1766015785.801186,50
1766015785.80119,51
1766015785.801195,50
1766015785.8011992,50
1766015785.801203,48
1766015785.801208,49
1766015785.8012118,48
1766015785.801216,47
1766015785.8012211,48
1766015785.801225,49
1766015785.801229,49
1766015785.801234,48
1766015785.801239,48
1766015785.801244,48
1766015785.801249,47
1766015785.801253,45
1766015785.801258,44
1766015785.801263,48
1766015785.8012679,46
1766015785.8012722,45
1766015785.801277,45
1766015785.8012888,45
1766015785.801294,43
1766015785.8012989,43
1766015785.801305,45
1766015785.801311,44
1766015785.801316,40
1766015785.801321,44
1766015785.801327,45
1766015785.801337,50
1766015785.801343,47
1766015785.8013499,46
1766015785.8013551,47
1766015785.80136,45
1766015785.801365,46
1766015785.8013701,48
1766015785.801374,48
1766015785.801379,48
1766015785.801384,47
1766015785.801389,50
1766015785.801394,49
1766015785.801398,48
1766015785.8014028,47
1766015785.801408,50
1766015785.801413,51
1766015785.801418,53
1766015785.801423,49
1766015785.801427,51
1766015785.8014321,52
1766015785.801437,45
1766015785.801443,49
1766015785.801449,50
1766015785.801455,51
1766015785.801461,48
1766015785.801467,48
1766015785.801472,51
1766015785.8014772,51
1766015785.801482,54
1766015785.801486,53
1766015785.801491,54
1766015785.801496,56
1766015785.801501,53
1766015785.801506,57
1766015785.801513,56
1766015785.801518,56
1766015785.8015249,53
1766015785.8015308,55
1766015785.801535,56
1766015785.8015401,53
1766015785.801546,55
1766015785.801551,55
1766015785.8015559,54
1766015785.801561,54
1766015785.801566,51
1766015785.8015711,53
1766015785.801576,52
1766015785.8015811,51
1766015785.801585,52
1766015785.801589,49
1766015785.801593,48
1766015785.8015978,51
1766015785.8016021,50
1766015785.801606,52
1766015785.801611,53
1766015785.801615,50
1766015785.801619,52
1766015785.801624,47
1766015785.8016279,50
1766015785.8016331,54
1766015785.8016372,52
1766015785.801641,52
1766015785.801666,52
1766015785.8016698,55
1766015785.801675,51
1766015785.8016791,55
1766015785.801683,53
1766015785.801687,52
1766015785.801693,53
1766015785.8016992,54
1766015785.801704,55
1766015785.8017101,51
1766015785.801714,47
1766015785.801718,52
1766015785.8017228,51
1766015785.801727,50
1766015785.801731,49
1766015785.8017359,51
1766015785.80174,51
1766015785.801744,49
1766015785.801748,48
1766015785.801753,50
1766015785.8017569,48
1766015785.801761,47
1766015785.801766,47
1766015785.80177,47
1766015785.801774,47
1766015785.801779,48
1766015785.801783,47
1766015785.801787,47
1766015785.801792,47
1766015785.8017962,42
1766015785.8018,44
1766015785.801805,47
1766015785.8018088,44
1766015785.801814,43
1766015785.8018181,42
1766015785.801822,43
1766015785.801826,44
1766015785.801831,44
1766015785.801835,41
1766015785.801839,42
1766015785.801844,40
1766015785.801853,44
1766015785.801858,43
1766015785.801862,41
1766015785.801868,40
1766015785.801873,41
1766015785.801877,41
1766015785.801881,46
1766015785.801885,37
1766015785.8018901,37
1766015785.801894,38
1766015785.801898,42
1766015785.801903,43
1766015785.801907,42
1766015785.801911,39
1766015785.801915,43
1766015785.80192,45
1766015785.801924,41
1766015785.801928,38
1766015785.801933,39
1766015785.8019369,39
1766015785.801941,47
1766015785.8019462,42
1766015785.801951,44
1766015785.8019562,44
1766015785.801961,46
1766015785.801965,43
1766015785.80197,43
1766015785.801975,47
1766015785.80198,46
1766015785.801984,45
1766015785.801989,42
1766015785.801994,42
1766015785.801999,44
1766015785.802003,42
1766015785.8020082,43
1766015785.802017,43
1766015785.802021,39
1766015785.802027,41
1766015785.802034,42
1766015785.8020391,41
1766015785.802044,41
1766015785.802048,40
1766015785.8020532,39
1766015785.802058,40
1766015785.802063,41
1766015785.802067,39
1766015785.802072,40
1766015785.8020768,40
1766015785.802081,39
1766015785.8020859,36
1766015785.8020911,38
1766015785.8020961,39
1766015785.802101,40
1766015785.8021052,37
1766015785.80211,34
1766015785.802115,39
1766015785.802119,36
1766015785.802124,36
1766015785.8021288,37
1766015785.802134,36
1766015785.802138,38
1766015785.8021429,36
1766015785.802148,34
1766015785.8021529,38
1766015785.802158,36
1766015785.802162,37
1766015785.802167,37
1766015785.802172,32
1766015785.802176,33
1766015785.802181,35
1766015785.80219,33
1766015785.802201,33
1766015785.8022091,33
1766015785.802217,34
1766015785.8022258,35
1766015785.8022342,33
1766015785.802242,34
1766015785.80225,36
1766015785.802259,32
1766015785.8022668,34
1766015785.8022752,35
1766015785.802283,33
1766015785.802291,34
1766015785.8022988,33
1766015785.802308,32
1766015785.802316,32
1766015785.802324,30
1766015785.802332,31
1766015785.80234,31
1766015785.802349,32
1766015785.802357,32
1766015785.802374,31
1766015785.8023832,34
1766015785.802391,33
1766015785.802399,31
1766015785.802409,32
1766015785.8024168,35
1766015785.8024251,31
1766015785.802434,34
1766015785.802442,30
1766015785.802453,30
1766015785.802461,34
1766015785.802469,31
1766015785.802484,32
1766015785.8024929,28
1766015785.8025012,33
1766015785.802509,32
1766015785.802517,33
1766015785.802525,34
1766015785.8025339,32
1766015785.802542,33
1766015785.80255,30
1766015785.802558,32
1766015785.8025658,35
1766015785.8025742,32
1766015785.802582,35
1766015785.802591,29
1766015785.802599,32
1766015785.802607,32
1766015785.8026161,33
1766015785.802624,34
1766015785.8026319,32
1766015785.80264,34
1766015785.802649,34
1766015785.8026571,34
1766015785.802665,32
1766015785.8026729,31
1766015785.802681,35
1766015785.80269,30
1766015785.802698,34
1766015785.802706,35
1766015785.802714,34
1766015785.802722,33
1766015785.80273,37
1766015785.802739,34
1766015785.8027468,35
1766015785.802757,33
1766015785.802766,31
1766015785.8027751,32
1766015785.802784,33
1766015785.8027918,31
1766015785.8028002,32
1766015785.802808,35
1766015785.802817,34
1766015785.802825,31
1766015785.8028328,29
1766015785.8028412,35
1766015785.802849,33
1766015785.802857,32
1766015785.8028648,35
1766015785.802874,34
1766015785.802882,36
1766015785.80289,32
1766015785.802898,34
1766015785.802907,34
1766015785.802915,36
1766015785.802923,36
1766015785.8029308,31
1766015785.80294,35
1766015785.802948,34
1766015785.802956,36
1766015785.802964,36
1766015785.8029718,37
1766015785.8029802,35
1766015785.802989,36
1766015785.8029969,32
1766015785.803005,32
1766015785.8030138,34
1766015785.8030221,36
1766015785.80303,36
1766015785.803044,33
1766015785.803054,35
1766015785.803062,35
1766015785.80307,34
1766015785.803078,34
1766015785.803087,38
1766015785.803095,37
1766015785.803103,36
1766015785.8031108,37
1766015785.8031192,34
1766015785.803127,35
1766015785.803135,36
1766015785.803143,36
1766015785.8031511,35
1766015785.80316,38
1766015785.803168,36
1766015785.803176,37
1766015785.803184,37
1766015785.8031948,36
1766015785.803203,36
1766015785.803211,35
1766015785.8032188,34
1766015785.803228,35
1766015785.803236,38
1766015785.803244,40
1766015785.803252,36
1766015785.8032598,38
1766015785.8032682,36
1766015785.803276,36
1766015785.803285,36
1766015785.803293,37
1766015785.803301,33
1766015785.803318,38
1766015785.803329,36
1766015785.8033369,37
1766015785.8033469,34
1766015785.803355,36
1766015785.803363,38
1766015785.8033721,36
1766015785.80338,37
1766015785.8033879,36
1766015785.803396,37
1766015785.803405,38
1766015785.803413,37
1766015785.803421,41
1766015785.8034291,36
1766015785.803437,38
1766015785.803445,37
1766015785.803454,40
1766015785.8034618,39
1766015785.8034718,36
1766015785.8034801,35
1766015785.803488,36
1766015785.803496,39
1766015785.8035042,36
1766015785.803513,35
1766015785.803521,40
1766015785.803529,40
1766015785.803537,40
1766015785.803545,37
1766015785.803553,37
1766015785.803562,40
1766015785.80357,38
1766015785.8035781,39
1766015785.803586,40
1766015785.8035939,38
1766015785.803602,37
1766015785.803613,39
1766015785.803623,36
1766015785.803631,40
1766015785.8036401,38
1766015785.803648,38
1766015785.8036559,40
1766015785.803664,39
1766015785.803673,39
1766015785.8036811,40
1766015785.803689,40
1766015785.8036969,36
1766015785.803705,35
1766015785.803714,36
1766015785.803722,35
1766015785.80373,40
1766015785.803741,36
1766015785.803749,35
1766015785.803757,36
1766015785.803765,41
1766015785.803773,37
1766015785.803782,39
1766015785.80379,40
1766015785.803798,38
1766015785.803806,39
1766015785.803814,35
1766015785.803823,35
1766015785.803831,39
1766015785.803839,39
1766015785.8038468,37
1766015785.803856,39
1766015785.803864,38
1766015785.803872,38
1766015785.80388,35
1766015785.803891,38
1766015785.8038988,36
1766015785.803908,35
1766015785.803916,39
1766015785.803925,36
1766015785.803933,38
1766015785.803942,39
1766015785.80395,39
1766015785.803958,39
1766015785.803966,37
1766015785.8039749,39
1766015785.8039832,39
1766015785.803991,38
1766015785.803999,36
1766015785.8040059,35
1766015785.804013,39
1766015785.804021,37
1766015785.8040278,34
1766015785.8040352,39
1766015785.804043,38
1766015785.80405,37
1766015785.8040571,36
1766015785.804065,37
1766015785.804072,38
1766015785.80408,35
1766015785.804087,35
1766015785.804095,36
1766015785.804102,32
1766015785.804109,33
1766015785.804117,40
1766015785.8041239,35
1766015785.804131,35
1766015785.804138,34
1766015785.8041458,34
1766015785.804159,34
1766015785.804168,35
1766015785.8041751,36
1766015785.804183,37
1766015785.80419,37
1766015785.8041978,37
1766015785.804205,34
1766015785.8042119,33
1766015785.80422,34
1766015785.804227,38
1766015785.804234,35
1766015785.804242,38
1766015785.804252,36
1766015785.804259,36
1766015785.804266,33
1766015785.8042738,35
1766015785.804281,34
1766015785.804288,36
1766015785.804296,33
1766015785.8043032,34
1766015785.804319,34
1766015785.8043258,35
1766015785.8043342,37
1766015785.804341,35
1766015785.804349,36
1766015785.804356,36
1766015785.804363,34
1766015785.8043709,35
1766015785.804378,35
1766015785.8043861,33
1766015785.804393,34
1766015785.8044002,36
1766015785.804408,33
1766015785.8044212,36
1766015785.804429,33
1766015785.804437,34
1766015785.804445,37
1766015785.8044522,34
1766015785.804459,35
1766015785.804467,32
1766015785.804474,33
1766015785.804482,33
1766015785.804489,37
1766015785.804497,32
1766015785.804506,35
1766015785.804514,33
1766015785.8045208,34
1766015785.804529,35
1766015785.804536,34
1766015785.804544,36
1766015785.804551,33
1766015785.804558,31
1766015785.804565,32
1766015785.8045728,35
1766015785.8045802,34
1766015785.804588,35
1766015785.804595,34
1766015785.8046021,33
1766015785.80461,35
1766015785.804617,32
1766015785.8046248,36
1766015785.804632,33
1766015785.8046389,34
1766015785.804647,34
1766015785.8046541,32
1766015785.804662,34
1766015785.804669,33
1766015785.804682,34
1766015785.80469,33
1766015785.804699,33
1766015785.804707,35
1766015785.804714,35
1766015785.8047209,32
1766015785.804729,37
1766015785.804736,34
1766015785.8047428,33
1766015785.8047528,34
1766015785.8047612,34
1766015785.804768,29
1766015785.804776,33
1766015785.804783,34
1766015785.80479,33
1766015785.804797,34
1766015785.804805,34
1766015785.804812,33
1766015785.80482,34
1766015785.804827,31
1766015785.8048341,32
1766015785.804841,31
1766015785.804849,30
1766015785.804856,33
1766015785.804863,30
1766015785.8048708,32
1766015785.804878,31
1766015785.804885,32
1766015785.804893,32
1766015785.8049002,34
1766015785.804907,33
1766015785.804915,30
1766015785.804922,32
1766015785.804929,31
1766015785.8049421,28
1766015785.80495,35
1766015785.804959,30
1766015785.804966,35
1766015785.804974,33
1766015785.804981,31
1766015785.804988,35
1766015785.805002,29
1766015785.805009,30
1766015785.805017,28
1766015785.805024,31
1766015785.8050308,30
1766015785.8050392,29
1766015785.805046,31
1766015785.805054,30
1766015785.805061,28
1766015785.805068,29
1766015785.805076,29
1766015785.8050828,32
1766015785.80509,31
1766015785.805098,28
1766015785.805105,28
1766015785.8051121,29
1766015785.805119,33
1766015785.805127,30
1766015785.805134,28
1766015785.805141,30
1766015785.8051488,30
1766015785.805156,29
1766015785.805163,28
1766015785.805171,29
1766015785.8051782,31
1766015785.805186,27
1766015785.805193,27
1766015785.805206,29
1766015785.805214,29
1766015785.8052218,27
1766015785.8052301,29
1766015785.805237,28
1766015785.805247,27
1766015785.805256,25
1766015785.805263,27
1766015785.8052711,25
1766015785.805278,25
1766015785.8052852,26
1766015785.805293,26
1766015785.8053,26
1766015785.805307,27
1766015785.805315,30
1766015785.805331,29
1766015785.8053381,27
1766015785.805346,29
1766015785.805353,26
1766015785.80536,31
1766015785.805368,26
1766015785.8053749,30
1766015785.8053818,28
1766015785.8053901,27
1766015785.805397,27
1766015785.805404,27
1766015785.805412,29
1766015785.805419,26
1766015785.805426,27
1766015785.8054342,28
1766015785.8054411,28
1766015785.8054478,27
1766015785.805456,27
1766015785.805463,25
1766015785.8054762,27
1766015785.805485,27
1766015785.805494,27
1766015785.805502,25
1766015785.805509,27
1766015785.805516,26
1766015785.8055239,25
1766015785.8055308,28
1766015785.8055391,27
1766015785.805546,25
1766015785.805554,25
1766015785.805561,25
1766015785.805569,26
1766015785.8055758,25
1766015785.805583,29
1766015785.805591,26
1766015785.805598,29
1766015785.8056052,28
1766015785.805613,28
1766015785.805621,28
1766015785.8056278,26
1766015785.805635,23
1766015785.805643,29
1766015785.80565,28
1766015785.8056571,25
1766015785.805665,27
1766015785.805672,26
1766015785.80568,26
1766015785.805687,27
1766015785.805695,24
1766015785.805702,24
1766015785.8057091,23
1766015785.805717,23
1766015785.805729,30
1766015785.805737,22
1766015785.8057458,26
1766015785.8057542,25
1766015785.805761,27
1766015785.805768,27
1766015785.805776,30
1766015785.805783,25
1766015785.80579,24
1766015785.8057978,28
1766015785.805805,24
1766015785.805812,24
1766015785.80582,27
1766015785.8058271,27
1766015785.805835,28
1766015785.805842,28
1766015785.805849,27
1766015785.805857,30
1766015785.8058639,26
1766015785.8058722,24
1766015785.805879,24
1766015785.805886,27
1766015785.8058932,27
1766015785.805901,25
1766015785.805908,26
1766015785.8059158,27
1766015785.805923,25
1766015785.805931,26
1766015785.805938,26
1766015785.8059452,27
1766015785.805952,26
1766015785.80596,24
1766015785.805967,24
1766015785.805975,24
1766015785.8059871,25
1766015785.805995,29
1766015785.8060029,27
1766015785.80601,25
1766015785.806018,27
1766015785.806025,28
1766015785.806033,28
1766015785.80604,26
1766015785.806047,25
1766015785.8060539,24
1766015785.806062,26
1766015785.806069,28
1766015785.8060758,23
1766015785.8060842,26
1766015785.806091,26
1766015785.806098,28
1766015785.806106,25
1766015785.806113,26
1766015785.80612,25
1766015785.806127,29
1766015785.806135,24
1766015785.8061419,27
1766015785.806149,27
1766015785.806157,26
1766015785.806164,25
1766015785.806171,28
1766015785.806179,27
1766015785.806186,28
1766015785.8061929,27
1766015785.806201,27
1766015785.806208,27
1766015785.8062148,30
1766015785.8062232,28
1766015785.80623,25
1766015785.8062432,27
1766015785.806251,24
1766015785.806259,27
1766015785.806266,26
1766015785.806273,28
1766015785.8062809,27
1766015785.8062878,29
1766015785.8062952,27
1766015785.806303,26
1766015785.80631,25
1766015785.806317,26
1766015785.8063328,29
1766015785.8063412,27
1766015785.806348,26
1766015785.806355,29
1766015785.8063629,25
1766015785.80637,28
1766015785.806377,29
1766015785.8063848,24
1766015785.806392,26
1766015785.8064,26
1766015785.806407,25
1766015785.8064141,27
1766015785.806422,27
1766015785.806429,26
1766015785.806436,27
1766015785.806444,28
1766015785.8064508,28
1766015785.806458,28
1766015785.806466,23
1766015785.806473,26
1766015785.806485,26
1766015785.8064919,27
1766015785.806499,28
1766015785.806512,25
1766015785.8065212,25
1766015785.806528,26
1766015785.806536,26
1766015785.806543,28
1766015785.80655,27
1766015785.806558,27
1766015785.806565,27
1766015785.806572,24
1766015785.80658,24
1766015785.806587,28
1766015785.8065941,24
1766015785.806602,26
1766015785.806609,24
1766015785.806616,25
1766015785.806624,29
1766015785.8066308,25
1766015785.806638,28
1766015785.806646,28
1766015785.806653,30
1766015785.8066611,28
1766015785.806668,28
1766015785.806675,27
1766015785.806682,29
1766015785.80669,25
1766015785.806697,28
1766015785.806705,27
1766015785.8067122,27
1766015785.8067222,26
1766015785.806729,27
1766015785.8067358,27
1766015785.806744,25
1766015785.806751,29
1766015785.8067641,28
1766015785.806772,29
1766015785.8067799,26
1766015785.806787,26
1766015785.806794,29
1766015785.806802,28
1766015785.8068092,25
1766015785.806817,27
1766015785.806824,26
1766015785.8068311,28
1766015785.806839,24
1766015785.806846,28
1766015785.806853,24
1766015785.8068612,28
1766015785.806868,26
1766015785.806876,28
1766015785.806883,27
1766015785.80689,27
1766015785.8068979,25
1766015785.806905,26
1766015785.806912,28
1766015785.80692,28
1766015785.8069272,26
1766015785.806935,25
1766015785.806942,29
1766015785.8069491,27
1766015785.806957,28
1766015785.806967,27
1766015785.806974,29
1766015785.8069818,28
1766015785.806989,27
1766015785.8069959,31
1766015785.8070028,28
1766015785.8070111,28
1766015785.8070211,31
1766015785.807029,29
1766015785.807038,27
1766015785.807046,29
1766015785.807053,26
1766015785.80706,31
1766015785.8070679,29
1766015785.807075,28
1766015785.807082,26
1766015785.8070898,28
1766015785.8070972,31
1766015785.807104,30
1766015785.807112,27
1766015785.8071191,30
1766015785.807126,27
1766015785.807134,30
1766015785.807141,29
1766015785.807148,32
1766015785.807156,29
1766015785.8071628,28
1766015785.8071702,30
1766015785.807177,29
1766015785.807185,30
1766015785.807192,28
1766015785.807199,29
1766015785.807209,29
1766015785.807217,28
1766015785.807224,29
1766015785.807231,27
1766015785.8072388,30
1766015785.807246,29
1766015785.807253,30
1766015785.807261,28
1766015785.8072681,27
1766015785.8072808,33
1766015785.80729,30
1766015785.807297,30
1766015785.8073049,29
1766015785.8073118,27
1766015785.807319,29
1766015785.807335,30
1766015785.807343,30
1766015785.80735,27
1766015785.807358,29
1766015785.8073652,30
1766015785.807373,25
1766015785.807381,33
1766015785.8073878,30
1766015785.807395,30
1766015785.807403,32
1766015785.80741,27
1766015785.807418,30
1766015785.807425,28
1766015785.807432,27
1766015785.8074398,30
1766015785.8074508,29
1766015785.807459,33
1766015785.807466,28
1766015785.807473,31
1766015785.807481,31
1766015785.807488,29
1766015785.8074958,29
1766015785.807503,31
1766015785.80751,29
1766015785.807518,28
1766015785.8075252,30
1766015785.807532,33
1766015785.8075452,32
1766015785.807553,28
1766015785.8075619,33
1766015785.80757,29
1766015785.8075771,28
1766015785.807584,28
1766015785.807592,28
1766015785.807599,32
1766015785.807606,28
1766015785.807613,30
1766015785.807621,34
1766015785.807628,28
1766015785.8076348,30
1766015785.807643,28
1766015785.80765,30
1766015785.807658,30
1766015785.8076649,31
1766015785.807672,31
1766015785.807679,28
1766015785.8076868,32
1766015785.8076942,32
1766015785.807701,32
1766015785.807709,29
1766015785.8077161,30
1766015785.807723,29
1766015785.807731,29
1766015785.807738,30
1766015785.807746,27
1766015785.8077528,30
1766015785.8077598,30
1766015785.807768,28
1766015785.807775,28
1766015785.807783,31
1766015785.807801,29
1766015785.807818,30
1766015785.807827,31
1766015785.8078358,29
1766015785.8078442,32
1766015785.807851,30
1766015785.807858,32
1766015785.807866,32
1766015785.807873,31
1766015785.80788,30
1766015785.8078878,28
1766015785.807895,30
1766015785.8079019,31
1766015785.80791,28
1766015785.807917,32
1766015785.807924,32
1766015785.807931,28
1766015785.807939,29
1766015785.807946,27
1766015785.807953,34
1766015785.807961,30
1766015785.807968,32
1766015785.8079748,30
1766015785.807982,32
1766015785.80799,29
1766015785.807997,32
1766015785.8080041,28
1766015785.808012,31
1766015785.808019,29
1766015785.808026,28
1766015785.808033,31
1766015785.8080409,31
1766015785.808048,29
1766015785.808055,31
1766015785.8080618,31
1766015785.808075,31
1766015785.808084,27
1766015785.8080919,30
1766015785.808099,33
1766015785.808106,32
1766015785.8081129,30
1766015785.8081212,33
1766015785.808128,30
1766015785.8081348,28
1766015785.8081431,36
1766015785.80815,35
1766015785.808157,29
1766015785.808165,34
1766015785.808172,31
1766015785.808179,33
1766015785.8081868,31
1766015785.8081942,34
1766015785.808201,31
1766015785.8082108,29
1766015785.808219,30
1766015785.808226,34
1766015785.808233,35
1766015785.8082402,34
1766015785.808248,30
1766015785.808255,32
1766015785.8082619,32
1766015785.808269,30
1766015785.808277,31
1766015785.8082838,29
1766015785.808291,31
1766015785.808299,35
1766015785.808306,32
1766015785.8083131,32
1766015785.80832,35
1766015785.808328,28
1766015785.8083441,31
1766015785.808351,30
1766015785.808359,30
1766015785.808366,33
1766015785.808373,28
1766015785.8083808,29
1766015785.8083892,32
1766015785.808396,32
1766015785.808403,32
1766015785.808411,32
1766015785.808418,32
1766015785.808425,34
1766015785.8084328,33
1766015785.80844,34
1766015785.808447,33
1766015785.808455,36
1766015785.8084621,35
1766015785.808469,34
1766015785.808477,34
1766015785.808484,35
1766015785.808492,33
1766015785.8084989,37
1766015785.808506,37
1766015785.808513,35
1766015785.808521,35
1766015785.808528,36
1766015785.808535,37
1766015785.808543,39
1766015785.80855,37
1766015785.808557,37
1766015785.808565,38
1766015785.8085718,38
1766015785.808579,39
1766015785.808587,38
1766015785.808594,37
1766015785.8086011,35
1766015785.808609,38
1766015785.808616,39
1766015785.808623,38
1766015785.808631,37
1766015785.8086379,35
1766015785.808645,37
1766015785.808652,37
1766015785.80866,40
1766015785.808667,38
1766015785.808674,38
1766015785.808682,37
1766015785.8086889,38
1766015785.808696,39
1766015785.808704,38
1766015785.8087108,38
1766015785.808718,43
1766015785.808726,41
1766015785.808733,38
1766015785.8087401,39
1766015785.808747,38
1766015785.808755,37
1766015785.808762,39
1766015785.808769,35
1766015785.808776,36
1766015785.8087838,41
1766015785.808791,39
1766015785.8087978,39
1766015785.808806,39
1766015785.808813,43
1766015785.80882,42
1766015785.8088279,40
1766015785.808835,40
1766015785.808842,40
1766015785.8088498,39
1766015785.8088572,40
1766015785.808865,37
1766015785.808872,39
1766015785.80888,40
1766015785.808887,39
1766015785.808894,43
1766015785.8089018,42
1766015785.808909,39
1766015785.8089159,41
1766015785.8089259,43
1766015785.808933,40
1766015785.8089411,41
1766015785.808948,41
1766015785.808955,43
1766015785.808963,44
1766015785.80897,45
1766015785.8089778,40
1766015785.808985,42
1766015785.808992,42
1766015785.809,41
1766015785.8090072,43
1766015785.809014,42
1766015785.809022,40
1766015785.809029,40
1766015785.809036,43
1766015785.809043,41
1766015785.8090508,44
1766015785.809058,43
1766015785.8090649,45
1766015785.809073,46
1766015785.8090801,46
1766015785.809087,41
1766015785.809094,43
1766015785.809102,47
1766015785.809109,44
1766015785.809116,42
1766015785.809124,43
1766015785.809131,43
1766015785.8091378,42
1766015785.8091462,43
1766015785.809153,43
1766015785.809163,43
1766015785.80917,44
1766015785.809183,41
1766015785.8091898,45
1766015785.8091981,46
1766015785.809205,44
1766015785.809213,45
1766015785.80922,47
1766015785.809227,43
1766015785.809234,43
1766015785.809242,46
1766015785.809249,50
1766015785.8092558,47
1766015785.809263,47
1766015785.809271,46
1766015785.809278,47
1766015785.8092852,47
1766015785.809293,48
1766015785.8093,48
1766015785.8093069,46
1766015785.809314,45
1766015785.8093219,45
1766015785.8093288,47
1766015785.809336,48
1766015785.809352,46
1766015785.809359,48
1766015785.809366,47
1766015785.8093739,46
1766015785.809381,47
1766015785.80939,45
1766015785.809398,48
1766015785.8094049,45
1766015785.809412,47
1766015785.80942,45
1766015785.809427,48
1766015785.8094342,47
1766015785.809441,47
1766015785.809449,49
1766015785.809456,44
1766015785.809463,45
1766015785.80947,47
1766015785.8094778,45
1766015785.809485,44
1766015785.8094919,48
1766015785.8095,45
1766015785.8095071,44
1766015785.809515,40
1766015785.809522,43
1766015785.809529,43
1766015785.809537,44
1766015785.8095438,45
1766015785.809552,45
1766015785.809559,40
1766015785.809566,42
1766015785.809574,41
1766015785.809581,42
1766015785.809589,42
1766015785.8095958,39
1766015785.809603,43
1766015785.809611,44
1766015785.809619,44
1766015785.809626,39
1766015785.809633,42
1766015785.809641,41
1766015785.809651,41
1766015785.80966,42
1766015785.809667,41
1766015785.809674,43
1766015785.809682,43
1766015785.809689,43
1766015785.809696,42
1766015785.8097029,43
1766015785.8097112,42
1766015785.8097181,42
1766015785.809726,44
1766015785.8097332,39
1766015785.80974,43
1766015785.809748,44
1766015785.8097548,42
1766015785.809762,43
1766015785.8097699,42
1766015785.8097768,43
1766015785.8097842,41
1766015785.809791,42
1766015785.809799,42
1766015785.809806,41
1766015785.809813,46
1766015785.80982,40
1766015785.809828,42
1766015785.809835,43
1766015785.8098428,43
1766015785.8098502,40
1766015785.8098571,46
1766015785.809865,41
1766015785.8098729,45
1766015785.80988,44
1766015785.809887,44
1766015785.8098938,42
1766015785.8099,44
1766015785.809907,40
1766015785.809914,44
1766015785.80992,43
1766015785.809927,42
1766015785.810414,44
1766015785.811431,40
1766015785.812444,43
1766015785.813478,43
1766015785.814455,42
1766015785.815451,44
1766015785.816412,41
1766015785.817473,41
1766015785.81846,38
1766015785.819453,42
1766015785.820469,39
1766015785.8214898,38
1766015785.822486,42
1766015785.823494,41
1766015785.824517,44
1766015785.825502,42
1766015785.826433,41
1766015785.827502,43
1766015785.828506,44
1766015785.829521,44
1766015785.830521,41
1766015785.83152,42
1766015785.832514,41
1766015785.8335118,39
1766015785.834475,43
1766015785.835505,40
1766015785.836478,39
1766015785.837506,41
1766015785.8384829,43
1766015785.839473,40
1766015785.84053,39
1766015785.841507,37
1766015785.842526,39
1766015785.843513,37
1766015785.8445382,39
1766015785.845574,41
1766015785.8465579,41
1766015785.8475342,36
1766015785.848545,39
1766015785.849521,39
1766015785.85054,37
1766015785.851567,37
1766015785.852559,38
1766015785.8535511,40
1766015785.8545952,37
1766015785.8555672,37
1766015785.856577,39
1766015785.8575768,36
1766015785.858592,35
1766015785.859603,35
1766015785.8605802,36
1766015785.861575,38
1766015785.862589,39
1766015785.86359,38
1766015785.864597,36
1766015785.86558,35
1766015785.8665931,35
1766015785.867618,35
1766015785.8686101,35
1766015785.8696132,34
1766015785.870618,36
1766015785.8716228,37
1766015785.872622,36
1766015785.873618,35
1766015785.8745952,38
1766015785.875608,36
1766015785.876617,37
1766015785.877621,36
1766015785.878637,35
1766015785.879624,36
1766015785.880623,33
1766015785.881634,33
1766015785.882645,34
1766015785.883649,35
1766015785.884653,37
1766015785.885628,37
1766015785.8866508,38
1766015785.887653,37
1766015785.8886468,34
1766015785.889666,35
1766015785.890655,35
1766015785.891642,36
1766015785.8926651,34
1766015785.89368,37
1766015785.8946571,35
1766015785.89566,35
1766015785.896678,35
1766015785.897683,36
1766015785.89869,34
1766015785.899675,33
1766015785.9006531,33
1766015785.901678,33
1766015785.9026859,31
1766015785.903693,32
1766015785.904693,34
1766015785.9057028,33
1766015785.906697,34
1766015785.907704,35
1766015785.90868,35
1766015785.909771,35
1766015785.910678,33
1766015785.911699,34
1766015785.912661,33
1766015785.9137301,30
1766015785.914675,33
1766015785.915713,33
1766015785.916673,34
1766015785.917705,35
1766015785.9187121,29
1766015785.9197068,34
1766015785.9207098,34
1766015785.921717,34
1766015785.922749,30
1766015785.923732,31
1766015785.924701,27
1766015785.925738,30
1766015785.926732,31
1766015785.927734,29
1766015785.928756,33
1766015785.929735,30
1766015785.930743,30
1766015785.931773,30
1766015785.932749,28
1766015785.9337559,30
1766015785.9347541,30
1766015785.9357529,29
1766015785.9367192,30
1766015785.937776,27
1766015785.938771,31
1766015785.939772,29
1766015785.9407659,29
1766015785.941731,29
1766015785.942795,29
1766015785.943789,31
1766015785.944781,30
1766015785.945811,27
1766015785.9467578,31
1766015785.947812,30
1766015785.948797,32
1766015785.949812,26
1766015785.950763,28
1766015785.9517949,28
1766015785.952805,31
1766015785.953805,31
1766015785.9547698,29
1766015785.9557812,28
1766015785.956792,28
1766015785.9578,30
1766015785.958818,26
1766015785.959821,31
1766015785.960822,27
1766015785.961827,30
1766015785.962829,28
1766015785.963839,31
1766015785.964839,27
1766015785.9658701,29
1766015785.96684,30
1766015785.967836,30
1766015785.968835,26
1766015785.969837,26
1766015785.9708722,28
1766015785.9718232,29
1766015785.972833,28
1766015785.973815,28
1766015785.9748218,28
1766015785.975839,27
1766015785.976827,28
1766015785.977858,28
1766015785.97887,27
1766015785.9798772,28
1766015785.980876,27
1766015785.981868,28
1766015785.982867,27
1766015785.983883,26
1766015785.9848828,25
1766015785.985888,24
1766015785.98689,26
1766015785.987904,26
1766015785.988907,26
1766015785.98993,25
1766015785.990921,26
1766015785.991915,26
1766015785.992915,29
1766015785.9939132,25
1766015785.9949188,31
1766015785.995923,27
1766015785.9969249,29
1766015785.997925,26
1766015785.998955,25
1766015785.999944,27
1766015786.0009348,28
1766015786.00194,28
1766015786.0029519,26
1766015786.003948,27
1766015786.004947,23
1766015786.005932,27
1766015786.0069451,27
1766015786.00793,30
1766015786.008947,28
1766015786.0099468,26
1766015786.0109582,30
1766015786.011948,27
1766015786.012952,26
1766015786.013968,26
1766015786.014969,29
1766015786.0159738,25
1766015786.0169861,26
1766015786.0179799,30
1766015786.018977,26
1766015786.019992,30
1766015786.020999,29
1766015786.021974,25
1766015786.022975,24
1766015786.0239942,24
1766015786.025009,29
1766015786.026012,29
1766015786.0270112,29
1766015786.02799,25
1766015786.028981,29
1766015786.029971,24
1766015786.0309691,28
1766015786.0319932,26
1766015786.032984,28
1766015786.0339808,27
1766015786.034976,27
1766015786.035989,24
1766015786.036993,27
1766015786.038015,28
1766015786.038993,27
1766015786.040031,27
1766015786.0409951,26
1766015786.042006,29
1766015786.043015,29
1766015786.0440462,26
1766015786.045079,26
1766015786.046047,27
1766015786.047035,25
1766015786.048048,29
1766015786.049083,27
1766015786.05008,27
1766015786.05109,28
1766015786.052086,28
1766015786.0530949,30
1766015786.054098,24
1766015786.055104,27
1766015786.056095,29
1766015786.057101,28
1766015786.0580852,29
1766015786.059082,28
1766015786.060104,26
1766015786.06111,27
1766015786.0621061,25
1766015786.063107,26
1766015786.064105,25
1766015786.0651038,26
1766015786.066102,25
1766015786.0671282,28
1766015786.068125,25
1766015786.0691268,28
1766015786.070126,25
1766015786.071135,27
1766015786.072138,22
1766015786.0731342,26
1766015786.074142,28
1766015786.075142,24
1766015786.076135,23
1766015786.077228,23
1766015786.078145,25
1766015786.079137,26
1766015786.080145,24
1766015786.081089,24
1766015786.0821362,26
1766015786.083145,25
1766015786.084146,25
1766015786.085114,28
1766015786.086114,25
1766015786.0871181,25
1766015786.088156,27
1766015786.089155,25
1766015786.09022,27
1766015786.0911639,23
1766015786.092135,26
1766015786.093171,26
1766015786.0942159,22
1766015786.095247,25
1766015786.096292,24
1766015786.097256,27
1766015786.098258,26
1766015786.099253,26
1766015786.1002681,24
1766015786.101253,23
1766015786.1022668,28
1766015786.1032588,26
1766015786.104223,26
1766015786.105257,23
1766015786.10626,25
1766015786.107263,24
1766015786.108269,26
1766015786.109261,26
1766015786.110274,27
1766015786.111261,26
1766015786.112258,27
1766015786.113287,23
1766015786.1142569,26
1766015786.11528,26
1766015786.116269,27
1766015786.117276,27
1766015786.118272,28
1766015786.1192708,25
1766015786.1202838,25
1766015786.121269,27
1766015786.12228,26
1766015786.1232698,23
1766015786.1242769,27
1766015786.1252701,25
1766015786.126274,26
1766015786.1272829,25
1766015786.128289,25
1766015786.129281,25
1766015786.1302788,27
1766015786.131285,25
1766015786.132304,26
1766015786.133298,25
1766015786.134312,24
1766015786.135293,30
1766015786.1362932,26
1766015786.137304,31
1766015786.138316,29
1766015786.139314,27
1766015786.140318,29
1766015786.14133,31
1766015786.142324,28
1766015786.143327,29
1766015786.144332,27
1766015786.145327,26
1766015786.1463292,27
1766015786.1473432,29
1766015786.1483352,31
1766015786.1493561,28
1766015786.150336,27
1766015786.151346,26
1766015786.15235,24
1766015786.153366,28
1766015786.1543381,28
1766015786.155355,29
1766015786.156375,29
1766015786.1573498,27
1766015786.158375,27
1766015786.159348,25
1766015786.160379,26
1766015786.161375,26
1766015786.162379,26
1766015786.1633909,29
1766015786.164395,30
1766015786.1653929,25
1766015786.166386,25
1766015786.167398,27
1766015786.1684082,24
1766015786.169399,27
1766015786.1704068,26
1766015786.171402,27
1766015786.172398,27
1766015786.173406,28
1766015786.174398,25
1766015786.175415,27
1766015786.176414,27
1766015786.1774158,27
1766015786.178427,24
1766015786.179431,26
1766015786.1804311,26
1766015786.181419,24
1766015786.182441,28
1766015786.183431,24
1766015786.184433,23
1766015786.185444,26
1766015786.186444,26
1766015786.187459,26
1766015786.18845,27
1766015786.189466,24
1766015786.1904662,28
1766015786.1914618,26
1766015786.192467,24
1766015786.1934688,29
1766015786.194468,26
1766015786.195489,26
1766015786.1964722,25
1766015786.19748,25
1766015786.198482,26
1766015786.1994932,23
1766015786.200501,26
1766015786.2015018,25
1766015786.202507,28
1766015786.203518,28
1766015786.204515,24
1766015786.20552,27
1766015786.206497,25
1766015786.2075222,28
1766015786.2085178,28
1766015786.209522,27
1766015786.210521,27
1766015786.21153,27
1766015786.212539,28
1766015786.21355,32
1766015786.214528,31
1766015786.215552,32
1766015786.2165499,30
1766015786.217542,33
1766015786.218554,30
1766015786.219557,34
1766015786.2205608,34
1766015786.2215629,32
1766015786.2225752,34
1766015786.223576,34
1766015786.22457,37
1766015786.225559,34
1766015786.226567,35
1766015786.227577,36
1766015786.2285702,34
1766015786.229571,36
1766015786.230591,39
1766015786.231591,42
1766015786.2326,47
1766015786.2335942,47
1766015786.2345972,46
1766015786.2355971,51
1766015786.236601,48
1766015786.237618,48
1766015786.238608,50
1766015786.239617,50
1766015786.240602,49
1766015786.2416,48
1766015786.2426188,47
1766015786.243614,48
1766015786.2446249,51
1766015786.2456262,50
1766015786.246644,46
1766015786.247661,49
1766015786.2486231,50
1766015786.249652,50
1766015786.250635,48
1766015786.251643,47
1766015786.2526379,51
1766015786.253644,51
1766015786.254656,50
1766015786.25566,56
1766015786.256652,54
1766015786.257657,64
1766015786.258667,67
1766015786.259655,77
1766015786.260674,84
1766015786.261656,89
1766015786.262659,92
1766015786.263656,96
1766015786.26469,98
1766015786.2656682,98
1766015786.2666721,96
1766015786.267684,99
1766015786.268688,99
1766015786.2696939,97
1766015786.2706969,97
1766015786.271698,90
1766015786.2726989,93
1766015786.273702,95
1766015786.274708,93
1766015786.275711,94
1766015786.276721,99
1766015786.2778292,107
1766015786.278808,113
1766015786.279814,121
1766015786.280816,134
1766015786.2818189,148
1766015786.2828228,161
1766015786.2838259,174
1766015786.284829,185
1766015786.2858229,186
1766015786.286829,185
1766015786.287829,183
1766015786.288836,180
1766015786.289834,181
1766015786.290837,181
1766015786.291847,182
1766015786.292855,181
1766015786.293854,178
1766015786.294863,179
1766015786.29585,177
1766015786.296854,178
1766015786.297871,177
1766015786.298838,184
1766015786.299847,191
1766015786.300847,195
1766015786.301839,200
1766015786.302837,207
1766015786.303877,209
1766015786.3048499,206
1766015786.30585,205
1766015786.30685,208
1766015786.307863,204
1766015786.308863,205
1766015786.30987,209
1766015786.31087,221
1766015786.311867,237
1766015786.312871,256
1766015786.313876,276
1766015786.314869,294
1766015786.315873,307
1766015786.316875,305
1766015786.317887,299
1766015786.3189352,294
1766015786.319938,301
1766015786.3209379,298
1766015786.321933,296
1766015786.322942,295
1766015786.323949,291
1766015786.3249521,290
1766015786.325963,290
1766015786.3269591,292
1766015786.327968,294
1766015786.3289611,297
1766015786.3299682,302
1766015786.330969,301
1766015786.33197,296
1766015786.332972,298
1766015786.333972,301
1766015786.334974,298
1766015786.335977,297
1766015786.336981,294
1766015786.337982,291
1766015786.33899,287
1766015786.339991,289
1766015786.340995,286
1766015786.341988,289
1766015786.342989,295
1766015786.343989,294
1766015786.344994,291
1766015786.346022,285
1766015786.3470132,285
1766015786.348015,280
1766015786.349002,283
1766015786.350005,295
1766015786.35102,319
1766015786.352013,341
1766015786.353012,365
1766015786.3540301,392
1766015786.3550231,403
1766015786.356025,403
1766015786.357025,406
1766015786.358034,403
1766015786.359046,397
1766015786.3600261,392
1766015786.361065,393
1766015786.362064,387
1766015786.363062,384
1766015786.36407,381
1766015786.365067,375
1766015786.366059,374
1766015786.36707,370
1766015786.3680792,368
1766015786.369092,370
1766015786.370068,371
1766015786.371072,367
1766015786.3720782,358
1766015786.373087,358
1766015786.374092,359
1766015786.375052,352
1766015786.376065,351
1766015786.377099,348
1766015786.3780851,341
1766015786.3790898,338
1766015786.380086,337
1766015786.381091,331
1766015786.382087,325
1766015786.383102,326
1766015786.3841002,322
1766015786.385101,328
1766015786.386095,329
1766015786.387102,329
1766015786.3881128,325
1766015786.3891132,323
1766015786.390121,320
1766015786.3911061,322
1766015786.392131,320
1766015786.393125,317
1766015786.394131,317
1766015786.395136,314
1766015786.396137,308
1766015786.397137,307
1766015786.398132,303
1766015786.399136,301
1766015786.4001548,292
1766015786.401143,292
1766015786.4021518,284
1766015786.403158,283
1766015786.404164,279
1766015786.4051578,280
1766015786.406168,273
1766015786.4071622,277
1766015786.408177,282
1766015786.409172,287
1766015786.41017,293
1766015786.411173,296
1766015786.412181,296
1766015786.413187,294
1766015786.414272,295
1766015786.415186,299
1766015786.416267,296
1766015786.41727,295
1766015786.4182699,292
1766015786.419282,290
1766015786.4202712,285
1766015786.421265,286
1766015786.42227,285
1766015786.4232671,285
1766015786.424268,285
1766015786.425272,284
1766015786.4262662,284
1766015786.427263,290
1766015786.428267,287
1766015786.429261,282
1766015786.430262,282
1766015786.4312608,277
1766015786.432266,273
1766015786.433274,273
1766015786.4342642,267
1766015786.435267,267
1766015786.436269,260
1766015786.437273,259
1766015786.4382641,256
1766015786.439266,255
1766015786.4402611,251
1766015786.4412632,253
1766015786.442267,250
1766015786.443276,248
1766015786.444268,248
1766015786.445266,246
1766015786.4462662,251
1766015786.447268,249
1766015786.448272,246
1766015786.449279,241
1766015786.4502919,240
1766015786.4512908,239
1766015786.452275,231
1766015786.4532852,232
1766015786.454292,226
1766015786.45529,231
1766015786.4563031,233
1766015786.457299,237
1766015786.458314,240
1766015786.459289,238
1766015786.4603,239
1766015786.461302,236
1766015786.462301,234
1766015786.463331,233
1766015786.464315,228
1766015786.465323,226
1766015786.466319,225
1766015786.46733,221
1766015786.468313,219
1766015786.469332,218
1766015786.470309,214
1766015786.4713368,212
1766015786.472348,213
1766015786.473328,211
1766015786.474321,205
1766015786.4753542,205
1766015786.476334,205
1766015786.47734,205
1766015786.478344,203
1766015786.47935,205
1766015786.480364,204
1766015786.481363,206
1766015786.482362,209
1766015786.483371,205
1766015786.484355,204
1766015786.4853592,203
1766015786.4863749,197
1766015786.487391,198
1766015786.488374,195
1766015786.489373,192
1766015786.490392,193
1766015786.49139,189
1766015786.492374,194
1766015786.493388,194
1766015786.4943879,196
1766015786.495402,196
1766015786.496395,196
1766015786.497411,195
1766015786.4984078,193
1766015786.4993951,191
1766015786.500396,191
1766015786.5014,186
1766015786.5024068,184
1766015786.503422,185
1766015786.504417,183
1766015786.505426,182
1766015786.506421,182
1766015786.5074282,184
1766015786.508432,188
1766015786.509425,189
1766015786.510437,186
1766015786.511437,190
1766015786.5124469,191
1766015786.5134609,193
1766015786.514467,196
1766015786.515458,200
1766015786.5164459,195
1766015786.51745,194
1766015786.518463,193
1766015786.51947,190
1766015786.520475,191
1766015786.521486,189
1766015786.522479,187
1766015786.5234728,186
1766015786.5244749,186
1766015786.525494,183
1766015786.526486,180
1766015786.527488,177
1766015786.528488,178
1766015786.529484,174
1766015786.530509,172
1766015786.531513,172
1766015786.5324988,170
1766015786.5335062,169
1766015786.5345201,164
1766015786.5355241,162
1766015786.536514,161
1766015786.537531,159
1766015786.538524,158
1766015786.539531,156
1766015786.540521,153
1766015786.541535,152
1766015786.54255,154
1766015786.5435321,156
1766015786.54454,158
1766015786.5455449,156
1766015786.546564,155
1766015786.547555,154
1766015786.5485399,152
1766015786.549578,148
1766015786.550556,149
1766015786.551562,149
1766015786.552565,145
1766015786.553571,147
1766015786.554569,144
1766015786.55558,145
1766015786.556586,151
1766015786.557596,159
1766015786.558594,167
1766015786.5596,176
1766015786.560593,177
1766015786.561595,176
1766015786.562594,178
1766015786.5636108,177
1766015786.564596,173
1766015786.565609,174
1766015786.566606,175
1766015786.567611,174
1766015786.568615,170
1766015786.5696042,169
1766015786.570622,168
1766015786.5716171,168
1766015786.572615,164
1766015786.573607,166
1766015786.574612,162
1766015786.5756218,159
1766015786.5766258,157
1766015786.577631,154
1766015786.5786371,152
1766015786.579642,151
1766015786.58064,149
1766015786.581642,151
1766015786.5826392,153
1766015786.583641,148
1766015786.5846431,144
1766015786.585664,144
1766015786.586654,142
1766015786.587668,142
1766015786.5886679,140
1766015786.589668,139
1766015786.590674,138
1766015786.59165,135
1766015786.5926652,132
1766015786.5936599,133
1766015786.594686,127
1766015786.5956779,128
1766015786.596693,129
1766015786.5976782,130
1766015786.598681,126
1766015786.5996768,128
1766015786.6006799,127
1766015786.6016982,126
1766015786.602696,123
1766015786.6037078,122
1766015786.6046982,126
1766015786.6057029,125
1766015786.606718,131
1766015786.607723,136
1766015786.6086998,142
1766015786.609705,142
1766015786.61072,142
1766015786.611719,143
1766015786.6127172,141
1766015786.613727,142
1766015786.614728,139
1766015786.615732,137
1766015786.616727,139
1766015786.617724,142
1766015786.618731,143
1766015786.619731,142
1766015786.6207402,141
1766015786.621736,138
1766015786.622741,141
1766015786.623756,138
1766015786.624746,138
1766015786.625759,139
1766015786.6267562,138
1766015786.627767,140
1766015786.62877,138
1766015786.629759,138
1766015786.630761,138
1766015786.631775,136
1766015786.6327832,139
1766015786.633767,138
1766015786.6347678,139
1766015786.635775,136
1766015786.6367822,135
1766015786.637783,136
1766015786.638786,136
1766015786.6397882,132
1766015786.6408,132
1766015786.6418009,131
1766015786.6428108,131
1766015786.643808,130
1766015786.6448052,126
1766015786.645828,124
1766015786.646822,124
1766015786.6478322,123
1766015786.648812,125
1766015786.64984,125
1766015786.650835,122
1766015786.65182,126
1766015786.652828,127
1766015786.653845,129
1766015786.654849,127
1766015786.6558368,132
1766015786.656848,130
1766015786.657859,128
1766015786.658855,128
1766015786.659845,125
1766015786.660875,124
1766015786.661868,123
1766015786.6628659,123
1766015786.663862,119
1766015786.664861,119
1766015786.6658611,120
1766015786.666857,120
1766015786.667849,114
1766015786.668889,116
1766015786.669881,117
1766015786.670891,119
1766015786.671882,115
1766015786.672885,110
1766015786.673898,111
1766015786.674892,114
1766015786.675895,117
1766015786.6768901,115
1766015786.677891,116
1766015786.678905,116
1766015786.679905,115
1766015786.680901,118
1766015786.6819022,111
1766015786.6829062,116
1766015786.683923,112
1766015786.684902,111
1766015786.685923,109
1766015786.6869261,110
1766015786.6879191,108
1766015786.688927,107
1766015786.689928,105
1766015786.6909351,105
1766015786.69193,102
1766015786.6929479,102
1766015786.693932,104
1766015786.6949382,106
1766015786.695937,102
1766015786.696943,101
1766015786.697957,106
1766015786.6989582,103
1766015786.699966,103
1766015786.700952,105
1766015786.701955,101
1766015786.702958,103
1766015786.703968,104
1766015786.7049642,104
1766015786.7059782,103
1766015786.706978,101
1766015786.707998,102
1766015786.7089841,100
1766015786.709978,101
1766015786.710892,99
1766015786.711999,96
1766015786.712888,95
1766015786.713897,98
1766015786.7149,95
1766015786.7159019,96
1766015786.7169,95
1766015786.717933,95
1766015786.7189062,95
1766015786.7199092,95
1766015786.720921,94
1766015786.721927,97
1766015786.722934,91
1766015786.723934,93
1766015786.724928,95
1766015786.725933,95
1766015786.726948,94
1766015786.727941,93
1766015786.728946,92
1766015786.729951,92
1766015786.730945,91
1766015786.7319412,91
1766015786.73298,88
1766015786.733962,87
1766015786.734968,86
1766015786.735959,86
1766015786.736974,86
1766015786.7379751,87
1766015786.7389681,89
1766015786.7399738,86
1766015786.740986,86
1766015786.7419891,85
1766015786.7429812,83
1766015786.743992,85
1766015786.744993,84
1766015786.745975,87
1766015786.746989,83
1766015786.74801,81
1766015786.748992,83
1766015786.7500129,81
1766015786.751009,80
1766015786.752008,81
1766015786.753011,82
1766015786.754025,84
1766015786.755007,85
1766015786.756005,84
1766015786.7570162,86
1766015786.7580328,88
1766015786.7590458,88
1766015786.760024,90
1766015786.7610428,88
1766015786.762024,91
1766015786.763049,88
1766015786.7640262,91
1766015786.765059,91
1766015786.7660449,92
1766015786.767048,90
1766015786.7680562,85
