timestamp,emg_value
1766015914.3072839,45
1766015914.30729,47
1766015914.307295,44
1766015914.3073,49
1766015914.307306,49
1766015914.307311,48
1766015914.307316,49
1766015914.307321,50
1766015914.3073258,51
1766015914.307331,47
1766015914.3073359,46
1766015914.307341,48
1766015914.307345,46
1766015914.30735,48
1766015914.307355,46
1766015914.30736,47
1766015914.3073652,46
1766015914.30737,45
1766015914.3073752,45
1766015914.30738,43
1766015914.307384,46
1766015914.307389,47
1766015914.307394,46
1766015914.3073988,44
1766015914.307404,46
1766015914.3074088,42
1766015914.307414,44
1766015914.307418,42
1766015914.3074229,45
1766015914.3074281,44
1766015914.307433,43
1766015914.307437,46
1766015914.307445,44
1766015914.3074508,44
1766015914.307456,46
1766015914.307461,46
1766015914.307465,44
1766015914.30747,43
1766015914.3074749,41
1766015914.30748,46
1766015914.3074849,44
1766015914.30749,46
1766015914.307494,46
1766015914.307499,46
1766015914.3075042,42
1766015914.307509,43
1766015914.3075142,46
1766015914.307518,49
1766015914.307523,44
1766015914.307528,44
1766015914.307532,46
1766015914.3075368,44
1766015914.307542,43
1766015914.3075469,45
1766015914.307552,45
1766015914.3075562,44
1766015914.307561,42
1766015914.3075662,44
1766015914.307571,44
1766015914.307575,42
1766015914.30758,41
1766015914.307585,43
1766015914.3075898,41
1766015914.307595,42
1766015914.307599,42
1766015914.307629,41
1766015914.3076339,44
1766015914.3076391,40
1766015914.307644,41
1766015914.3076491,40
1766015914.307654,42
1766015914.307659,42
1766015914.307664,42
1766015914.307668,41
1766015914.307673,40
1766015914.307678,41
1766015914.307683,39
1766015914.30771,40
1766015914.3077152,42
1766015914.30772,40
1766015914.307724,41
1766015914.307729,44
1766015914.307734,44
1766015914.3077388,43
1766015914.307745,48
1766015914.307749,44
1766015914.307754,47
1766015914.307759,44
1766015914.307764,45
1766015914.307768,48
1766015914.3077729,45
1766015914.3077781,45
1766015914.307783,47
1766015914.307799,48
1766015914.3078039,46
1766015914.307809,49
1766015914.3078132,50
1766015914.307819,53
1766015914.3078249,56
1766015914.307831,53
1766015914.3078358,53
1766015914.307841,50
1766015914.3078458,50
1766015914.307851,52
1766015914.3078558,50
1766015914.307861,50
1766015914.307866,50
1766015914.3078709,48
1766015914.3078752,49
1766015914.307887,50
1766015914.307892,51
1766015914.307897,50
1766015914.3079019,50
1766015914.307907,50
1766015914.307911,47
1766015914.307916,47
1766015914.307921,50
1766015914.307926,45
1766015914.307931,49
1766015914.307936,52
1766015914.30794,51
1766015914.307945,49
1766015914.30795,47
1766015914.307955,45
1766015914.30796,47
1766015914.307965,49
1766015914.307969,49
1766015914.3079739,50
1766015914.307979,49
1766015914.307989,45
1766015914.3079941,48
1766015914.307999,50
1766015914.308009,45
1766015914.308015,47
1766015914.3080199,48
1766015914.3080251,44
1766015914.308029,46
1766015914.308034,46
1766015914.308039,47
1766015914.308044,44
1766015914.308049,44
1766015914.308053,43
1766015914.308058,44
1766015914.308063,44
1766015914.308068,43
1766015914.308073,42
1766015914.308078,44
1766015914.3080819,43
1766015914.308087,43
1766015914.3080919,41
1766015914.3080971,42
1766015914.3081012,44
1766015914.308106,43
1766015914.3081112,45
1766015914.308116,44
1766015914.3081212,43
1766015914.308126,45
1766015914.30813,45
1766015914.308146,44
1766015914.308152,42
1766015914.308193,41
1766015914.308198,43
1766015914.308203,40
1766015914.3082082,42
1766015914.308213,41
1766015914.308219,43
1766015914.308224,45
1766015914.3082292,45
1766015914.308234,45
1766015914.3082392,43
1766015914.308244,42
1766015914.308249,43
1766015914.3082528,45
1766015914.3082628,44
1766015914.308268,48
1766015914.3082728,42
1766015914.308278,44
1766015914.3082829,42
1766015914.308288,44
1766015914.3082922,43
1766015914.308297,44
1766015914.3083022,43
1766015914.308307,44
1766015914.308311,46
1766015914.308316,43
1766015914.308321,40
1766015914.308326,41
1766015914.308331,42
1766015914.308336,44
1766015914.30834,40
1766015914.308345,44
1766015914.3083498,39
1766015914.308355,43
1766015914.3083599,40
1766015914.308365,41
1766015914.308369,40
1766015914.308374,42
1766015914.308379,41
1766015914.308384,39
1766015914.30839,37
1766015914.308396,42
1766015914.3084009,41
1766015914.308406,41
1766015914.308411,40
1766015914.308415,38
1766015914.3084202,42
1766015914.308425,42
1766015914.3084302,38
1766015914.308435,37
1766015914.308439,36
1766015914.308444,36
1766015914.308449,38
1766015914.3084538,37
1766015914.308459,38
1766015914.308464,32
1766015914.308469,34
1766015914.308473,37
1766015914.3084779,38
1766015914.3084831,36
1766015914.308488,35
1766015914.308492,42
1766015914.308497,36
1766015914.308502,37
1766015914.308507,40
1766015914.308511,38
1766015914.308516,36
1766015914.308521,38
1766015914.308526,38
1766015914.308531,35
1766015914.308535,35
1766015914.3085399,37
1766015914.308545,36
1766015914.3085508,35
1766015914.308563,37
1766015914.308568,35
1766015914.3085718,36
1766015914.308577,37
1766015914.3085818,35
1766015914.308587,34
1766015914.308592,35
1766015914.308597,35
1766015914.3086011,35
1766015914.308606,35
1766015914.3086112,37
1766015914.308616,35
1766015914.3086212,33
1766015914.308625,33
1766015914.30863,34
1766015914.308635,35
1766015914.30864,36
1766015914.308644,31
1766015914.308649,37
1766015914.308654,35
1766015914.3086588,31
1766015914.308664,35
1766015914.3086689,34
1766015914.308673,33
1766015914.308678,33
1766015914.308683,32
1766015914.308688,31
1766015914.308693,35
1766015914.308697,32
1766015914.308702,32
1766015914.308707,35
1766015914.308712,32
1766015914.3087192,31
1766015914.308724,34
1766015914.3087292,30
1766015914.308734,31
1766015914.308738,32
1766015914.308743,33
1766015914.308748,31
1766015914.308753,30
1766015914.308757,31
1766015914.308762,31
1766015914.308767,30
1766015914.308772,32
1766015914.3087769,30
1766015914.308782,29
1766015914.3087869,29
1766015914.308791,31
1766015914.308796,30
1766015914.308801,28
1766015914.308806,28
1766015914.308811,29
1766015914.308815,30
1766015914.30882,29
1766015914.308825,28
1766015914.30883,27
1766015914.308835,29
1766015914.30884,30
1766015914.308844,26
1766015914.3088489,30
1766015914.308854,29
1766015914.3088589,25
1766015914.308863,27
1766015914.3088682,28
1766015914.308873,28
1766015914.308884,27
1766015914.30889,29
1766015914.3088949,28
1766015914.3088992,27
1766015914.308904,27
1766015914.308909,27
1766015914.308915,28
1766015914.3089201,25
1766015914.308924,29
1766015914.308929,28
1766015914.308934,30
1766015914.308939,23
1766015914.308944,26
1766015914.308949,25
1766015914.308954,26
1766015914.308958,29
1766015914.308963,28
1766015914.3089678,27
1766015914.308973,26
1766015914.3089778,27
1766015914.308983,26
1766015914.308987,26
1766015914.308995,26
1766015914.309,27
1766015914.309005,26
1766015914.3090088,28
1766015914.309014,27
1766015914.3090189,26
1766015914.309024,27
1766015914.309029,27
1766015914.3090339,27
1766015914.3090382,23
1766015914.309043,29
1766015914.3090508,25
1766015914.309056,28
1766015914.309061,25
1766015914.309066,27
1766015914.309071,25
1766015914.309076,29
1766015914.3090801,26
1766015914.309085,24
1766015914.3090901,27
1766015914.309095,25
1766015914.3091002,26
1766015914.3091042,26
1766015914.309109,25
1766015914.3091142,28
1766015914.309119,23
1766015914.309124,25
1766015914.309129,26
1766015914.309133,25
1766015914.3091378,26
1766015914.309143,24
1766015914.3091478,30
1766015914.309153,29
1766015914.3091578,23
1766015914.309163,25
1766015914.3091671,28
1766015914.309172,25
1766015914.3091772,23
1766015914.309182,26
1766015914.3091872,25
1766015914.309191,27
1766015914.309196,25
1766015914.309201,27
1766015914.309206,26
1766015914.3092108,26
1766015914.309218,25
1766015914.309223,27
1766015914.309228,26
1766015914.309233,23
1766015914.309238,22
1766015914.309242,28
1766015914.309247,26
1766015914.309252,26
1766015914.309257,29
1766015914.309262,25
1766015914.3092659,27
1766015914.309271,23
1766015914.3092759,24
1766015914.309281,26
1766015914.3092859,22
1766015914.30929,27
1766015914.3092952,24
1766015914.3093,27
1766015914.3093052,25
1766015914.30931,25
1766015914.309315,26
1766015914.309319,28
1766015914.309324,28
1766015914.3093288,28
1766015914.309334,27
1766015914.3093388,23
1766015914.3093429,25
1766015914.309348,25
1766015914.3093739,29
1766015914.30938,26
1766015914.309386,28
1766015914.30939,25
1766015914.3093948,22
1766015914.3094022,25
1766015914.309407,25
1766015914.309489,24
1766015914.3095129,25
1766015914.309524,26
1766015914.3095338,27
1766015914.3095438,25
1766015914.3095539,25
1766015914.3095639,27
1766015914.3095732,26
1766015914.3095832,23
1766015914.3095932,25
1766015914.309603,24
1766015914.309612,25
1766015914.309622,28
1766015914.3096309,25
1766015914.309641,27
1766015914.3096519,27
1766015914.309663,26
1766015914.309673,22
1766015914.3096828,25
1766015914.309692,23
1766015914.3097038,22
1766015914.309737,25
1766015914.309749,24
1766015914.309759,21
1766015914.309769,24
1766015914.309779,23
1766015914.309791,25
1766015914.309802,26
1766015914.309812,23
1766015914.309831,24
1766015914.309844,25
1766015914.30987,26
1766015914.3098829,25
1766015914.309896,24
1766015914.309907,24
1766015914.309917,22
1766015914.309927,25
1766015914.309939,24
1766015914.309951,24
1766015914.30997,26
1766015914.309976,25
1766015914.30998,22
1766015914.310004,23
1766015914.310014,23
1766015914.310024,25
1766015914.310034,23
1766015914.3100429,26
1766015914.310053,22
1766015914.3100622,26
1766015914.310076,24
1766015914.310087,25
1766015914.310097,25
1766015914.310106,23
1766015914.310116,26
1766015914.310133,24
1766015914.3101408,22
1766015914.310146,23
1766015914.310153,24
1766015914.310157,22
1766015914.3101618,23
1766015914.310167,24
1766015914.3101718,25
1766015914.310177,23
1766015914.3101819,24
1766015914.310187,23
1766015914.3101928,24
1766015914.310199,24
1766015914.3102038,21
1766015914.310209,25
1766015914.310213,24
1766015914.310218,26
1766015914.310223,23
1766015914.3102279,26
1766015914.310233,20
1766015914.310237,26
1766015914.310241,24
1766015914.310246,25
1766015914.31025,23
1766015914.310254,23
1766015914.3102589,24
1766015914.3102632,23
1766015914.310267,24
1766015914.310272,22
1766015914.310276,24
1766015914.3102798,25
1766015914.310285,28
1766015914.310289,24
1766015914.310294,26
1766015914.3102982,23
1766015914.310302,24
1766015914.310306,24
1766015914.3103108,21
1766015914.310315,25
1766015914.3103201,23
1766015914.310324,22
1766015914.310328,21
1766015914.310333,26
1766015914.310337,25
1766015914.310343,25
1766015914.310348,26
1766015914.3103528,25
1766015914.310357,26
1766015914.3103611,24
1766015914.310365,23
1766015914.31037,24
1766015914.3103738,26
1766015914.310378,26
1766015914.310383,21
1766015914.310387,26
1766015914.310391,23
1766015914.310396,24
1766015914.3104,22
1766015914.310404,25
1766015914.310409,24
1766015914.3104131,23
1766015914.310417,21
1766015914.310422,24
1766015914.310426,26
1766015914.310431,26
1766015914.310436,23
1766015914.310441,25
1766015914.310446,22
1766015914.310451,24
1766015914.310456,27
1766015914.3104599,25
1766015914.310465,23
1766015914.3104699,24
1766015914.310475,24
1766015914.3104792,23
1766015914.310484,21
1766015914.3104892,26
1766015914.310494,25
1766015914.3105001,25
1766015914.3105059,25
1766015914.310511,23
1766015914.3105159,27
1766015914.310522,26
1766015914.310528,26
1766015914.310533,27
1766015914.310538,23
1766015914.310542,24
1766015914.3105469,25
1766015914.3105521,24
1766015914.310557,27
1766015914.3105621,25
1766015914.310566,26
1766015914.310571,24
1766015914.3105762,23
1766015914.310581,25
1766015914.310585,25
1766015914.31059,24
1766015914.310595,22
1766015914.3106,24
1766015914.310605,24
1766015914.3106098,21
1766015914.310614,25
1766015914.3106189,25
1766015914.310624,22
1766015914.3106291,22
1766015914.310633,26
1766015914.3106382,25
1766015914.310643,24
1766015914.310648,22
1766015914.310653,22
1766015914.310657,26
1766015914.310664,27
1766015914.310669,25
1766015914.310674,24
1766015914.310679,25
1766015914.310684,25
1766015914.310689,24
1766015914.310693,24
1766015914.310698,27
1766015914.310703,23
1766015914.310708,26
1766015914.310713,26
1766015914.310718,28
1766015914.310723,29
1766015914.310727,27
1766015914.3107321,28
1766015914.310737,27
1766015914.310742,30
1766015914.310747,29
1766015914.310751,27
1766015914.3107562,28
1766015914.310761,27
1766015914.310766,26
1766015914.310771,24
1766015914.310775,28
1766015914.3107798,23
1766015914.310785,28
1766015914.3107898,27
1766015914.310795,29
1766015914.3107998,25
1766015914.310804,23
1766015914.3108091,27
1766015914.310814,28
1766015914.3108191,29
1766015914.3108249,28
1766015914.31083,28
1766015914.310836,27
1766015914.310841,31
1766015914.310845,30
1766015914.3108501,29
1766015914.310855,30
1766015914.31086,33
1766015914.310864,32
1766015914.310869,35
1766015914.3108742,32
1766015914.310879,36
1766015914.310883,34
1766015914.3108869,34
1766015914.310892,34
1766015914.3108962,33
1766015914.3109,34
1766015914.310905,33
1766015914.310909,33
1766015914.310913,33
1766015914.3109179,33
1766015914.310922,31
1766015914.3109272,34
1766015914.310931,31
1766015914.310936,29
1766015914.310941,34
1766015914.310946,33
1766015914.310951,29
1766015914.310955,29
1766015914.31096,30
1766015914.310965,30
1766015914.31097,31
1766015914.310975,32
1766015914.3109791,31
1766015914.310986,31
1766015914.310991,30
1766015914.3109992,32
1766015914.311004,29
1766015914.311009,28
1766015914.311014,28
1766015914.311018,33
1766015914.311023,33
1766015914.311028,33
1766015914.311033,31
1766015914.311038,35
1766015914.311042,34
1766015914.3110468,36
1766015914.311052,31
1766015914.3110569,38
1766015914.311061,39
1766015914.3110662,31
1766015914.311071,36
1766015914.3110762,32
1766015914.311081,35
1766015914.311085,34
1766015914.31109,36
1766015914.311095,35
1766015914.3111,36
1766015914.311105,36
1766015914.311109,34
1766015914.311114,35
1766015914.311119,36
1766015914.311124,35
1766015914.311129,34
1766015914.311133,37
1766015914.3111382,35
1766015914.311143,34
1766015914.311148,37
1766015914.311154,38
1766015914.3111591,37
1766015914.3111649,36
1766015914.311171,37
1766015914.3111758,34
1766015914.311181,37
1766015914.3111858,35
1766015914.311191,33
1766015914.311195,36
1766015914.3112,34
1766015914.3112051,37
1766015914.31121,37
1766015914.3112152,35
1766015914.311219,34
1766015914.311224,33
1766015914.311229,36
1766015914.311234,37
1766015914.311239,38
1766015914.311243,42
1766015914.3112478,44
1766015914.311253,41
1766015914.311258,43
1766015914.311262,44
1766015914.3112671,43
1766015914.311272,42
1766015914.3112772,43
1766015914.311282,47
1766015914.311286,42
1766015914.311291,45
1766015914.311296,40
1766015914.3113012,43
1766015914.311306,42
1766015914.31131,45
1766015914.311316,43
1766015914.311321,42
1766015914.311328,43
1766015914.311332,42
1766015914.311339,44
1766015914.3113441,44
1766015914.311349,44
1766015914.3113542,42
1766015914.311358,41
1766015914.311363,39
1766015914.311368,41
1766015914.311373,41
1766015914.311378,43
1766015914.311382,43
1766015914.3113868,39
1766015914.311392,39
1766015914.311397,41
1766015914.311401,38
1766015914.3114061,42
1766015914.311411,38
1766015914.3114161,42
1766015914.311421,43
1766015914.3114262,44
1766015914.31143,45
1766015914.311435,44
1766015914.31144,47
1766015914.311445,44
1766015914.311449,48
1766015914.311454,43
1766015914.311459,47
1766015914.3114638,46
1766015914.3114681,43
1766015914.311473,44
1766015914.311478,46
1766015914.311483,47
1766015914.311487,47
1766015914.3114939,49
1766015914.311499,48
1766015914.311504,45
1766015914.31151,47
1766015914.3115149,46
1766015914.31152,46
1766015914.3115242,49
1766015914.311529,45
1766015914.3115342,48
1766015914.311539,49
1766015914.311543,51
1766015914.311548,50
1766015914.311553,51
1766015914.3115578,50
1766015914.311563,50
1766015914.311567,51
1766015914.311572,52
1766015914.311577,50
1766015914.3115819,52
1766015914.311587,50
1766015914.311591,47
1766015914.311596,47
1766015914.311601,46
1766015914.311606,48
1766015914.3116102,49
1766015914.311615,51
1766015914.31162,50
1766015914.311625,48
1766015914.31163,50
1766015914.3116338,49
1766015914.311639,48
1766015914.3116438,48
1766015914.311649,49
1766015914.3116548,46
1766015914.311661,46
1766015914.311668,52
1766015914.3116732,47
1766015914.31168,47
1766015914.311685,49
1766015914.31169,47
1766015914.311695,48
1766015914.3116999,46
1766015914.311705,48
1766015914.311709,48
1766015914.311714,47
1766015914.311719,45
1766015914.311724,50
1766015914.311729,46
1766015914.311734,45
1766015914.311739,48
1766015914.311744,46
1766015914.311748,48
1766015914.311753,49
1766015914.311758,48
1766015914.311763,46
1766015914.311768,51
1766015914.3117728,48
1766015914.311777,52
1766015914.311782,56
1766015914.311787,55
1766015914.3117921,60
1766015914.311797,61
1766015914.3118021,60
1766015914.311806,59
1766015914.311811,57
1766015914.311816,60
1766015914.311821,61
1766015914.3118248,60
1766015914.31183,59
1766015914.311837,58
1766015914.311841,56
1766015914.311847,61
1766015914.311852,58
1766015914.311857,58
1766015914.311862,56
1766015914.311867,56
1766015914.311871,57
1766015914.311876,56
1766015914.311881,55
1766015914.311886,55
1766015914.31189,55
1766015914.3118951,51
1766015914.3119,52
1766015914.311905,52
1766015914.31191,53
1766015914.311914,51
1766015914.3119192,54
1766015914.311924,52
1766015914.311929,49
1766015914.311933,52
1766015914.311938,50
1766015914.3119428,48
1766015914.311948,50
1766015914.3119528,49
1766015914.311958,46
1766015914.3119621,49
1766015914.311967,47
1766015914.3119721,49
1766015914.311976,49
1766015914.311981,47
1766015914.311986,49
1766015914.311991,46
1766015914.311996,51
1766015914.312,48
1766015914.312007,46
1766015914.3120131,49
1766015914.312018,49
1766015914.312023,45
1766015914.312028,50
1766015914.312033,46
1766015914.3120372,48
1766015914.312042,47
1766015914.312047,47
1766015914.312052,45
1766015914.312056,46
1766015914.3120608,45
1766015914.312066,44
1766015914.3120708,46
1766015914.312075,48
1766015914.31208,45
1766015914.312085,45
1766015914.3120902,45
1766015914.312095,45
1766015914.312099,46
1766015914.312104,46
1766015914.312109,46
1766015914.312114,44
1766015914.312118,45
1766015914.3121228,44
1766015914.312128,48
1766015914.312133,44
1766015914.312137,45
1766015914.3121421,44
1766015914.312147,43
1766015914.3121521,46
1766015914.312156,43
1766015914.312161,45
1766015914.312166,47
1766015914.312172,48
1766015914.312177,42
1766015914.312184,45
1766015914.3121889,45
1766015914.312194,43
1766015914.312198,44
1766015914.312203,39
1766015914.312208,41
1766015914.312213,41
1766015914.312217,44
1766015914.312222,39
1766015914.312227,41
1766015914.312232,41
1766015914.312236,41
1766015914.3122408,42
1766015914.312246,41
1766015914.3122509,42
1766015914.312256,41
1766015914.3122602,42
1766015914.312265,38
1766015914.3122702,40
1766015914.312275,40
1766015914.312279,40
1766015914.312284,38
1766015914.312289,38
1766015914.312294,41
1766015914.312299,37
1766015914.312303,39
1766015914.312308,40
1766015914.312313,38
1766015914.3123178,41
1766015914.3123221,41
1766015914.312327,40
1766015914.312332,39
1766015914.3123388,38
1766015914.312344,40
1766015914.31235,41
1766015914.312355,38
1766015914.31236,36
1766015914.312364,38
1766015914.3123689,36
1766015914.312374,38
1766015914.312379,37
1766015914.312384,38
1766015914.3123882,36
1766015914.312393,36
1766015914.3123982,33
1766015914.312403,38
1766015914.312407,34
1766015914.3124118,39
1766015914.312417,39
1766015914.3124218,37
1766015914.312426,36
1766015914.312431,39
1766015914.3124359,38
1766015914.312441,36
1766015914.312445,37
1766015914.31245,36
1766015914.312455,34
1766015914.31246,35
1766015914.3124638,35
1766015914.312469,35
1766015914.312474,34
1766015914.312479,38
1766015914.312484,36
1766015914.3124878,34
1766015914.312493,38
1766015914.3124979,34
1766015914.312505,37
1766015914.31251,36
1766015914.3125172,34
1766015914.312522,35
1766015914.3125272,34
1766015914.312531,36
1766015914.312536,32
1766015914.312541,31
1766015914.312546,33
1766015914.312551,32
1766015914.312555,35
1766015914.31256,33
1766015914.312565,35
1766015914.31257,34
1766015914.3125749,33
1766015914.3125792,34
1766015914.312584,35
1766015914.3125892,35
1766015914.312593,32
1766015914.312598,35
1766015914.312603,32
1766015914.312608,32
1766015914.312612,31
1766015914.312617,35
1766015914.312622,32
1766015914.3126268,31
1766015914.3126311,32
1766015914.312636,32
1766015914.312641,33
1766015914.312646,32
1766015914.312651,31
1766015914.312656,33
1766015914.312661,34
1766015914.3126662,34
1766015914.31267,31
1766015914.3126771,29
1766015914.312681,32
1766015914.3126888,33
1766015914.3126929,30
1766015914.3126981,31
1766015914.312703,31
1766015914.3127081,32
1766015914.312712,30
1766015914.312717,33
1766015914.312722,30
1766015914.312727,31
1766015914.312732,31
1766015914.312737,31
1766015914.312741,33
1766015914.312746,32
1766015914.312751,31
1766015914.312756,31
1766015914.31276,28
1766015914.312765,32
1766015914.3127701,28
1766015914.312775,31
1766015914.312779,27
1766015914.312784,31
1766015914.312789,30
1766015914.3127942,31
1766015914.312798,30
1766015914.312803,29
1766015914.312808,29
1766015914.312813,32
1766015914.3128169,30
1766015914.312822,29
1766015914.3128269,28
1766015914.312832,28
1766015914.3128371,29
1766015914.312845,29
1766015914.31285,28
1766015914.3128572,26
1766015914.312861,29
1766015914.312866,27
1766015914.312871,28
1766015914.312876,23
1766015914.312881,29
1766015914.312886,25
1766015914.31289,30
1766015914.312895,25
1766015914.3129,27
1766015914.312904,28
1766015914.3129091,30
1766015914.312914,26
1766015914.312918,26
1766015914.312923,26
1766015914.312928,24
1766015914.312932,26
1766015914.312937,27
1766015914.312942,28
1766015914.312947,27
1766015914.312952,29
1766015914.3129559,29
1766015914.312961,29
1766015914.3129659,26
1766015914.312971,28
1766015914.3129752,30
1766015914.31298,27
1766015914.3129852,27
1766015914.31299,23
1766015914.312994,26
1766015914.312999,28
1766015914.313004,25
1766015914.31301,26
1766015914.313015,29
1766015914.313021,24
1766015914.313028,28
1766015914.313032,26
1766015914.3130372,29
1766015914.313042,26
1766015914.313047,28
1766015914.313051,24
1766015914.313056,26
1766015914.3130612,25
1766015914.313066,24
1766015914.313071,24
1766015914.313076,26
1766015914.31308,26
1766015914.3130848,25
1766015914.31309,27
1766015914.3130949,28
1766015914.3131,27
1766015914.313104,29
1766015914.313109,27
1766015914.3131142,25
1766015914.313119,23
1766015914.3131242,26
1766015914.313128,26
1766015914.313133,25
1766015914.313138,25
1766015914.313143,26
1766015914.313148,26
1766015914.313153,23
1766015914.3131578,26
1766015914.313163,25
1766015914.313167,25
1766015914.3131719,25
1766015914.313177,27
1766015914.313184,28
1766015914.313189,26
1766015914.313195,25
1766015914.3132002,25
1766015914.313205,26
1766015914.313209,26
1766015914.313214,25
1766015914.313219,24
1766015914.3132238,25
1766015914.313229,25
1766015914.313233,29
1766015914.313238,25
1766015914.313243,24
1766015914.313247,25
1766015914.3132522,22
1766015914.313257,28
1766015914.313262,24
1766015914.313266,24
1766015914.313271,27
1766015914.3132758,28
1766015914.313281,26
1766015914.3132858,26
1766015914.3132899,26
1766015914.3132951,24
1766015914.3133,23
1766015914.3133051,27
1766015914.31331,26
1766015914.313314,25
1766015914.313319,27
1766015914.313324,24
1766015914.313329,24
1766015914.313334,25
1766015914.313339,25
1766015914.313343,28
1766015914.31335,27
1766015914.313355,27
1766015914.313362,25
1766015914.3133671,24
1766015914.313371,28
1766015914.313376,26
1766015914.3133812,24
1766015914.313386,28
1766015914.31339,27
1766015914.313395,24
1766015914.3134,22
1766015914.313405,24
1766015914.313409,22
1766015914.3134139,25
1766015914.313419,27
1766015914.3134239,22
1766015914.313428,22
1766015914.3134332,25
1766015914.313439,22
1766015914.313445,26
1766015914.31345,25
1766015914.313455,25
1766015914.3134599,26
1766015914.313465,26
1766015914.31347,27
1766015914.313474,23
1766015914.313479,23
1766015914.313484,25
1766015914.3134878,21
1766015914.313493,25
1766015914.313498,25
1766015914.313503,24
1766015914.313508,24
1766015914.3135118,26
1766015914.313518,23
1766015914.313523,22
1766015914.313529,24
1766015914.313536,26
1766015914.3135412,27
1766015914.313545,25
1766015914.31355,27
1766015914.313556,23
1766015914.3135622,25
1766015914.313567,26
1766015914.3135722,23
1766015914.313577,26
1766015914.3135822,26
1766015914.313587,24
1766015914.313591,25
1766015914.313596,26
1766015914.313601,26
1766015914.3136058,28
1766015914.313611,27
1766015914.3136158,26
1766015914.313621,25
1766015914.313626,29
1766015914.313631,23
1766015914.313636,23
1766015914.3136399,25
1766015914.3136451,26
1766015914.31365,25
1766015914.3136551,27
1766015914.31366,26
1766015914.313665,27
1766015914.31367,27
1766015914.313674,25
1766015914.3136792,25
1766015914.313684,28
1766015914.3137422,27
1766015914.3137522,24
1766015914.313757,24
1766015914.3137631,28
1766015914.313767,27
1766015914.313772,30
1766015914.313777,25
1766015914.313782,24
1766015914.313787,25
1766015914.313792,24
1766015914.313796,27
1766015914.313801,25
1766015914.313806,22
1766015914.3138108,26
1766015914.313815,24
1766015914.31382,26
1766015914.3138251,21
1766015914.31383,24
1766015914.313835,26
1766015914.3138402,24
1766015914.313844,28
1766015914.313849,27
1766015914.313854,27
1766015914.313859,22
1766015914.313864,25
1766015914.313868,26
1766015914.3138728,24
1766015914.313878,25
1766015914.3138828,27
1766015914.313888,26
1766015914.3138921,27
1766015914.313897,25
1766015914.3139021,26
1766015914.313907,25
1766015914.3139122,23
1766015914.313919,28
1766015914.3139231,23
1766015914.313928,23
1766015914.3139331,26
1766015914.313938,24
1766015914.313942,24
1766015914.313947,28
1766015914.313952,24
1766015914.3139572,24
1766015914.313961,23
1766015914.313966,24
1766015914.313971,26
1766015914.313975,25
1766015914.3139799,25
1766015914.313985,25
1766015914.3139899,25
1766015914.313994,26
1766015914.3139992,26
1766015914.314004,23
1766015914.314008,24
1766015914.314013,24
1766015914.314018,25
1766015914.314023,25
1766015914.314027,23
1766015914.314032,23
1766015914.314037,25
1766015914.314042,26
1766015914.314046,24
1766015914.3140512,22
1766015914.3140569,25
1766015914.314062,23
1766015914.314066,27
1766015914.314073,27
1766015914.3140779,26
1766015914.314084,27
1766015914.3140879,25
1766015914.314093,26
1766015914.314098,29
1766015914.3141031,26
1766015914.314107,26
1766015914.314112,28
1766015914.3141172,24
1766015914.314122,26
1766015914.3141272,26
1766015914.314131,25
1766015914.314136,26
1766015914.314141,24
1766015914.314146,24
1766015914.3141499,25
1766015914.314155,24
1766015914.31416,26
1766015914.3141649,28
1766015914.3141692,24
1766015914.314174,25
1766015914.3141792,25
1766015914.314183,27
1766015914.314188,26
1766015914.314193,23
1766015914.314198,24
1766015914.314202,25
1766015914.314207,24
1766015914.314212,25
1766015914.3142169,25
1766015914.3142211,27
1766015914.314226,28
1766015914.3142312,25
1766015914.3142369,24
1766015914.314243,24
1766015914.3142478,22
1766015914.3142521,25
1766015914.314257,23
1766015914.314262,25
1766015914.314267,24
1766015914.314271,26
1766015914.314276,23
1766015914.314281,22
1766015914.314286,25
1766015914.3142898,25
1766015914.314295,26
1766015914.3142998,26
1766015914.314305,26
1766015914.3143091,24
1766015914.314314,27
1766015914.3143191,24
1766015914.314323,26
1766015914.314328,26
1766015914.314333,22
1766015914.314338,25
1766015914.3143418,24
1766015914.314347,26
1766015914.314352,22
1766015914.314357,28
1766015914.314361,25
1766015914.3143659,25
1766015914.314371,24
1766015914.314375,24
1766015914.31438,27
1766015914.314385,26
1766015914.31439,23
1766015914.314396,24
1766015914.314401,26
1766015914.314406,24
1766015914.314411,26
1766015914.3144162,23
1766015914.31442,23
1766015914.314425,25
1766015914.31443,27
1766015914.314435,23
1766015914.31444,27
1766015914.314444,24
1766015914.3144488,24
1766015914.314454,27
1766015914.3144588,24
1766015914.314463,23
1766015914.3144681,27
1766015914.314473,23
1766015914.314477,25
1766015914.314482,26
1766015914.314487,25
1766015914.314492,24
1766015914.314496,26
1766015914.314501,25
1766015914.314506,24
1766015914.314511,25
1766015914.3145149,25
1766015914.3145201,23
1766015914.314525,26
1766015914.3145301,26
1766015914.314534,24
1766015914.314539,22
1766015914.3145442,23
1766015914.314548,29
1766015914.314553,27
1766015914.314558,24
1766015914.314563,25
1766015914.3145669,24
1766015914.314572,24
1766015914.3145769,25
1766015914.314581,25
1766015914.3145862,25
1766015914.314591,28
1766015914.3145962,25
1766015914.3146,27
1766015914.314605,25
1766015914.31461,23
1766015914.314615,25
1766015914.3146188,27
1766015914.314624,26
1766015914.314629,27
1766015914.314634,27
1766015914.3146381,25
1766015914.314643,27
1766015914.3146482,25
1766015914.314652,26
1766015914.314657,30
1766015914.314662,28
1766015914.314667,26
1766015914.314671,25
1766015914.314676,26
1766015914.314681,27
1766015914.3146849,25
1766015914.31469,26
1766015914.314695,29
1766015914.314699,27
1766015914.314704,27
1766015914.314709,27
1766015914.3147142,28
1766015914.314718,23
1766015914.314723,26
1766015914.314728,29
1766015914.314733,25
1766015914.3147368,28
1766015914.314742,26
1766015914.3147469,25
1766015914.314751,26
1766015914.3147562,23
1766015914.314761,23
1766015914.3147662,26
1766015914.31477,26
1766015914.314775,27
1766015914.31478,29
1766015914.314785,28
1766015914.314789,24
1766015914.314794,25
1766015914.314799,26
1766015914.314803,27
1766015914.3148081,25
1766015914.314813,27
1766015914.314817,24
1766015914.3148348,28
1766015914.31484,27
1766015914.3148448,23
1766015914.314851,25
1766015914.314856,27
1766015914.314861,30
1766015914.3148658,25
1766015914.314871,26
1766015914.314875,24
1766015914.31488,27
1766015914.3148851,24
1766015914.314889,26
1766015914.314894,24
1766015914.314899,24
1766015914.314903,24
1766015914.3149078,28
1766015914.314913,27
1766015914.314917,25
1766015914.314922,26
1766015914.314927,26
1766015914.314931,27
1766015914.3149362,27
1766015914.314941,24
1766015914.314946,26
1766015914.31495,24
1766015914.314955,29
1766015914.3149598,25
1766015914.314965,28
1766015914.31497,27
1766015914.314974,26
1766015914.314979,27
1766015914.3149838,25
1766015914.3149881,26
1766015914.314993,24
1766015914.314998,23
1766015914.3150039,25
1766015914.31501,23
1766015914.3150148,25
1766015914.315019,25
1766015914.315024,25
1766015914.315029,24
1766015914.3150332,25
1766015914.315038,24
1766015914.315043,26
1766015914.315048,23
1766015914.315052,28
1766015914.3150568,23
1766015914.315062,26
1766015914.3150668,26
1766015914.315072,27
1766015914.315076,25
1766015914.315081,23
1766015914.3150861,25
1766015914.315091,23
1766015914.3150961,21
1766015914.3151,28
1766015914.315105,26
1766015914.31511,25
1766015914.315115,25
1766015914.315119,25
1766015914.315124,26
1766015914.315129,26
1766015914.3151329,25
1766015914.315138,28
1766015914.3151429,24
1766015914.315148,25
1766015914.315152,25
1766015914.315157,26
1766015914.3151622,26
1766015914.315167,25
1766015914.315171,25
1766015914.315176,27
1766015914.315181,25
1766015914.3151848,27
1766015914.31519,24
1766015914.3151948,26
1766015914.3152,27
1766015914.3152041,23
1766015914.315209,25
1766015914.3152142,24
1766015914.315219,22
1766015914.3152242,25
1766015914.315228,24
1766015914.315233,27
1766015914.315238,25
1766015914.315243,24
1766015914.315247,26
1766015914.315252,27
1766015914.315257,23
1766015914.315261,23
1766015914.3152661,27
1766015914.315271,24
1766015914.315275,27
1766015914.31528,25
1766015914.315285,27
1766015914.3152902,29
1766015914.315295,25
1766015914.3153,27
1766015914.315306,29
1766015914.3153112,26
1766015914.315316,24
1766015914.3153212,26
1766015914.315326,25
1766015914.31533,29
1766015914.3153348,26
1766015914.31534,24
1766015914.3153448,23
1766015914.31535,27
1766015914.315354,27
1766015914.315404,24
1766015914.3154109,28
1766015914.315416,26
1766015914.3154209,27
1766015914.315426,25
1766015914.3154309,22
1766015914.3154361,23
1766015914.315441,27
1766015914.315446,25
1766015914.315451,27
1766015914.315456,23
1766015914.3154612,27
1766015914.315466,23
1766015914.3154712,23
1766015914.315476,23
1766015914.3154812,22
1766015914.315485,22
1766015914.31549,25
1766015914.315495,26
1766015914.3155,24
1766015914.3155048,25
1766015914.31551,24
1766015914.3155148,25
1766015914.31552,21
1766015914.315525,24
1766015914.31553,23
1766015914.315535,28
1766015914.31554,23
1766015914.315545,27
1766015914.3155499,24
1766015914.315555,23
1766015914.315559,24
1766015914.315564,27
1766015914.315569,27
1766015914.315574,27
1766015914.315579,23
1766015914.315584,23
1766015914.3155892,22
1766015914.315594,24
1766015914.3155992,22
1766015914.3159528,24
1766015914.316978,21
1766015914.3179781,24
1766015914.318959,26
1766015914.319951,26
1766015914.320974,26
1766015914.321972,26
1766015914.3229818,25
1766015914.324002,24
1766015914.324959,21
1766015914.325978,25
1766015914.326981,23
1766015914.327959,27
1766015914.328981,24
1766015914.330026,26
1766015914.331014,25
1766015914.33202,23
1766015914.33301,25
1766015914.3340302,25
1766015914.335026,26
1766015914.335994,23
1766015914.3370008,24
1766015914.338022,25
1766015914.339015,25
1766015914.3400152,26
1766015914.341017,27
1766015914.342041,24
1766015914.343039,22
1766015914.344028,22
1766015914.34505,25
1766015914.3460531,24
1766015914.3470569,23
1766015914.348057,24
1766015914.349057,24
1766015914.350045,20
1766015914.3510652,22
1766015914.352093,21
1766015914.353101,23
1766015914.354093,23
1766015914.355096,23
1766015914.35608,21
1766015914.357134,24
1766015914.358103,23
1766015914.359081,23
1766015914.360099,20
1766015914.361098,25
1766015914.362108,19
1766015914.363084,22
1766015914.364085,25
1766015914.365079,21
1766015914.366086,24
1766015914.3671129,23
1766015914.368106,21
1766015914.3691,22
1766015914.370126,21
1766015914.3711119,22
1766015914.372105,25
1766015914.373111,23
1766015914.374101,23
1766015914.375124,25
1766015914.37612,26
1766015914.377127,21
1766015914.378131,24
1766015914.379192,24
1766015914.3801699,24
1766015914.381135,22
1766015914.382166,26
1766015914.383143,24
1766015914.3841531,26
1766015914.3851562,24
1766015914.3861609,25
1766015914.38717,25
1766015914.3881779,25
1766015914.389187,27
1766015914.3901749,27
1766015914.3911622,25
1766015914.392183,25
1766015914.39318,27
1766015914.3941839,24
1766015914.39519,27
1766015914.396194,26
1766015914.3971999,27
1766015914.398177,27
1766015914.399172,25
1766015914.4002008,27
1766015914.401214,31
1766015914.4021928,32
1766015914.403222,35
1766015914.404198,36
1766015914.405216,42
1766015914.406223,44
1766015914.407199,48
1766015914.408202,52
1766015914.40924,48
1766015914.4102242,51
1766015914.411225,50
1766015914.412239,50
1766015914.413225,54
1766015914.41423,55
1766015914.415235,53
1766015914.416234,56
1766015914.417242,52
1766015914.418253,55
1766015914.419248,55
1766015914.420254,54
1766015914.421249,56
1766015914.422257,55
1766015914.4232519,50
1766015914.4242828,52
1766015914.425249,53
1766015914.4263098,55
1766015914.427295,60
1766015914.428272,67
1766015914.429274,71
1766015914.430291,73
1766015914.4313002,77
1766015914.432297,81
1766015914.433297,81
1766015914.434295,83
1766015914.4352992,80
1766015914.436297,79
1766015914.4372962,80
1766015914.438314,79
1766015914.439313,77
1766015914.440301,79
1766015914.441313,77
1766015914.442334,81
1766015914.4433448,79
1766015914.444313,84
1766015914.445374,81
1766015914.4464169,86
1766015914.447351,87
1766015914.448365,88
1766015914.449336,92
1766015914.450359,98
1766015914.451457,105
1766015914.452456,113
1766015914.4534578,119
1766015914.454452,118
1766015914.455529,120
1766015914.456502,117
1766015914.457463,121
1766015914.458462,120
1766015914.459471,121
1766015914.460475,125
1766015914.461482,129
1766015914.462467,126
1766015914.46351,128
1766015914.464468,129
1766015914.4654799,131
1766015914.466518,131
1766015914.467482,131
1766015914.4685,128
1766015914.4694982,133
1766015914.470496,132
1766015914.471531,131
1766015914.472503,134
1766015914.473506,135
1766015914.474505,134
1766015914.4755101,132
1766015914.476536,135
1766015914.477536,139
1766015914.478564,145
1766015914.4795709,157
1766015914.480542,165
1766015914.481528,178
1766015914.482523,189
1766015914.4835432,191
1766015914.4845371,194
1766015914.4855418,199
1766015914.486544,200
1766015914.487547,201
1766015914.488543,199
1766015914.48961,198
1766015914.49057,198
1766015914.491619,200
1766015914.492547,199
1766015914.493579,199
1766015914.4946299,194
1766015914.495618,195
1766015914.4965692,188
1766015914.49766,189
1766015914.498621,187
1766015914.499572,185
1766015914.5006158,180
1766015914.501556,180
1766015914.50256,178
1766015914.503625,173
1766015914.504628,174
1766015914.505582,172
1766015914.506596,171
1766015914.507591,167
1766015914.508645,169
1766015914.509634,164
1766015914.510598,166
1766015914.51161,165
1766015914.512605,161
1766015914.5136251,158
1766015914.514652,158
1766015914.515626,153
1766015914.516649,155
1766015914.5176451,151
1766015914.518639,150
1766015914.519608,149
1766015914.5206752,145
1766015914.521622,146
1766015914.5226839,143
1766015914.523635,138
1766015914.5246358,139
1766015914.525666,136
1766015914.526678,135
1766015914.5277052,136
1766015914.528694,137
1766015914.5296419,140
1766015914.530687,140
1766015914.531693,139
1766015914.532647,137
1766015914.533699,141
1766015914.534689,140
1766015914.5357,137
1766015914.53669,137
1766015914.5377312,136
1766015914.538722,135
1766015914.539667,133
1766015914.540663,132
1766015914.541709,130
1766015914.542718,131
1766015914.543759,133
1766015914.5447261,134
1766015914.5457768,129
1766015914.5467598,129
1766015914.547765,129
1766015914.548755,126
1766015914.549769,125
1766015914.5507479,124
1766015914.55174,123
1766015914.552737,121
1766015914.553756,119
1766015914.554791,122
1766015914.5557609,116
1766015914.556763,119
1766015914.557726,115
1766015914.558723,117
1766015914.559777,114
1766015914.560755,118
1766015914.56174,121
1766015914.562746,120
1766015914.5637991,119
1766015914.5647418,118
1766015914.5657349,118
1766015914.566777,117
1766015914.5677938,117
1766015914.568809,113
1766015914.5697632,113
1766015914.57082,115
1766015914.5718038,113
1766015914.572835,112
1766015914.573756,114
1766015914.574825,117
1766015914.575802,121
1766015914.5768168,125
1766015914.577783,130
1766015914.5788429,130
1766015914.579842,133
1766015914.580821,130
1766015914.581781,128
1766015914.582784,130
1766015914.583822,131
1766015914.584797,136
1766015914.58586,135
1766015914.586803,134
1766015914.587851,134
1766015914.5888221,135
1766015914.589838,132
1766015914.59082,134
1766015914.59184,131
1766015914.5929432,129
1766015914.593867,130
1766015914.594926,127
1766015914.5959392,125
1766015914.596888,125
1766015914.5978901,125
1766015914.598877,127
1766015914.599916,124
1766015914.600904,127
1766015914.601952,127
1766015914.6029172,127
1766015914.603918,126
1766015914.605015,124
1766015914.605957,126
1766015914.606926,126
1766015914.607954,126
1766015914.609025,126
1766015914.610052,126
1766015914.611012,126
1766015914.611954,129
1766015914.613012,129
1766015914.614047,125
1766015914.615019,127
1766015914.615967,126
1766015914.6170182,125
1766015914.618051,127
1766015914.619019,126
1766015914.620039,121
1766015914.621017,121
1766015914.622017,122
1766015914.62302,121
1766015914.6239822,121
1766015914.6250298,121
1766015914.626008,124
1766015914.627012,126
1766015914.6280231,125
1766015914.629032,126
1766015914.630016,124
1766015914.6310132,123
1766015914.632056,125
1766015914.6329641,123
1766015914.634032,119
1766015914.6349912,119
1766015914.63602,115
1766015914.637024,119
1766015914.638043,117
1766015914.639016,123
1766015914.640019,123
1766015914.6409678,125
1766015914.64209,128
1766015914.643062,124
1766015914.6439931,125
1766015914.645001,125
1766015914.646039,126
1766015914.647043,126
1766015914.648035,126
1766015914.648993,126
1766015914.649997,125
1766015914.651073,121
1766015914.652021,120
1766015914.6530292,119
1766015914.654046,120
1766015914.655054,116
1766015914.656047,116
1766015914.656996,115
1766015914.6580539,113
1766015914.6590562,112
1766015914.660037,114
1766015914.6610718,113
1766015914.66207,116
1766015914.663052,120
1766015914.6640902,122
1766015914.6650748,128
1766015914.6660428,134
1766015914.66708,132
1766015914.668085,136
1766015914.669077,134
1766015914.670089,134
1766015914.671092,134
1766015914.6720881,135
1766015914.6730938,135
1766015914.6740632,135
1766015914.675134,133
1766015914.6761112,130
1766015914.677112,129
1766015914.678092,128
1766015914.679144,125
1766015914.680133,126
1766015914.681122,129
1766015914.6820831,133
1766015914.683136,132
1766015914.6841311,133
1766015914.6851451,132
1766015914.6861172,130
1766015914.6871371,129
1766015914.688139,130
1766015914.6891131,131
1766015914.690151,127
1766015914.691112,125
1766015914.6921191,124
1766015914.693121,126
1766015914.694164,124
1766015914.695151,121
1766015914.696185,122
1766015914.6971579,122
1766015914.698143,121
1766015914.699182,117
1766015914.70019,118
1766015914.7011771,118
1766015914.7021818,119
1766015914.7031722,126
1766015914.704179,125
1766015914.7052228,127
1766015914.706204,130
1766015914.7071831,133
1766015914.708216,131
1766015914.7092018,129
1766015914.71021,126
1766015914.711215,127
1766015914.7121851,126
1766015914.7132092,123
1766015914.7142038,123
1766015914.7152278,123
1766015914.716234,118
1766015914.717237,118
1766015914.718229,116
1766015914.7192361,116
1766015914.720243,115
1766015914.7212522,115
1766015914.722253,113
1766015914.7232451,113
1766015914.724263,114
1766015914.725278,111
1766015914.7262778,109
1766015914.7272708,113
1766015914.728279,107
1766015914.7292778,107
1766015914.730239,109
1766015914.7312808,108
1766015914.732231,109
1766015914.7332501,109
1766015914.7342432,105
1766015914.735243,104
1766015914.7362502,106
1766015914.7372532,102
1766015914.738249,102
1766015914.739257,100
1766015914.740261,100
1766015914.741175,96
1766015914.742177,97
1766015914.743187,97
1766015914.744172,95
1766015914.745174,96
1766015914.7461782,92
1766015914.747187,89
1766015914.74819,90
1766015914.749192,88
1766015914.750201,89
1766015914.751204,90
1766015914.75221,84
1766015914.753207,88
1766015914.754213,87
1766015914.755213,82
1766015914.756215,85
1766015914.7572238,85
1766015914.758215,82
1766015914.759212,82
1766015914.760216,77
1766015914.761217,80
1766015914.762219,80
1766015914.763235,76
1766015914.7642329,79
1766015914.765238,77
1766015914.766251,75
1766015914.767238,77
1766015914.7682629,77
1766015914.76927,79
1766015914.7702699,79
1766015914.77129,79
1766015914.772347,82
1766015914.77333,81
1766015914.774327,82
1766015914.775331,80
1766015914.776321,85
1766015914.777338,88
1766015914.778294,88
1766015914.7793121,93
1766015914.780315,93
1766015914.781343,93
1766015914.782275,93
1766015914.783364,95
1766015914.784343,95
1766015914.7852852,94
1766015914.786336,97
1766015914.787362,95
1766015914.7883468,93
1766015914.7893708,95
1766015914.790354,89
1766015914.791372,90
1766015914.792346,90
1766015914.79337,88
1766015914.794366,90
1766015914.795399,90
1766015914.796381,90
1766015914.79741,84
1766015914.798357,87
1766015914.7993999,86
1766015914.800384,85
1766015914.801409,84
1766015914.802391,83
1766015914.803427,84
1766015914.8044019,83
1766015914.805426,85
1766015914.806402,86
1766015914.807359,89
1766015914.808369,89
1766015914.809393,87
1766015914.8104079,87
1766015914.811441,83
1766015914.812408,81
1766015914.8134332,84
1766015914.8144069,82
1766015914.815382,84
1766015914.816407,82
1766015914.817418,81
1766015914.818419,81
1766015914.819422,82
1766015914.820423,81
1766015914.821441,79
1766015914.822452,76
1766015914.823426,79
1766015914.8244522,78
1766015914.825449,78
1766015914.826455,75
1766015914.827466,77
1766015914.82847,74
1766015914.829453,72
1766015914.830476,72
1766015914.83147,72
1766015914.832438,73
1766015914.833462,72
1766015914.834518,72
1766015914.835565,74
1766015914.836443,77
1766015914.837492,78
1766015914.8384871,77
1766015914.839493,75
1766015914.840437,76
1766015914.841475,76
1766015914.842474,74
1766015914.8434718,75
1766015914.844494,75
1766015914.8454962,76
1766015914.846509,71
1766015914.8475049,74
1766015914.8485062,70
1766015914.8495328,72
1766015914.850522,71
1766015914.85152,72
1766015914.8525271,71
1766015914.85352,68
1766015914.8545222,69
1766015914.8555079,69
1766015914.8565361,70
1766015914.857496,69
1766015914.8585238,67
1766015914.859529,65
1766015914.860521,67
1766015914.8615282,67
1766015914.8625212,64
1766015914.8635268,63
1766015914.864535,65
1766015914.865515,62
1766015914.8665001,64
1766015914.867543,64
1766015914.8685482,62
1766015914.86955,62
1766015914.870562,64
1766015914.8715708,64
1766015914.872558,63
1766015914.873584,62
1766015914.874586,60
1766015914.8755898,60
1766015914.876584,62
1766015914.877584,61
1766015914.87856,60
1766015914.879585,58
1766015914.880585,58
1766015914.881598,60
1766015914.8826041,63
1766015914.883601,62
1766015914.884612,64
1766015914.885598,64
1766015914.8866,61
1766015914.887608,62
1766015914.888611,64
1766015914.889611,63
1766015914.890594,60
1766015914.891626,58
1766015914.892647,59
1766015914.893624,59
1766015914.894628,61
1766015914.895635,57
1766015914.896628,57
1766015914.89765,59
1766015914.8986309,60
1766015914.899644,56
1766015914.9006238,59
1766015914.901644,58
1766015914.902643,55
1766015914.90365,54
1766015914.9046552,53
1766015914.905659,55
1766015914.906668,54
1766015914.907676,52
1766015914.908672,53
1766015914.9096372,55
1766015914.910676,54
1766015914.911668,51
1766015914.912671,53
1766015914.913677,54
1766015914.91468,53
1766015914.9156742,55
1766015914.91666,53
1766015914.917718,56
1766015914.918667,56
1766015914.919638,56
1766015914.920643,57
1766015914.921695,57
1766015914.922654,54
1766015914.923703,60
1766015914.9246562,55
1766015914.925673,54
1766015914.9267478,54
1766015914.927695,55
1766015914.928722,56
1766015914.929724,52
1766015914.9307148,54
1766015914.931744,54
1766015914.932698,54
1766015914.9337301,55
1766015914.934745,54
1766015914.935752,55
1766015914.936735,55
1766015914.937736,55
1766015914.938741,56
1766015914.939759,57
1766015914.940758,55
1766015914.941764,52
1766015914.94272,56
1766015914.943763,54
1766015914.944757,53
1766015914.94572,54
1766015914.946744,53
1766015914.947777,53
1766015914.948777,50
1766015914.949769,51
1766015914.950756,50
1766015914.951787,51
1766015914.952808,53
1766015914.9537961,51
1766015914.954761,53
1766015914.955792,51
1766015914.956792,50
1766015914.9577951,53
1766015914.9587562,52
1766015914.959779,47
1766015914.9607732,50
1766015914.961817,50
1766015914.9628239,46
1766015914.963794,48
1766015914.964803,49
1766015914.965834,47
1766015914.9668171,48
1766015914.967826,46
1766015914.968831,47
1766015914.969852,47
1766015914.970847,47
1766015914.971842,47
1766015914.972847,44
1766015914.973844,43
1766015914.9748921,46
1766015914.9758751,46
1766015914.976873,46
1766015914.977849,42
1766015914.978849,43
1766015914.979879,39
1766015914.980885,43
1766015914.981856,42
1766015914.9828951,43
1766015914.983903,41
1766015914.9848802,42
1766015914.9858902,40
1766015914.986891,42
1766015914.987906,44
1766015914.9889112,46
1766015914.9898849,46
1766015914.9909089,47
1766015914.991915,52
1766015914.993006,49
1766015914.9939048,52
1766015914.994914,53
1766015914.9959989,52
1766015914.997,50
1766015914.9979038,53
1766015914.999001,51
1766015914.99999,51
1766015915.000999,52
1766015915.0019982,52
1766015915.002995,53
1766015915.0040069,52
1766015915.004995,56
1766015915.006007,51
1766015915.007,53
1766015915.007999,54
1766015915.0089989,49
1766015915.0100029,52
1766015915.011001,52
1766015915.012002,55
1766015915.013003,55
1766015915.0140018,56
1766015915.015003,51
1766015915.015997,54
1766015915.016993,53
1766015915.018,50
1766015915.018995,51
1766015915.020004,46
1766015915.0210009,50
1766015915.022,52
1766015915.0230038,52
1766015915.024004,51
1766015915.025009,50
1766015915.025996,52
1766015915.026992,52
1766015915.028001,52
1766015915.0289931,51
1766015915.030022,50
1766015915.031007,51
1766015915.032007,51
1766015915.0329988,53
1766015915.0340102,52
1766015915.035039,49
1766015915.036031,48
1766015915.037028,51
1766015915.038026,48
1766015915.0390348,48
1766015915.040044,48
1766015915.0410619,47
1766015915.042054,47
1766015915.0430489,49
1766015915.044058,50
1766015915.045046,51
1766015915.046058,49
1766015915.047041,50
1766015915.048038,48
1766015915.0490398,48
1766015915.050057,47
1766015915.051054,50
1766015915.052056,50
1766015915.053041,50
1766015915.054049,52
1766015915.055059,55
1766015915.0560582,52
1766015915.05706,52
1766015915.058055,51
1766015915.0591009,54
1766015915.060103,54
1766015915.061059,53
1766015915.062119,54
1766015915.0631108,53
1766015915.064094,53
1766015915.065113,53
1766015915.066118,54
1766015915.0671208,52
1766015915.068116,52
1766015915.069091,52
1766015915.070112,54
1766015915.071118,54
1766015915.072122,54
1766015915.073128,51
1766015915.074126,53
1766015915.075134,52
1766015915.076143,51
1766015915.077137,53
1766015915.078135,55
1766015915.079152,49
1766015915.08014,52
1766015915.081154,48
1766015915.0821419,52
1766015915.083148,52
1766015915.084148,53
1766015915.085163,51
1766015915.086148,52
1766015915.08716,47
1766015915.088166,47
1766015915.089163,49
1766015915.090165,48
1766015915.091167,49
1766015915.09218,46
1766015915.093188,46
1766015915.094184,48
1766015915.095177,49
1766015915.096201,43
1766015915.097197,44
1766015915.0981948,48
1766015915.099196,47
1766015915.100204,45
1766015915.101195,48
1766015915.102199,47
1766015915.103214,44
1766015915.104216,48
1766015915.105206,47
1766015915.106206,45
1766015915.107212,48
1766015915.1082182,46
1766015915.109214,47
1766015915.110222,48
1766015915.111226,47
1766015915.112225,47
1766015915.1132212,50
1766015915.1142342,47
1766015915.1152508,48
1766015915.116235,50
1766015915.11724,53
1766015915.11825,50
1766015915.119255,49
1766015915.120256,53
1766015915.121255,50
1766015915.122258,52
1766015915.123253,50
1766015915.124264,49
1766015915.125265,51
1766015915.1262772,51
1766015915.127269,53
1766015915.128273,55
1766015915.129277,55
1766015915.130291,53
1766015915.131289,52
1766015915.132308,55
1766015915.133296,55
1766015915.134295,54
1766015915.135299,56
1766015915.136297,53
1766015915.1372979,53
1766015915.138308,54
1766015915.139315,53
1766015915.140316,54
1766015915.141311,51
1766015915.1423092,52
1766015915.143327,47
1766015915.144326,50
1766015915.1453261,49
1766015915.1463192,51
1766015915.1473222,49
1766015915.148322,49
1766015915.1493142,48
1766015915.150346,47
1766015915.1513522,44
1766015915.152336,49
1766015915.1533382,47
1766015915.154345,49
1766015915.155351,46
1766015915.1563678,46
1766015915.157343,48
1766015915.158355,48
1766015915.1593611,48
1766015915.1603389,47
1766015915.161372,47
1766015915.162378,46
1766015915.163376,48
1766015915.1643798,48
1766015915.1653929,49
1766015915.166398,49
1766015915.167399,49
1766015915.168396,50
1766015915.1694038,48
1766015915.170398,50
1766015915.1714041,49
1766015915.172412,48
1766015915.173413,46
1766015915.1744099,47
1766015915.175414,46
1766015915.1764219,47
1766015915.1774259,47
1766015915.178432,46
1766015915.1794271,43
1766015915.180426,47
1766015915.1814249,46
1766015915.182434,45
1766015915.183424,46
1766015915.184417,46
1766015915.18542,44
1766015915.186434,47
1766015915.1874309,46
1766015915.188434,49
1766015915.189429,48
1766015915.1904588,48
1766015915.191457,49
1766015915.192446,49
1766015915.193443,53
1766015915.194443,53
1766015915.19545,52
1766015915.196456,54
1766015915.19746,55
1766015915.1984682,52
1766015915.1994681,53
1766015915.20046,52
1766015915.2014668,52
1766015915.202461,51
1766015915.2034712,52
1766015915.204493,49
1766015915.205486,51
1766015915.206483,54
1766015915.207493,50
1766015915.208498,52
1766015915.209495,50
1766015915.210489,50
1766015915.2115042,49
1766015915.212509,47
1766015915.2134988,47
1766015915.214506,50
1766015915.215511,48
1766015915.216522,48
1766015915.217516,47
1766015915.2185228,49
1766015915.219529,47
1766015915.2205288,45
1766015915.2215302,43
1766015915.222517,48
1766015915.223531,46
1766015915.2245271,48
1766015915.2255301,46
1766015915.226528,49
1766015915.2275531,47
1766015915.228544,46
1766015915.229552,47
1766015915.230552,48
1766015915.231544,46
1766015915.2325618,47
1766015915.2335591,46
1766015915.234559,46
1766015915.235567,46
1766015915.236562,47
1766015915.237578,48
1766015915.2385569,43
1766015915.239578,43
1766015915.240581,44
1766015915.24157,45
1766015915.242591,45
1766015915.243575,43
1766015915.24459,45
1766015915.245593,44
1766015915.2465868,42
1766015915.247591,44
1766015915.248599,43
1766015915.249609,46
1766015915.2506108,45
1766015915.2515972,43
1766015915.2526,45
1766015915.2536068,41
1766015915.2546182,43
1766015915.255622,43
1766015915.256625,42
1766015915.2576268,43
1766015915.258625,38
1766015915.2596202,42
1766015915.2606301,41
1766015915.261645,40
1766015915.262623,40
1766015915.263641,40
1766015915.264659,40
1766015915.265642,43
1766015915.26664,41
1766015915.2676501,44
1766015915.268657,40
1766015915.269664,39
1766015915.270665,39
1766015915.271661,44
1766015915.272671,45
1766015915.27368,48
1766015915.274672,48
1766015915.275672,50
1766015915.276672,50
1766015915.277678,49
1766015915.278691,51
1766015915.2796931,49
1766015915.2806778,51
1766015915.2816908,52
1766015915.282688,51
1766015915.2836962,50
1766015915.284707,51
1766015915.285713,51
1766015915.286718,50
1766015915.28771,51
1766015915.2887108,51
1766015915.289731,50
1766015915.290726,49
1766015915.291729,50
1766015915.292715,48
1766015915.2937222,48
1766015915.294724,50
1766015915.295724,48
1766015915.296727,47
1766015915.29775,47
1766015915.2987368,48
1766015915.299739,48
1766015915.300735,45
1766015915.301737,46
1766015915.302733,46
1766015915.303744,42
1766015915.3047612,47
1766015915.30576,46
1766015915.3067641,44
1766015915.3077781,45
