timestamp,emg_value
1766015908.882615,43
1766015908.882648,40
1766015908.882688,37
1766015908.882716,37
1766015908.8827431,39
1766015908.8827698,39
1766015908.882797,40
1766015908.882824,35
1766015908.8828511,37
1766015908.882879,33
1766015908.882905,40
1766015908.882932,41
1766015908.8829591,37
1766015908.8829849,41
1766015908.883011,40
1766015908.883038,42
1766015908.883064,42
1766015908.883091,46
1766015908.8831182,46
1766015908.883144,42
1766015908.8831701,44
1766015908.8831959,43
1766015908.883223,44
1766015908.88325,46
1766015908.883276,46
1766015908.883303,45
1766015908.883329,41
1766015908.883355,42
1766015908.883381,42
1766015908.883407,41
1766015908.8834329,41
1766015908.88346,42
1766015908.8834949,40
1766015908.883522,45
1766015908.8835452,39
1766015908.88356,44
1766015908.8835762,40
1766015908.883591,39
1766015908.883606,40
1766015908.8836212,45
1766015908.883637,42
1766015908.8836532,40
1766015908.8836741,42
1766015908.883691,41
1766015908.883708,42
1766015908.883723,43
1766015908.883738,40
1766015908.883753,43
1766015908.883768,42
1766015908.8837829,44
1766015908.8837981,44
1766015908.8838131,39
1766015908.883828,41
1766015908.8838432,42
1766015908.883858,40
1766015908.883873,40
1766015908.8838882,38
1766015908.883903,40
1766015908.883918,39
1766015908.8839328,36
1766015908.883948,37
1766015908.8839629,39
1766015908.883978,37
1766015908.8839948,42
1766015908.884017,39
1766015908.884038,39
1766015908.884056,37
1766015908.8840709,40
1766015908.8840861,40
1766015908.8841012,39
1766015908.884116,39
1766015908.884131,41
1766015908.884146,38
1766015908.884161,40
1766015908.884186,39
1766015908.884201,39
1766015908.884216,39
1766015908.884234,37
1766015908.884249,39
1766015908.884264,37
1766015908.884279,38
1766015908.8842938,34
1766015908.884309,38
1766015908.884324,37
1766015908.88434,37
1766015908.884362,35
1766015908.884377,34
1766015908.884392,35
1766015908.884407,35
1766015908.884423,37
1766015908.884438,39
1766015908.884453,41
1766015908.884468,41
1766015908.884486,36
1766015908.884501,42
1766015908.884516,42
1766015908.884532,40
1766015908.884554,40
1766015908.8845718,41
1766015908.884587,42
1766015908.8846028,38
1766015908.884618,39
1766015908.884633,40
1766015908.884649,40
1766015908.884664,40
1766015908.884685,41
1766015908.884701,38
1766015908.884716,43
1766015908.8847308,41
1766015908.8847518,42
1766015908.884767,43
1766015908.884782,41
1766015908.8847969,42
1766015908.884812,43
1766015908.884827,41
1766015908.884852,35
1766015908.884867,39
1766015908.884883,38
1766015908.884901,35
1766015908.884917,40
1766015908.884931,41
1766015908.884947,41
1766015908.884962,41
1766015908.8849769,39
1766015908.884992,39
1766015908.8850071,42
1766015908.885022,41
1766015908.885037,40
1766015908.885052,43
1766015908.8850749,41
1766015908.885092,40
1766015908.88511,41
1766015908.8851252,44
1766015908.88514,39
1766015908.885155,40
1766015908.88517,38
1766015908.885185,37
1766015908.8851998,41
1766015908.885215,37
1766015908.88523,40
1766015908.8852448,40
1766015908.88526,37
1766015908.885277,38
1766015908.885292,37
1766015908.8853068,36
1766015908.885322,37
1766015908.885337,37
1766015908.885352,36
1766015908.8853672,37
1766015908.885382,39
1766015908.885397,36
1766015908.885412,40
1766015908.885427,37
1766015908.885442,35
1766015908.8854568,40
1766015908.885474,33
1766015908.885491,35
1766015908.8855062,37
1766015908.885519,38
1766015908.885532,37
1766015908.885545,35
1766015908.8855581,37
1766015908.8855748,35
1766015908.88559,37
1766015908.885602,36
1766015908.885615,36
1766015908.885628,34
1766015908.8856409,39
1766015908.885654,35
1766015908.8856661,33
1766015908.885679,37
1766015908.885692,35
1766015908.885707,38
1766015908.8857229,37
1766015908.885736,35
1766015908.885749,33
1766015908.885761,34
1766015908.8857741,37
1766015908.885789,35
1766015908.885802,33
1766015908.8858151,37
1766015908.885828,35
1766015908.88584,37
1766015908.8858528,35
1766015908.885866,36
1766015908.885879,34
1766015908.8858922,36
1766015908.8859048,35
1766015908.885917,35
1766015908.88593,37
1766015908.885943,34
1766015908.885956,36
1766015908.885968,37
1766015908.8859808,36
1766015908.885998,38
1766015908.886011,37
1766015908.886077,34
1766015908.886094,33
1766015908.8861089,37
1766015908.886122,32
1766015908.886136,35
1766015908.88615,35
1766015908.886163,34
1766015908.886177,35
1766015908.8861902,35
1766015908.8862028,34
1766015908.886216,37
1766015908.886229,36
1766015908.8862422,34
1766015908.886255,35
1766015908.886268,34
1766015908.886281,36
1766015908.8862941,37
1766015908.886307,41
1766015908.886322,43
1766015908.886336,38
1766015908.886349,40
1766015908.886362,44
1766015908.886375,42
1766015908.886388,46
1766015908.886401,47
1766015908.886414,46
1766015908.886427,46
1766015908.88644,44
1766015908.886453,44
1766015908.886466,43
1766015908.8864791,43
1766015908.886497,42
1766015908.886512,43
1766015908.886525,43
1766015908.886538,44
1766015908.8865511,43
1766015908.886563,44
1766015908.8865778,42
1766015908.88659,43
1766015908.886604,46
1766015908.8866172,43
1766015908.886629,42
1766015908.886644,44
1766015908.886657,42
1766015908.886673,41
1766015908.8866858,40
1766015908.886699,42
1766015908.886712,40
1766015908.8867252,39
1766015908.8867378,39
1766015908.88675,42
1766015908.886764,39
1766015908.886776,40
1766015908.886789,42
1766015908.886802,39
1766015908.886815,38
1766015908.886828,40
1766015908.886841,38
1766015908.886854,39
1766015908.886867,41
1766015908.88688,38
1766015908.886893,40
1766015908.8869052,40
1766015908.88692,39
1766015908.886935,42
1766015908.8869472,41
1766015908.88696,42
1766015908.8869739,44
1766015908.886987,39
1766015908.8869991,37
1766015908.8870149,36
1766015908.887028,38
1766015908.887042,37
1766015908.8870552,36
1766015908.8870678,36
1766015908.887082,38
1766015908.887094,38
1766015908.8871071,41
1766015908.8871198,36
1766015908.8871338,34
1766015908.887147,38
1766015908.887161,37
1766015908.8871732,37
1766015908.887187,35
1766015908.8872,33
1766015908.887212,36
1766015908.8872252,31
1766015908.887239,36
1766015908.8872519,35
1766015908.887265,33
1766015908.887278,32
1766015908.887291,35
1766015908.8873038,35
1766015908.887317,32
1766015908.887331,36
1766015908.8873448,32
1766015908.88736,32
1766015908.887372,31
1766015908.8873851,31
1766015908.887398,35
1766015908.8874109,31
1766015908.887424,32
1766015908.88744,30
1766015908.887454,32
1766015908.887467,32
1766015908.887479,34
1766015908.8874922,28
1766015908.887506,29
1766015908.887519,31
1766015908.887531,27
1766015908.8875442,33
1766015908.887557,31
1766015908.8875709,32
1766015908.887585,29
1766015908.887598,32
1766015908.887611,31
1766015908.887624,33
1766015908.887636,32
1766015908.887649,30
1766015908.8876631,31
1766015908.8876832,26
1766015908.8876958,32
1766015908.887709,26
1766015908.887723,32
1766015908.887736,32
1766015908.8877492,27
1766015908.8877618,31
1766015908.887777,30
1766015908.8877912,30
1766015908.8878038,32
1766015908.887817,30
1766015908.887831,31
1766015908.887844,30
1766015908.887857,29
1766015908.887871,30
1766015908.887885,30
1766015908.8878982,28
1766015908.8879108,29
1766015908.887924,29
1766015908.887938,29
1766015908.8879511,31
1766015908.887964,29
1766015908.887978,29
1766015908.8879921,28
1766015908.888005,29
1766015908.888018,31
1766015908.88803,29
1766015908.888045,29
1766015908.8880582,29
1766015908.8880708,28
1766015908.888087,26
1766015908.8881018,27
1766015908.888115,31
1766015908.888128,27
1766015908.888142,27
1766015908.8881578,30
1766015908.88817,27
1766015908.888185,30
1766015908.8881989,27
1766015908.888213,27
1766015908.888226,28
1766015908.8882408,28
1766015908.888255,26
1766015908.888268,25
1766015908.888281,29
1766015908.888294,30
1766015908.8883069,24
1766015908.88832,27
1766015908.888334,27
1766015908.888347,26
1766015908.8883588,25
1766015908.888372,26
1766015908.888385,25
1766015908.8883982,27
1766015908.888412,27
1766015908.8884249,29
1766015908.888438,28
1766015908.888451,26
1766015908.888464,24
1766015908.8884768,25
1766015908.88849,31
1766015908.888503,28
1766015908.8885162,25
1766015908.8885288,23
1766015908.888542,24
1766015908.888555,29
1766015908.8885682,24
1766015908.888581,26
1766015908.888593,25
1766015908.8886058,29
1766015908.888621,25
1766015908.8886342,26
1766015908.8886468,30
1766015908.888662,26
1766015908.8886862,26
1766015908.8887,23
1766015908.888713,27
1766015908.888727,26
1766015908.88874,23
1766015908.888753,29
1766015908.888766,24
1766015908.888779,21
1766015908.888792,27
1766015908.8888052,27
1766015908.888818,25
1766015908.888832,26
1766015908.888845,27
1766015908.888858,25
1766015908.888871,25
1766015908.8888829,20
1766015908.888897,24
1766015908.888909,24
1766015908.8889222,24
1766015908.8889349,22
1766015908.888948,24
1766015908.888961,25
1766015908.8889742,22
1766015908.888986,26
1766015908.888999,24
1766015908.8890119,27
1766015908.889025,25
1766015908.889038,22
1766015908.889051,26
1766015908.8890638,25
1766015908.889077,25
1766015908.88909,24
1766015908.889107,24
1766015908.88912,22
1766015908.889133,24
1766015908.889146,26
1766015908.889159,28
1766015908.889172,25
1766015908.889184,22
1766015908.889197,26
1766015908.8892102,25
1766015908.8892229,26
1766015908.889236,26
1766015908.889249,25
1766015908.889262,22
1766015908.8892741,21
1766015908.889288,24
1766015908.889301,22
1766015908.889314,25
1766015908.889326,22
1766015908.889339,22
1766015908.8893518,25
1766015908.889366,24
1766015908.889379,24
1766015908.8893912,25
1766015908.8894038,22
1766015908.889417,26
1766015908.889432,24
1766015908.889447,23
1766015908.889461,23
1766015908.8894742,22
1766015908.889487,23
1766015908.8895,24
1766015908.889513,25
1766015908.889527,25
1766015908.8895402,21
1766015908.8895612,22
1766015908.889577,23
1766015908.8895922,25
1766015908.889606,24
1766015908.8896189,20
1766015908.889632,23
1766015908.889647,22
1766015908.889662,25
1766015908.889675,26
1766015908.889693,23
1766015908.889706,26
1766015908.889719,24
1766015908.8897321,24
1766015908.889745,22
1766015908.8897579,23
1766015908.889771,24
1766015908.8897831,27
1766015908.889796,23
1766015908.889809,25
1766015908.889823,27
1766015908.889836,24
1766015908.8898492,22
1766015908.889861,27
1766015908.889874,22
1766015908.889887,26
1766015908.8899,27
1766015908.889913,24
1766015908.889926,23
1766015908.8899388,22
1766015908.889952,28
1766015908.8899672,22
1766015908.889985,26
1766015908.8899982,28
1766015908.8900118,26
1766015908.890025,26
1766015908.890038,27
1766015908.8900511,30
1766015908.8900638,28
1766015908.8900769,27
1766015908.89009,25
1766015908.890102,27
1766015908.890115,25
1766015908.890128,26
1766015908.890141,28
1766015908.890157,27
1766015908.890172,23
1766015908.890186,27
1766015908.890199,23
1766015908.890215,25
1766015908.890229,25
1766015908.8902452,25
1766015908.8902578,27
1766015908.890271,24
1766015908.890284,26
1766015908.8902972,23
1766015908.8903098,24
1766015908.890323,25
1766015908.890335,26
1766015908.890348,24
1766015908.890361,23
1766015908.890374,26
1766015908.890387,25
1766015908.8904,24
1766015908.8904152,27
1766015908.890431,22
1766015908.890445,24
1766015908.890458,24
1766015908.890471,23
1766015908.8904839,27
1766015908.890497,24
1766015908.8905091,24
1766015908.890522,24
1766015908.8905349,24
1766015908.890548,25
1766015908.890561,26
1766015908.890574,25
1766015908.8905869,28
1766015908.890599,24
1766015908.890612,25
1766015908.890625,24
1766015908.890638,24
1766015908.89065,28
1766015908.890663,24
1766015908.890677,26
1766015908.890691,26
1766015908.8907058,25
1766015908.890719,22
1766015908.890732,23
1766015908.8907452,24
1766015908.890757,27
1766015908.89077,29
1766015908.890783,26
1766015908.890796,24
1766015908.890809,25
1766015908.890822,23
1766015908.8908339,26
1766015908.890851,25
1766015908.8908658,23
1766015908.890879,25
1766015908.890892,28
1766015908.890904,25
1766015908.890917,24
1766015908.89093,22
1766015908.890943,24
1766015908.890955,27
1766015908.890968,23
1766015908.8909812,23
1766015908.8909938,26
1766015908.891007,25
1766015908.89102,22
1766015908.8910332,22
1766015908.8910458,22
1766015908.891058,24
1766015908.891071,27
1766015908.891084,26
1766015908.891097,24
1766015908.89111,25
1766015908.891123,27
1766015908.891136,26
1766015908.891149,23
1766015908.8911629,28
1766015908.891176,23
1766015908.891189,25
1766015908.891202,28
1766015908.891215,23
1766015908.891228,23
1766015908.89124,24
1766015908.891253,24
1766015908.891268,25
1766015908.891284,28
1766015908.891298,23
1766015908.89131,24
1766015908.8913229,27
1766015908.891336,25
1766015908.891349,26
1766015908.891362,23
1766015908.891375,24
1766015908.891388,28
1766015908.891401,28
1766015908.891414,24
1766015908.891427,28
1766015908.8914402,24
1766015908.891453,24
1766015908.891466,28
1766015908.891478,23
1766015908.8914912,25
1766015908.891505,27
1766015908.8915179,24
1766015908.89153,23
1766015908.891544,23
1766015908.891559,25
1766015908.891574,25
1766015908.8915899,24
1766015908.891605,25
1766015908.891618,25
1766015908.8916311,26
1766015908.891644,26
1766015908.891656,28
1766015908.891669,24
1766015908.8916879,23
1766015908.891701,26
1766015908.891723,23
1766015908.891737,25
1766015908.8917499,25
1766015908.891762,27
1766015908.891775,25
1766015908.891788,27
1766015908.891801,26
1766015908.891814,24
1766015908.891826,28
1766015908.891839,25
1766015908.8918521,25
1766015908.891865,26
1766015908.891878,26
1766015908.8918898,27
1766015908.891903,27
1766015908.891916,25
1766015908.8919291,23
1766015908.8919418,29
1766015908.891961,25
1766015908.891975,25
1766015908.891988,28
1766015908.892001,26
1766015908.892014,26
1766015908.8920262,24
1766015908.8920388,25
1766015908.892052,26
1766015908.892065,27
1766015908.8920782,25
1766015908.89209,29
1766015908.892103,27
1766015908.892116,27
1766015908.892129,24
1766015908.892143,26
1766015908.892159,27
1766015908.892173,26
1766015908.8921862,29
1766015908.8921988,26
1766015908.892212,26
1766015908.892225,25
1766015908.892237,26
1766015908.89225,29
1766015908.892263,26
1766015908.892276,27
1766015908.892288,25
1766015908.892301,28
1766015908.8923142,25
1766015908.8923268,27
1766015908.892339,25
1766015908.892352,27
1766015908.892365,25
1766015908.892378,27
1766015908.892391,27
1766015908.892413,29
1766015908.892432,25
1766015908.8924549,30
1766015908.892468,24
1766015908.892482,29
1766015908.8924952,27
1766015908.8925068,29
1766015908.89252,29
1766015908.892533,26
1766015908.892545,26
1766015908.892558,27
1766015908.892571,26
1766015908.8925838,29
1766015908.892599,28
1766015908.892612,26
1766015908.892624,27
1766015908.892637,27
1766015908.89265,25
1766015908.892662,26
1766015908.8926752,26
1766015908.892694,24
1766015908.892707,27
1766015908.8927202,28
1766015908.892732,29
1766015908.892745,27
1766015908.8927581,30
1766015908.892771,30
1766015908.892784,26
1766015908.892797,28
1766015908.8928099,26
1766015908.892822,26
1766015908.8928351,28
1766015908.892848,28
1766015908.892861,25
1766015908.892873,24
1766015908.892886,25
1766015908.892899,25
1766015908.8929121,27
1766015908.892925,26
1766015908.892938,28
1766015908.89295,26
1766015908.8929632,26
1766015908.892976,27
1766015908.892989,26
1766015908.893002,26
1766015908.893016,26
1766015908.8930292,24
1766015908.8930418,25
1766015908.893054,25
1766015908.8930671,30
1766015908.89308,27
1766015908.893093,26
1766015908.893106,25
1766015908.893118,25
1766015908.893131,24
1766015908.8931441,26
1766015908.893157,23
1766015908.8931699,26
1766015908.893182,26
1766015908.893195,25
1766015908.893208,30
1766015908.8932211,25
1766015908.893234,27
1766015908.893246,25
1766015908.893259,28
1766015908.8932722,28
1766015908.893285,26
1766015908.893297,25
1766015908.893311,27
1766015908.8933241,26
1766015908.893336,24
1766015908.893352,28
1766015908.893373,26
1766015908.893385,26
1766015908.893398,28
1766015908.8934112,25
1766015908.893423,28
1766015908.893434,28
1766015908.8934479,29
1766015908.893461,30
1766015908.893473,24
1766015908.893484,28
1766015908.893495,29
1766015908.893507,26
1766015908.893518,27
1766015908.8935292,28
1766015908.893541,27
1766015908.893554,25
1766015908.893599,27
1766015908.893625,27
1766015908.8936372,26
1766015908.8936489,26
1766015908.893662,29
1766015908.893674,27
1766015908.893685,29
1766015908.893697,26
1766015908.893709,25
1766015908.8937228,29
1766015908.893734,26
1766015908.893746,27
1766015908.8937569,27
1766015908.893769,27
1766015908.89378,22
1766015908.893791,22
1766015908.8938031,27
1766015908.893814,24
1766015908.893825,28
1766015908.893837,24
1766015908.8938482,25
1766015908.8938591,27
1766015908.89387,27
1766015908.8938859,23
1766015908.8939,27
1766015908.8939111,29
1766015908.893922,23
1766015908.893933,28
1766015908.893945,27
1766015908.8939562,24
1766015908.8939672,22
1766015908.893978,28
1766015908.8939898,25
1766015908.894001,26
1766015908.894012,28
1766015908.894023,24
1766015908.894034,24
1766015908.894046,22
1766015908.894057,30
1766015908.894068,25
1766015908.89408,24
1766015908.894091,27
1766015908.894102,25
1766015908.894113,28
1766015908.894125,24
1766015908.894136,27
1766015908.8941472,25
1766015908.8941581,27
1766015908.89417,24
1766015908.894181,27
1766015908.8941922,24
1766015908.894203,27
1766015908.8942149,26
1766015908.8942258,29
1766015908.894237,27
1766015908.89425,25
1766015908.894264,25
1766015908.8942761,27
1766015908.8942878,27
1766015908.8942988,24
1766015908.89431,27
1766015908.894322,24
1766015908.894333,25
1766015908.8943439,25
1766015908.894355,21
1766015908.894367,28
1766015908.894378,25
1766015908.89439,26
1766015908.894401,24
1766015908.894412,28
1766015908.894424,26
1766015908.8944352,25
1766015908.8944461,22
1766015908.894457,23
1766015908.894468,22
1766015908.89448,29
1766015908.894491,25
1766015908.894502,25
1766015908.894513,25
1766015908.8945248,25
1766015908.894536,23
1766015908.894547,28
1766015908.894558,22
1766015908.8945699,28
1766015908.894581,24
1766015908.894592,26
1766015908.894604,23
1766015908.894615,24
1766015908.89463,25
1766015908.8946428,26
1766015908.894654,26
1766015908.894666,25
1766015908.894677,26
1766015908.894691,23
1766015908.8947022,25
1766015908.8947132,23
1766015908.8947241,24
1766015908.8947358,25
1766015908.8947468,22
1766015908.894759,25
1766015908.89477,22
1766015908.894784,25
1766015908.894801,23
1766015908.8948128,25
1766015908.894825,24
1766015908.894837,24
1766015908.89485,26
1766015908.894861,29
1766015908.8948731,26
1766015908.894884,26
1766015908.894895,24
1766015908.894907,24
1766015908.894918,25
1766015908.894929,27
1766015908.8949409,27
1766015908.8949518,25
1766015908.894964,23
1766015908.894975,26
1766015908.894986,24
1766015908.894997,22
1766015908.8950112,25
1766015908.895025,23
1766015908.895037,25
1766015908.895048,25
1766015908.8950589,25
1766015908.8950698,27
1766015908.895082,22
1766015908.895093,24
1766015908.895104,24
1766015908.895115,26
1766015908.895127,27
1766015908.895138,22
1766015908.895149,24
1766015908.8951612,26
1766015908.895172,25
1766015908.8951838,30
1766015908.8951948,26
1766015908.895206,25
1766015908.895218,29
1766015908.8952289,26
1766015908.8952398,27
1766015908.895251,24
1766015908.895263,23
1766015908.895274,26
1766015908.895285,25
1766015908.895297,26
1766015908.895308,25
1766015908.895319,26
1766015908.89533,26
1766015908.895342,25
1766015908.895353,22
1766015908.895364,25
1766015908.895375,22
1766015908.89539,28
1766015908.895403,27
1766015908.895414,26
1766015908.895426,25
1766015908.895437,25
1766015908.895448,25
1766015908.8954601,26
1766015908.895471,23
1766015908.895482,22
1766015908.895494,24
1766015908.895506,26
1766015908.89552,26
1766015908.895533,22
1766015908.895545,24
1766015908.8955562,25
1766015908.895568,23
1766015908.8955789,26
1766015908.8955898,21
1766015908.8956008,25
1766015908.895613,23
1766015908.895624,25
1766015908.895635,25
1766015908.895647,25
1766015908.895658,25
1766015908.895669,25
1766015908.8956811,23
1766015908.895692,23
1766015908.895703,23
1766015908.895715,23
1766015908.8957288,23
1766015908.895741,21
1766015908.895752,26
1766015908.895766,26
1766015908.89578,25
1766015908.8957922,26
1766015908.895803,27
1766015908.895814,24
1766015908.8958259,25
1766015908.8958368,24
1766015908.895848,27
1766015908.895859,28
1766015908.895871,26
1766015908.895882,25
1766015908.895893,24
1766015908.895904,24
1766015908.895915,27
1766015908.895927,26
1766015908.8959382,25
1766015908.8959491,28
1766015908.89596,26
1766015908.895971,28
1766015908.895982,27
1766015908.8959942,23
1766015908.8960052,25
1766015908.896016,26
1766015908.8960268,25
1766015908.896039,26
1766015908.89605,28
1766015908.896061,28
1766015908.896072,26
1766015908.896084,26
1766015908.896095,27
1766015908.896107,24
1766015908.896119,27
1766015908.896131,24
1766015908.8961458,24
1766015908.896159,24
1766015908.896171,27
1766015908.896182,25
1766015908.896193,26
1766015908.896204,25
1766015908.896215,28
1766015908.8962271,22
1766015908.896238,24
1766015908.896249,27
1766015908.8962612,25
1766015908.896272,27
1766015908.8962848,25
1766015908.896298,25
1766015908.89631,26
1766015908.896321,26
1766015908.8963342,20
1766015908.896346,27
1766015908.896357,24
1766015908.896369,24
1766015908.89638,23
1766015908.896391,25
1766015908.896402,22
1766015908.896414,22
1766015908.896425,24
1766015908.896436,23
1766015908.896448,28
1766015908.896461,26
1766015908.8964732,28
1766015908.8964841,26
1766015908.896496,25
1766015908.8965068,25
1766015908.89652,24
1766015908.896532,26
1766015908.896543,24
1766015908.896555,27
1766015908.896566,26
1766015908.8965771,26
1766015908.896589,23
1766015908.8966,23
1766015908.896611,25
1766015908.8966231,24
1766015908.896634,25
1766015908.896645,22
1766015908.896657,27
1766015908.896668,25
1766015908.896679,26
1766015908.8966908,24
1766015908.896702,25
1766015908.896716,26
1766015908.896727,27
1766015908.896738,28
1766015908.89675,27
1766015908.8967612,31
1766015908.8967721,29
1766015908.896783,31
1766015908.8967948,32
1766015908.896806,29
1766015908.896817,29
1766015908.896829,29
1766015908.8968399,30
1766015908.896851,30
1766015908.896863,31
1766015908.896874,30
1766015908.896885,28
1766015908.8969002,30
1766015908.896914,31
1766015908.896926,29
1766015908.896938,33
1766015908.896949,30
1766015908.89696,28
1766015908.896971,31
1766015908.896982,33
1766015908.896993,31
1766015908.897005,30
1766015908.897016,33
1766015908.897027,30
1766015908.897038,32
1766015908.8970492,31
1766015908.8970602,30
1766015908.8970711,33
1766015908.8970828,32
1766015908.8970938,33
1766015908.897105,32
1766015908.897116,31
1766015908.897127,33
1766015908.8971388,32
1766015908.89715,30
1766015908.897161,34
1766015908.897172,30
1766015908.897184,29
1766015908.897195,32
1766015908.897206,29
1766015908.897217,28
1766015908.897228,28
1766015908.8972402,32
1766015908.8972511,30
1766015908.8972642,30
1766015908.897279,29
1766015908.897291,31
1766015908.897303,28
1766015908.897316,28
1766015908.8973281,33
1766015908.8973389,30
1766015908.8973498,29
1766015908.8973608,30
1766015908.8973708,29
1766015908.897381,31
1766015908.897391,28
1766015908.897401,31
1766015908.897412,28
1766015908.8974211,27
1766015908.897432,32
1766015908.897442,27
1766015908.897452,31
1766015908.8974621,31
1766015908.897473,29
1766015908.897483,34
1766015908.897493,32
1766015908.897503,30
1766015908.897513,30
1766015908.897523,33
1766015908.897533,31
1766015908.897543,32
1766015908.897553,30
1766015908.897563,34
1766015908.897574,33
1766015908.8975842,34
1766015908.897595,27
1766015908.8976052,33
1766015908.8976169,32
1766015908.897629,30
1766015908.89764,27
1766015908.89765,33
1766015908.89766,32
1766015908.8976698,31
1766015908.8976798,34
1766015908.89769,32
1766015908.8977,29
1766015908.89771,29
1766015908.897722,31
1766015908.897734,32
1766015908.897744,35
1766015908.8977542,35
1766015908.8977642,36
1766015908.8977752,33
1766015908.8977869,35
1766015908.8977978,35
1766015908.8978078,36
1766015908.897818,38
1766015908.897828,39
1766015908.897838,39
1766015908.897847,36
1766015908.897857,36
1766015908.897867,38
1766015908.897877,38
1766015908.897887,36
1766015908.897897,34
1766015908.897907,35
1766015908.897917,36
1766015908.897929,34
1766015908.897939,38
1766015908.897951,39
1766015908.897961,38
1766015908.897971,38
1766015908.897981,38
1766015908.8979928,38
1766015908.8980029,37
1766015908.898014,38
1766015908.898023,39
1766015908.8980339,36
1766015908.8980439,39
1766015908.898054,35
1766015908.898064,34
1766015908.8980742,40
1766015908.8980842,37
1766015908.8980942,38
1766015908.898104,38
1766015908.898114,36
1766015908.898124,34
1766015908.898135,36
1766015908.898145,39
1766015908.898155,39
1766015908.898165,43
1766015908.898177,41
1766015908.898187,40
1766015908.898197,42
1766015908.898207,39
1766015908.898218,42
1766015908.898228,45
1766015908.898238,44
1766015908.898248,44
1766015908.898258,43
1766015908.898268,47
1766015908.898279,42
1766015908.898292,45
1766015908.898304,45
1766015908.898314,44
1766015908.898324,47
1766015908.898334,44
1766015908.898344,47
1766015908.8983538,43
1766015908.8983638,46
1766015908.8983738,48
1766015908.8983839,50
1766015908.898394,48
1766015908.8984041,49
1766015908.8984141,48
1766015908.898425,51
1766015908.898435,53
1766015908.8984451,56
1766015908.898456,56
1766015908.898466,56
1766015908.8984761,56
1766015908.898485,58
1766015908.898496,57
1766015908.898506,59
1766015908.898516,57
1766015908.898526,56
1766015908.898536,60
1766015908.898546,59
1766015908.898556,57
1766015908.8985658,56
1766015908.8985758,61
1766015908.898586,58
1766015908.898596,57
1766015908.898606,58
1766015908.898617,62
1766015908.8986292,57
1766015908.8986409,59
1766015908.898653,60
1766015908.898664,60
1766015908.898674,63
1766015908.8986838,61
1766015908.8986938,61
1766015908.898705,65
1766015908.898716,62
1766015908.898728,65
1766015908.8987389,64
1766015908.8987489,62
1766015908.898759,65
1766015908.8987699,63
1766015908.8987799,63
1766015908.89879,63
1766015908.8988001,65
1766015908.8988101,60
1766015908.898819,60
1766015908.898829,59
1766015908.898839,62
1766015908.898849,60
1766015908.898859,59
1766015908.898869,58
1766015908.898879,61
1766015908.898889,59
1766015908.8988988,59
1766015908.8989089,57
1766015908.8989189,55
1766015908.8989289,58
1766015908.898939,55
1766015908.8989499,59
1766015908.898962,58
1766015908.898974,52
1766015908.898985,58
1766015908.898995,54
1766015908.899005,51
1766015908.899015,56
1766015908.899025,54
1766015908.899035,55
1766015908.8990452,58
1766015908.899055,53
1766015908.899065,55
1766015908.899075,54
1766015908.899085,54
1766015908.899095,54
1766015908.899105,53
1766015908.899115,55
1766015908.899125,50
1766015908.8991349,53
1766015908.899145,52
1766015908.899155,55
1766015908.899165,52
1766015908.899175,52
1766015908.899185,50
1766015908.899196,52
1766015908.899206,50
1766015908.899216,50
1766015908.8992262,49
1766015908.8992362,48
1766015908.899246,48
1766015908.899256,48
1766015908.899266,52
1766015908.899276,47
1766015908.89937,49
1766015908.8993971,48
1766015908.89941,47
1766015908.899424,46
1766015908.899436,47
1766015908.899449,46
1766015908.899462,46
1766015908.899474,47
1766015908.899487,48
1766015908.8995001,46
1766015908.899512,46
1766015908.8995252,50
1766015908.8995368,45
1766015908.89955,46
1766015908.899563,48
1766015908.899575,47
1766015908.899588,45
1766015908.899601,46
1766015908.899613,45
1766015908.899626,43
1766015908.899638,45
1766015908.899651,43
1766015908.899664,46
1766015908.899712,46
1766015908.899787,47
1766015908.8998,46
1766015908.899859,45
1766015908.899905,48
1766015908.899916,47
1766015908.899925,47
1766015908.899935,46
1766015908.899945,44
1766015908.899955,47
1766015908.899968,46
1766015908.899979,45
1766015908.899992,45
1766015908.900029,41
1766015908.900068,44
1766015908.900079,43
1766015908.900089,42
1766015908.900099,42
1766015908.900127,44
1766015908.9001641,43
1766015908.900218,42
1766015908.900234,45
1766015908.900247,41
1766015908.9002612,42
1766015908.900274,42
1766015908.900286,42
1766015908.900299,41
1766015908.900312,42
1766015908.900325,42
1766015908.900337,40
1766015908.9003499,39
1766015908.900363,40
1766015908.9003751,41
1766015908.900388,41
1766015908.9004002,40
1766015908.900413,43
1766015908.900435,41
1766015908.900448,38
1766015908.900461,41
1766015908.900474,42
1766015908.900486,39
1766015908.9004989,39
1766015908.900512,39
1766015908.900529,39
1766015908.900543,39
1766015908.900556,40
1766015908.900568,41
1766015908.9005811,43
1766015908.9005928,37
1766015908.900606,35
1766015908.900619,40
1766015908.900644,39
1766015908.900657,43
1766015908.9006689,39
1766015908.900682,38
1766015908.900695,39
1766015908.900716,38
1766015908.900728,39
1766015908.900741,37
1766015908.9007528,37
1766015908.900766,37
1766015908.900778,40
1766015908.900791,36
1766015908.900803,40
1766015908.900816,38
1766015908.900828,36
1766015908.900841,36
1766015908.900853,36
1766015908.900866,37
1766015908.9008791,37
1766015908.9008908,34
1766015908.900904,36
1766015908.900917,35
1766015908.9009302,36
1766015908.900942,39
1766015908.900954,36
1766015908.900974,36
1766015908.900987,37
1766015908.901,34
1766015908.901012,32
1766015908.901025,36
1766015908.9010382,35
1766015908.90105,31
1766015908.901063,34
1766015908.901076,37
1766015908.901088,32
1766015908.9011,37
1766015908.901113,33
1766015908.901132,36
1766015908.901145,36
1766015908.9011571,33
1766015908.90117,35
1766015908.901182,36
1766015908.901195,34
1766015908.901207,34
1766015908.90122,35
1766015908.9012322,34
1766015908.901244,31
1766015908.901257,30
1766015908.90127,35
1766015908.901282,33
1766015908.9012952,33
1766015908.9013078,32
1766015908.901319,33
1766015908.9013288,36
1766015908.90134,34
1766015908.9013498,32
1766015908.901361,28
1766015908.901375,33
1766015908.901386,32
1766015908.901398,33
1766015908.901408,29
1766015908.901419,35
1766015908.9014301,33
1766015908.90144,34
1766015908.9014559,31
1766015908.9014668,31
1766015908.9014778,31
1766015908.901488,32
1766015908.9014988,33
1766015908.901509,33
1766015908.9015198,32
1766015908.90153,33
1766015908.9015412,32
1766015908.901551,31
1766015908.9015622,30
1766015908.9015732,28
1766015908.9015832,28
1766015908.9015942,33
1766015908.9016051,33
1766015908.9016151,30
1766015908.901626,30
1766015908.9016361,30
1766015908.901647,33
1766015908.901658,34
1766015908.901668,33
1766015908.901679,30
1766015908.9017081,31
1766015908.90172,33
1766015908.901731,32
1766015908.901742,34
1766015908.9017532,31
1766015908.9017699,30
1766015908.901781,34
1766015908.9017909,30
1766015908.901802,28
1766015908.901813,33
1766015908.901824,30
1766015908.901835,33
1766015908.901845,29
1766015908.901856,30
1766015908.901867,30
1766015908.901877,31
1766015908.901888,35
1766015908.901898,31
1766015908.9019089,31
1766015908.901919,31
1766015908.90193,34
1766015908.901941,31
1766015908.901951,30
1766015908.901962,30
1766015908.901973,30
1766015908.901983,31
1766015908.901993,30
1766015908.902004,28
1766015908.902015,33
1766015908.902026,32
1766015908.902036,30
1766015908.902047,27
1766015908.902058,32
1766015908.902068,30
1766015908.9020789,32
1766015908.90209,29
1766015908.9021,28
1766015908.9021142,28
1766015908.902127,33
1766015908.902138,31
1766015908.902148,27
1766015908.9021592,30
1766015908.902169,31
1766015908.9021802,31
1766015908.902192,29
1766015908.902241,28
1766015908.9022532,27
1766015908.902265,28
1766015908.902276,28
1766015908.902297,24
1766015908.90231,26
1766015908.9023209,29
1766015908.9023318,29
1766015908.9023428,28
1766015908.9023528,26
1766015908.902364,28
1766015908.902375,29
1766015908.902386,27
1766015908.902396,30
1766015908.902407,30
1766015908.902417,27
1766015908.902428,29
1766015908.902438,28
1766015908.902449,30
1766015908.9024599,28
1766015908.9024699,30
1766015908.9024808,29
1766015908.9024909,29
1766015908.9025018,31
1766015908.9025128,26
1766015908.902526,27
1766015908.9025369,27
1766015908.902548,28
1766015908.902559,27
1766015908.902569,29
1766015908.90258,30
1766015908.90259,27
1766015908.902601,25
1766015908.902611,27
1766015908.902622,25
1766015908.902632,26
1766015908.902643,26
1766015908.902653,29
1766015908.902664,26
1766015908.902674,28
1766015908.902685,26
1766015908.902696,25
1766015908.902706,31
1766015908.9027169,28
1766015908.902727,25
1766015908.9027379,25
1766015908.9027488,28
1766015908.90276,31
1766015908.9027698,28
1766015908.902781,28
1766015908.902792,29
1766015908.902802,26
1766015908.902813,29
1766015908.902823,27
1766015908.902834,27
1766015908.902844,27
1766015908.902854,29
1766015908.902865,26
1766015908.90288,25
1766015908.902891,27
1766015908.9029021,26
1766015908.902913,25
1766015908.902923,28
1766015908.902934,26
1766015908.902944,31
1766015908.902955,25
1766015908.902965,27
1766015908.902976,27
1766015908.902986,27
1766015908.902997,26
1766015908.903007,28
1766015908.903018,23
1766015908.903029,26
1766015908.903039,26
1766015908.90305,25
1766015908.903061,27
1766015908.903071,27
1766015908.903082,27
1766015908.903092,26
1766015908.9031029,27
1766015908.903113,24
1766015908.9031239,24
1766015908.903135,25
1766015908.903145,26
1766015908.903156,27
1766015908.903167,25
1766015908.903177,24
1766015908.903188,27
1766015908.903198,28
1766015908.903209,26
1766015908.90322,23
1766015908.903234,26
1766015908.903245,21
1766015908.903255,24
1766015908.903266,23
1766015908.9032772,27
1766015908.903287,25
1766015908.9032981,23
1766015908.903308,26
1766015908.9033191,26
1766015908.9033291,23
1766015908.90334,25
1766015908.90335,26
1766015908.903361,26
1766015908.903372,25
1766015908.903382,25
1766015908.903393,27
1766015908.903403,26
1766015908.903414,24
1766015908.903424,24
1766015908.903435,24
1766015908.903445,25
1766015908.903456,24
1766015908.903469,22
1766015908.903479,24
1766015908.90349,19
1766015908.9035,27
1766015908.903511,25
1766015908.903521,23
1766015908.903532,25
1766015908.903543,24
1766015908.9035552,23
1766015908.9035652,24
1766015908.903579,26
1766015908.90359,23
1766015908.903601,25
1766015908.903611,24
1766015908.903622,21
1766015908.9036329,26
1766015908.903643,24
1766015908.9036539,25
1766015908.903664,22
1766015908.9036748,25
1766015908.903685,22
1766015908.9036999,23
1766015908.90371,23
1766015908.9037209,25
1766015908.9037309,25
1766015908.9037418,21
1766015908.903753,23
1766015908.903763,23
1766015908.903774,21
1766015908.903784,23
1766015908.903795,25
1766015908.903805,22
1766015908.903816,20
1766015908.903827,21
1766015908.903837,23
1766015908.903848,24
1766015908.903858,25
1766015908.903869,24
1766015908.903879,23
1766015908.90389,23
1766015908.9039,22
1766015908.9039109,20
1766015908.903921,22
1766015908.903934,23
1766015908.903946,21
1766015908.903957,24
1766015908.903967,27
1766015908.9039779,24
1766015908.903988,22
1766015908.903999,24
1766015908.90401,25
1766015908.90402,25
1766015908.904031,25
1766015908.904042,22
1766015908.904052,24
1766015908.904063,25
1766015908.904075,23
1766015908.904085,25
1766015908.904096,25
1766015908.904107,24
1766015908.904117,26
1766015908.904128,22
1766015908.904139,23
1766015908.904149,21
1766015908.90416,23
1766015908.904171,24
1766015908.904181,23
1766015908.904192,22
1766015908.904203,22
1766015908.904213,27
1766015908.904224,22
1766015908.904234,24
1766015908.904245,23
1766015908.904255,23
1766015908.9042659,25
1766015908.904277,22
1766015908.90429,23
1766015908.904304,22
1766015908.904315,22
1766015908.904325,24
1766015908.904336,21
1766015908.9043462,25
1766015908.9043572,25
1766015908.9043672,26
1766015908.9043782,23
1766015908.9043891,24
1766015908.9043992,22
1766015908.9044101,26
1766015908.9044201,23
1766015908.904431,23
1766015908.904442,21
1766015908.904452,24
1766015908.904463,23
1766015908.904474,24
1766015908.9044852,21
1766015908.904495,21
1766015908.9045062,21
1766015908.9045172,23
1766015908.9045272,23
1766015908.9045382,24
1766015908.9045482,25
1766015908.9045591,23
1766015908.90457,22
1766015908.90458,25
1766015908.904591,23
1766015908.904601,23
1766015908.904612,26
1766015908.904623,21
1766015908.904633,20
1766015908.904644,23
1766015908.904654,21
1766015908.904665,21
1766015908.9046762,24
1766015908.9046872,23
1766015908.9046972,20
1766015908.9047081,21
1766015908.9047182,22
1766015908.90474,24
1766015908.904751,20
1766015908.904762,22
1766015908.9047732,23
1766015908.904785,27
1766015908.904795,25
1766015908.904806,22
1766015908.9048162,21
1766015908.9048269,23
1766015908.9048371,23
1766015908.9048479,22
1766015908.9048588,20
1766015908.904869,25
1766015908.90488,25
1766015908.9048908,23
1766015908.904901,21
1766015908.9049118,24
1766015908.904922,21
1766015908.9049332,22
1766015908.904943,22
1766015908.9049542,23
1766015908.9049652,24
1766015908.9049752,22
1766015908.9049861,21
1766015908.904997,21
1766015908.905008,22
1766015908.905018,25
1766015908.905029,22
1766015908.905039,20
1766015908.90505,23
1766015908.905061,23
1766015908.9050722,24
1766015908.9050822,22
1766015908.9050932,24
1766015908.9051032,23
1766015908.9051142,23
1766015908.9051242,22
1766015908.9051352,23
1766015908.9051452,21
1766015908.9051561,21
1766015908.9051661,21
1766015908.905177,25
1766015908.905188,23
1766015908.905198,22
1766015908.905209,24
1766015908.90522,23
1766015908.905231,22
1766015908.9052422,23
1766015908.9052532,25
1766015908.9052632,22
1766015908.9052742,22
1766015908.9052851,25
1766015908.9052951,21
1766015908.905306,25
1766015908.905317,24
1766015908.905327,25
1766015908.905338,21
1766015908.905349,20
1766015908.905359,25
1766015908.90537,25
1766015908.9053812,25
1766015908.9053912,23
1766015908.9054022,23
1766015908.9054122,23
1766015908.9054232,22
1766015908.9054332,23
1766015908.9054441,22
1766015908.905455,20
1766015908.9054651,24
1766015908.905476,24
1766015908.905487,22
1766015908.905497,21
1766015908.905508,22
1766015908.905518,24
1766015908.905529,19
1766015908.90554,23
1766015908.90555,22
1766015908.905561,25
1766015908.9055722,21
1766015908.9055822,21
1766015908.9055932,25
1766015908.9056041,25
1766015908.905615,22
1766015908.905625,23
1766015908.905636,24
1766015908.905646,24
1766015908.905657,24
1766015908.905668,25
1766015908.905679,26
1766015908.9056902,25
1766015908.9057002,24
1766015908.9057112,26
1766015908.9057212,24
1766015908.9057322,23
1766015908.9057531,27
1766015908.905764,26
1766015908.905775,24
1766015908.905785,26
1766015908.905796,23
1766015908.905807,23
1766015908.9058182,24
1766015908.9058292,21
1766015908.9058402,26
1766015908.9058518,25
1766015908.9058619,20
1766015908.9058728,25
1766015908.9058828,24
1766015908.9058938,22
1766015908.905904,25
1766015908.9059148,25
1766015908.905926,25
1766015908.9059358,24
1766015908.905947,24
1766015908.905958,22
1766015908.905969,26
1766015908.905979,26
1766015908.90599,22
1766015908.9060009,24
1766015908.9060109,25
1766015908.9060218,23
1766015908.906032,24
1766015908.906044,25
1766015908.906055,23
1766015908.906065,27
1766015908.906076,24
1766015908.906087,25
1766015908.906097,23
1766015908.906108,26
1766015908.9061189,27
1766015908.9061298,23
1766015908.906141,22
1766015908.9061508,23
1766015908.906162,23
1766015908.906173,23
1766015908.906183,24
1766015908.906194,23
1766015908.906205,27
1766015908.906215,23
1766015908.906226,23
1766015908.906236,27
1766015908.906247,26
1766015908.906272,24
1766015908.906283,24
1766015908.906294,25
1766015908.906305,25
1766015908.906316,26
1766015908.906326,23
1766015908.906337,23
1766015908.906348,24
1766015908.906358,27
1766015908.906369,28
1766015908.906379,25
1766015908.90639,27
1766015908.906401,27
1766015908.9064121,28
1766015908.906423,28
1766015908.906433,25
1766015908.906444,24
1766015908.906454,25
1766015908.906465,26
1766015908.906476,25
1766015908.906486,27
1766015908.906497,23
1766015908.906508,28
1766015908.906519,26
1766015908.9065301,24
1766015908.90654,26
1766015908.9065511,26
1766015908.9065611,26
1766015908.906574,28
1766015908.906584,28
1766015908.906595,27
1766015908.906605,26
1766015908.906616,26
1766015908.9066272,29
1766015908.906637,26
1766015908.9066482,28
1766015908.9066591,26
1766015908.9066691,24
1766015908.90668,22
1766015908.9066901,23
1766015908.906701,27
1766015908.906712,24
1766015908.906723,24
1766015908.906733,24
1766015908.906744,24
1766015908.906755,22
1766015908.9067662,25
1766015908.9067771,28
1766015908.906788,26
1766015908.9067981,24
1766015908.906809,25
1766015908.906819,25
1766015908.90683,25
1766015908.906841,22
1766015908.906851,24
1766015908.906862,29
1766015908.906872,23
1766015908.906883,24
1766015908.906894,24
1766015908.906904,25
1766015908.9069152,24
1766015908.9069262,26
1766015908.9069362,27
1766015908.9069471,23
1766015908.9069571,28
1766015908.906968,23
1766015908.906979,27
1766015908.906989,25
1766015908.907,24
1766015908.907011,26
1766015908.907021,21
1766015908.907032,27
1766015908.907043,27
1766015908.907053,27
1766015908.907064,24
1766015908.907837,23
1766015908.908833,25
1766015908.909821,26
1766015908.910841,25
1766015908.911853,28
1766015908.912842,27
1766015908.91381,25
1766015908.9148438,24
1766015908.91584,24
1766015908.916852,28
1766015908.917849,26
1766015908.918839,26
1766015908.919856,25
1766015908.920869,29
1766015908.921879,28
1766015908.92288,27
1766015908.9238899,27
1766015908.924883,26
1766015908.925888,27
1766015908.926879,25
1766015908.92786,27
1766015908.928877,24
1766015908.929846,25
1766015908.930902,26
1766015908.931871,28
1766015908.932864,27
1766015908.933884,28
1766015908.934871,30
1766015908.935879,26
1766015908.9368792,26
1766015908.9379148,28
1766015908.938905,26
1766015908.939907,25
1766015908.9409091,27
1766015908.941935,29
1766015908.9429078,26
1766015908.943907,24
1766015908.945023,28
1766015908.946003,27
1766015908.947019,30
1766015908.9480052,29
1766015908.9490812,30
1766015908.950037,25
1766015908.9510112,26
1766015908.9519749,26
1766015908.953016,25
1766015908.954014,28
1766015908.9550111,28
1766015908.956001,27
1766015908.95701,27
1766015908.9580102,29
1766015908.959008,23
1766015908.960005,27
1766015908.961008,24
1766015908.962006,27
1766015908.9629672,28
1766015908.964006,30
1766015908.965011,27
1766015908.96601,27
1766015908.966971,26
1766015908.968013,26
1766015908.969004,27
1766015908.970002,27
1766015908.9709692,27
1766015908.972002,25
1766015908.9730089,29
1766015908.974005,27
1766015908.974976,27
1766015908.976012,31
1766015908.9770088,28
1766015908.9780102,29
1766015908.97898,29
1766015908.980028,28
1766015908.981024,25
1766015908.982013,27
1766015908.982982,30
1766015908.984024,32
1766015908.9850519,28
1766015908.986033,27
1766015908.987015,29
1766015908.988072,26
1766015908.989033,31
1766015908.990035,33
1766015908.9910028,31
1766015908.992012,36
1766015908.993022,37
1766015908.994024,37
1766015908.995036,41
1766015908.996043,37
1766015908.997049,41
1766015908.99804,44
1766015908.999061,44
1766015909.000075,45
1766015909.001085,46
1766015909.002086,49
1766015909.003078,46
1766015909.004083,43
1766015909.005093,45
1766015909.0060952,50
1766015909.007086,48
1766015909.008138,49
1766015909.0091012,51
1766015909.01011,50
1766015909.0110989,55
1766015909.012098,57
1766015909.013101,64
1766015909.014109,76
1766015909.0151172,87
1766015909.0161018,90
1766015909.01712,93
1766015909.01812,95
1766015909.019126,97
1766015909.020127,98
1766015909.021217,100
1766015909.022223,103
1766015909.023231,102
1766015909.024239,101
1766015909.025234,102
1766015909.026222,106
1766015909.027252,103
1766015909.028258,103
1766015909.029265,103
1766015909.0302541,102
1766015909.0312479,103
1766015909.0322628,105
1766015909.033254,110
1766015909.034246,108
1766015909.035267,108
1766015909.036274,111
1766015909.037285,108
1766015909.038273,112
1766015909.039273,109
1766015909.0402749,110
1766015909.041271,108
1766015909.042251,110
1766015909.043276,109
1766015909.0442822,107
1766015909.045284,106
1766015909.0463161,104
1766015909.047311,103
1766015909.048314,106
1766015909.049311,106
1766015909.0503218,108
1766015909.051323,117
1766015909.052306,124
1766015909.053333,138
1766015909.0543091,149
1766015909.055316,157
1766015909.0563378,157
1766015909.0573409,157
1766015909.0583239,161
1766015909.059333,162
1766015909.060343,162
1766015909.061335,167
1766015909.062507,167
1766015909.0633368,167
1766015909.064329,170
1766015909.065324,182
1766015909.066354,194
1766015909.0673401,214
1766015909.0683699,231
1766015909.06933,245
1766015909.0703418,253
1766015909.07134,254
1766015909.072339,254
1766015909.073357,257
1766015909.074365,260
1766015909.075377,260
1766015909.0764,257
1766015909.0773828,259
1766015909.078391,265
1766015909.079391,272
1766015909.08039,276
1766015909.0813959,278
1766015909.0824032,278
1766015909.083406,277
1766015909.0843809,277
1766015909.08537,271
1766015909.086415,269
1766015909.087407,269
1766015909.0884101,271
1766015909.0894122,272
1766015909.090411,266
1766015909.091412,262
1766015909.092426,259
1766015909.093426,259
1766015909.094432,256
1766015909.095423,252
1766015909.096437,248
1766015909.0974422,248
1766015909.098422,244
1766015909.0994282,238
1766015909.10044,238
1766015909.101441,238
1766015909.1024508,238
1766015909.103452,233
1766015909.104463,232
1766015909.105452,230
1766015909.106474,225
1766015909.107459,226
1766015909.108468,223
1766015909.109476,218
1766015909.1104808,217
1766015909.1114821,218
1766015909.112472,217
1766015909.113478,220
1766015909.1144938,218
1766015909.115498,218
1766015909.116492,220
1766015909.117486,213
1766015909.118489,212
1766015909.1194959,211
1766015909.120508,207
1766015909.121484,206
1766015909.122497,204
1766015909.1235042,201
1766015909.124501,197
1766015909.12551,197
1766015909.126522,195
1766015909.127525,196
1766015909.12852,194
1766015909.129523,199
1766015909.130527,200
1766015909.131538,204
1766015909.1325288,204
1766015909.133525,205
1766015909.134534,202
1766015909.1355362,201
1766015909.136529,205
1766015909.137557,207
1766015909.138535,208
1766015909.13955,213
1766015909.1405451,211
1766015909.14156,207
1766015909.142559,204
1766015909.143565,208
1766015909.144568,208
1766015909.145578,203
1766015909.146581,202
1766015909.147583,197
1766015909.14858,199
1766015909.1495821,199
1766015909.150592,197
1766015909.1515882,193
1766015909.1525729,193
1766015909.153593,192
1766015909.154582,188
1766015909.155581,187
1766015909.156599,185
1766015909.157592,183
1766015909.1585898,180
1766015909.159612,180
1766015909.1606112,178
1766015909.1616058,184
1766015909.162613,179
1766015909.1636212,179
1766015909.164621,175
1766015909.165625,174
1766015909.166631,175
1766015909.167636,174
1766015909.1686442,173
1766015909.1696389,170
1766015909.170642,171
1766015909.171654,168
1766015909.172656,168
1766015909.173663,164
1766015909.17467,162
1766015909.175669,164
1766015909.176651,161
1766015909.1776562,158
1766015909.178661,157
1766015909.179664,155
1766015909.1806731,150
1766015909.181678,150
1766015909.182684,147
1766015909.1836932,148
1766015909.1846888,146
1766015909.185699,142
1766015909.18669,143
1766015909.1876879,141
1766015909.1886988,139
1766015909.1896992,140
1766015909.190697,143
1766015909.191703,143
1766015909.192707,145
1766015909.193721,148
1766015909.1947289,148
1766015909.1957278,145
1766015909.1967201,146
1766015909.197723,156
1766015909.198736,160
1766015909.199729,159
1766015909.200741,160
1766015909.201731,162
1766015909.2027361,161
1766015909.203733,161
1766015909.204741,161
1766015909.205733,157
1766015909.206761,157
1766015909.207762,154
1766015909.208759,154
1766015909.2097569,151
1766015909.210776,152
1766015909.211766,148
1766015909.212759,147
1766015909.213774,146
1766015909.214777,143
1766015909.2157671,142
1766015909.216773,142
1766015909.21777,139
1766015909.218781,137
1766015909.219786,134
1766015909.220779,134
1766015909.221788,135
1766015909.2227998,132
1766015909.223781,134
1766015909.2247858,132
1766015909.2258098,130
1766015909.226797,132
1766015909.227803,131
1766015909.2288,130
1766015909.2298,125
1766015909.2308102,124
1766015909.23182,127
1766015909.232818,122
1766015909.233835,121
1766015909.234834,121
1766015909.235845,119
1766015909.2368681,119
1766015909.237845,115
1766015909.2388532,117
1766015909.239847,121
1766015909.240863,122
1766015909.241895,120
1766015909.242879,123
1766015909.243886,124
1766015909.244868,122
1766015909.2458692,121
1766015909.2468271,123
1766015909.247851,121
1766015909.248876,121
1766015909.249841,122
1766015909.250856,124
1766015909.251841,123
1766015909.252851,119
1766015909.2538471,119
1766015909.254845,119
1766015909.255878,117
1766015909.2568908,117
1766015909.2578502,117
1766015909.258909,119
1766015909.259916,115
1766015909.2609122,116
1766015909.261937,115
1766015909.262935,114
1766015909.263894,116
1766015909.264917,119
1766015909.2659168,126
1766015909.2669141,131
1766015909.2679172,129
1766015909.2689202,131
1766015909.269931,132
1766015909.270936,129
1766015909.27194,129
1766015909.2729259,126
1766015909.274015,128
1766015909.275017,128
1766015909.276015,129
1766015909.2770162,128
1766015909.278014,127
1766015909.2790139,127
1766015909.2800179,128
1766015909.281016,126
1766015909.282015,122
1766015909.283007,120
1766015909.2840178,120
1766015909.2850099,121
1766015909.286016,120
1766015909.287012,120
1766015909.288011,118
1766015909.289014,117
1766015909.2900102,114
1766015909.291018,117
1766015909.29201,111
1766015909.2930088,112
1766015909.294013,109
1766015909.295012,110
1766015909.296024,109
1766015909.297025,109
1766015909.298008,107
1766015909.299018,104
1766015909.3000169,105
1766015909.3010108,104
1766015909.302009,102
1766015909.303015,102
1766015909.303919,99
1766015909.305002,97
1766015909.306002,96
1766015909.307015,97
1766015909.308016,94
1766015909.30901,96
1766015909.3099232,92
1766015909.311009,94
1766015909.312008,91
1766015909.31301,90
1766015909.3140101,89
1766015909.315003,91
1766015909.316019,90
1766015909.3170078,92
1766015909.318006,91
1766015909.319008,91
1766015909.3200362,90
1766015909.3210108,88
1766015909.322006,90
1766015909.3230069,89
1766015909.324008,89
1766015909.325002,86
1766015909.326008,85
1766015909.3270059,83
1766015909.328008,82
1766015909.3290071,83
1766015909.330011,80
1766015909.331007,81
1766015909.332006,80
1766015909.33301,82
1766015909.3340092,79
1766015909.335006,82
1766015909.336003,77
1766015909.3370051,78
1766015909.3380108,77
1766015909.3390138,77
1766015909.340018,77
1766015909.3410182,76
1766015909.342023,71
1766015909.34302,76
1766015909.3440351,76
1766015909.345037,78
1766015909.346035,78
1766015909.347023,75
1766015909.3480508,77
1766015909.349052,75
1766015909.3500512,78
1766015909.351051,80
1766015909.3520489,82
1766015909.3530612,81
1766015909.354051,82
1766015909.355049,78
1766015909.356066,81
1766015909.3570602,81
1766015909.358078,83
1766015909.359066,90
1766015909.3600872,96
1766015909.3611698,102
1766015909.362184,106
1766015909.363178,110
1766015909.364182,109
1766015909.36518,113
1766015909.366177,111
1766015909.3671849,110
1766015909.368185,114
1766015909.3692029,110
1766015909.3701959,109
1766015909.371213,113
1766015909.372215,108
1766015909.373217,106
1766015909.3742132,106
1766015909.3752162,102
1766015909.3762171,104
1766015909.377213,102
1766015909.378227,100
1766015909.379215,101
1766015909.380139,98
1766015909.381122,98
1766015909.382228,100
1766015909.383136,99
1766015909.384135,97
1766015909.3851478,97
1766015909.386146,97
1766015909.38716,98
1766015909.388159,94
1766015909.389153,98
1766015909.390153,94
1766015909.39115,93
1766015909.3921542,92
1766015909.3931699,91
1766015909.394176,91
1766015909.395166,87
1766015909.396163,90
1766015909.3971698,87
1766015909.398179,87
1766015909.399184,85
1766015909.4001868,84
1766015909.401182,82
1766015909.402187,80
1766015909.403203,82
1766015909.404201,80
1766015909.405212,80
1766015909.406183,78
1766015909.4071949,79
1766015909.4081988,78
1766015909.409206,77
1766015909.410204,74
1766015909.4112132,74
1766015909.4122188,79
1766015909.413225,76
1766015909.4142232,75
1766015909.41522,75
1766015909.416237,71
1766015909.417234,72
1766015909.418226,71
1766015909.419244,69
1766015909.420247,71
1766015909.42125,71
1766015909.422243,72
1766015909.423245,69
1766015909.4242601,68
1766015909.4252532,69
1766015909.426261,67
1766015909.4272661,64
1766015909.4282691,69
1766015909.429268,70
1766015909.430272,67
1766015909.431277,69
1766015909.4322891,70
1766015909.433277,72
1766015909.434295,70
1766015909.4352949,72
1766015909.4362938,70
1766015909.437279,72
1766015909.4382951,72
1766015909.4392908,70
1766015909.440306,74
1766015909.441308,69
1766015909.442313,71
1766015909.443316,70
1766015909.444316,72
1766015909.445314,71
1766015909.446325,69
1766015909.4473228,68
1766015909.4483159,66
1766015909.449327,68
1766015909.4503229,69
1766015909.4513311,67
1766015909.45234,66
1766015909.453334,66
1766015909.454339,67
1766015909.455338,67
1766015909.456348,67
1766015909.4573581,61
1766015909.458354,62
1766015909.459353,64
1766015909.460366,64
1766015909.4613729,65
1766015909.462369,67
1766015909.463369,64
1766015909.4643688,66
1766015909.465376,63
1766015909.466367,62
1766015909.467367,63
1766015909.4683762,66
1766015909.469397,58
1766015909.4703739,62
1766015909.471383,63
1766015909.472384,63
1766015909.473396,64
1766015909.4743838,62
1766015909.4754019,61
1766015909.476396,61
1766015909.477418,59
1766015909.478412,59
1766015909.479402,59
1766015909.480412,59
1766015909.4814131,61
1766015909.4824162,63
1766015909.4834151,66
1766015909.4844291,68
1766015909.485436,68
1766015909.4864159,68
1766015909.4874282,71
1766015909.488435,69
1766015909.4894469,68
1766015909.490437,69
1766015909.491449,71
1766015909.492448,72
1766015909.493439,73
1766015909.4944441,70
1766015909.495449,75
1766015909.49646,69
1766015909.4974568,71
1766015909.498476,69
1766015909.499475,71
1766015909.50047,68
1766015909.501475,71
1766015909.502475,72
1766015909.503472,67
1766015909.504481,66
1766015909.505467,67
1766015909.506491,70
1766015909.507485,66
1766015909.508482,69
1766015909.509491,69
1766015909.5105011,69
1766015909.511481,64
1766015909.51249,65
1766015909.5134878,65
1766015909.5145001,63
1766015909.51551,64
1766015909.516482,63
1766015909.5174809,63
1766015909.518471,62
1766015909.519479,58
1766015909.520482,65
1766015909.521483,60
1766015909.522489,61
1766015909.5234969,59
1766015909.5244968,61
1766015909.525481,62
1766015909.526485,62
1766015909.5274932,62
1766015909.528505,62
1766015909.5294871,58
1766015909.5305119,64
1766015909.531531,61
1766015909.532542,57
1766015909.533535,58
1766015909.534535,55
1766015909.5355551,59
1766015909.536531,59
1766015909.537536,60
1766015909.538541,58
1766015909.539562,61
1766015909.540595,60
1766015909.541585,62
1766015909.542589,60
1766015909.5435781,61
1766015909.544596,60
1766015909.545599,59
1766015909.546605,62
1766015909.5475998,64
1766015909.5486138,61
1766015909.549619,61
1766015909.550625,62
1766015909.551622,62
1766015909.552636,61
1766015909.553632,60
1766015909.554641,62
1766015909.555647,62
1766015909.5566258,63
1766015909.557634,60
1766015909.558669,57
1766015909.559672,57
1766015909.5606441,61
1766015909.561632,62
1766015909.562644,63
1766015909.563638,61
1766015909.564646,62
1766015909.5656419,64
1766015909.566663,60
1766015909.567678,61
1766015909.568685,62
1766015909.569684,62
1766015909.570677,60
1766015909.571681,61
1766015909.5726771,61
1766015909.573693,62
1766015909.574682,58
1766015909.575697,59
1766015909.57668,55
1766015909.57778,59
1766015909.578659,59
1766015909.5797,60
1766015909.580728,58
1766015909.581681,59
1766015909.582696,57
1766015909.583701,57
1766015909.584683,54
1766015909.585688,58
1766015909.5866728,54
1766015909.58766,56
1766015909.5886772,55
1766015909.589715,55
1766015909.590677,55
1766015909.591684,54
1766015909.592724,53
1766015909.593728,56
1766015909.5946739,54
1766015909.595735,55
1766015909.5967062,51
1766015909.59775,53
1766015909.598737,56
1766015909.599767,54
1766015909.600721,52
1766015909.60175,50
1766015909.602745,52
1766015909.603751,53
1766015909.604723,52
1766015909.605761,55
1766015909.6067321,52
1766015909.607734,54
1766015909.6087391,53
1766015909.609743,53
1766015909.610742,51
1766015909.611755,53
1766015909.612746,49
1766015909.613767,51
1766015909.614795,52
1766015909.6157582,52
1766015909.6167839,51
1766015909.617785,53
1766015909.618794,49
1766015909.619766,52
1766015909.620797,50
1766015909.621783,48
1766015909.622827,52
1766015909.623824,50
1766015909.624823,48
1766015909.625831,50
1766015909.6268318,47
1766015909.627821,50
1766015909.6288269,48
1766015909.629824,48
1766015909.630825,49
1766015909.631841,49
1766015909.632836,49
1766015909.633853,52
1766015909.634839,48
1766015909.635844,50
1766015909.636847,52
1766015909.637845,52
1766015909.638871,50
1766015909.6398568,50
1766015909.640857,53
1766015909.6418629,52
1766015909.6428668,53
1766015909.643868,51
1766015909.6448472,52
1766015909.645847,51
1766015909.646872,52
1766015909.647895,53
1766015909.648876,52
1766015909.6499012,54
1766015909.650889,51
1766015909.651882,51
1766015909.6528902,50
1766015909.6538749,49
1766015909.654907,53
1766015909.6559072,51
1766015909.656904,48
1766015909.6579049,53
1766015909.658901,53
1766015909.6599019,51
1766015909.6609,50
1766015909.6620018,53
1766015909.663009,50
1766015909.663917,53
1766015909.665013,55
1766015909.666006,53
1766015909.6670341,53
1766015909.6680179,50
1766015909.669014,50
1766015909.670003,51
1766015909.671005,53
1766015909.672024,48
1766015909.673019,51
1766015909.674006,49
1766015909.6750112,50
1766015909.676001,50
1766015909.677003,51
1766015909.677994,50
1766015909.679009,51
1766015909.68001,48
1766015909.681013,51
1766015909.6820102,47
1766015909.683,47
1766015909.684015,48
1766015909.685025,48
1766015909.6860118,48
1766015909.687011,48
1766015909.688011,49
1766015909.689017,47
1766015909.6900108,46
1766015909.691007,47
1766015909.6920161,49
1766015909.6930199,46
1766015909.694016,47
1766015909.6950212,46
1766015909.6960168,48
1766015909.6970198,52
1766015909.698018,49
1766015909.699036,50
1766015909.700015,50
1766015909.7010329,47
1766015909.7020311,52
1766015909.70303,52
1766015909.7040372,51
1766015909.705038,47
1766015909.706041,49
1766015909.707055,44
1766015909.708056,46
1766015909.709044,48
1766015909.710046,46
1766015909.711064,47
1766015909.712061,47
1766015909.713061,46
1766015909.714037,43
1766015909.715059,43
1766015909.7160692,44
1766015909.7170691,45
1766015909.718078,46
1766015909.719073,44
1766015909.720076,44
1766015909.721086,44
1766015909.7220852,44
1766015909.723092,44
1766015909.724083,45
1766015909.7250931,47
1766015909.726089,47
1766015909.727085,49
1766015909.7280908,48
1766015909.729123,47
1766015909.7301178,51
1766015909.7311249,47
1766015909.7321112,47
1766015909.733103,48
1766015909.734109,46
1766015909.735123,45
1766015909.736126,47
1766015909.7371268,45
1766015909.738135,47
1766015909.739139,46
1766015909.7401228,44
1766015909.741138,45
1766015909.742134,43
1766015909.743142,48
1766015909.7441401,53
1766015909.745156,53
1766015909.746156,52
1766015909.74716,56
1766015909.7481642,52
1766015909.749148,56
1766015909.750151,56
1766015909.7511601,58
1766015909.7521632,57
1766015909.753183,59
1766015909.754186,59
1766015909.755177,58
1766015909.756185,58
1766015909.757188,60
1766015909.758176,59
1766015909.759179,58
1766015909.760182,55
1766015909.761194,59
1766015909.7621918,57
1766015909.7631931,58
1766015909.764192,54
1766015909.765218,56
1766015909.766219,58
1766015909.767225,56
1766015909.768212,52
1766015909.76921,57
1766015909.77022,53
1766015909.771211,57
1766015909.772214,51
1766015909.773228,53
1766015909.774237,55
1766015909.775242,53
1766015909.776227,49
1766015909.777235,50
1766015909.778242,53
1766015909.7792299,54
1766015909.7802508,51
1766015909.7812622,53
1766015909.782259,52
1766015909.7832608,54
1766015909.7842581,51
1766015909.785255,53
1766015909.7862551,54
1766015909.7872698,54
1766015909.7882712,52
1766015909.789275,53
1766015909.790281,52
1766015909.7912881,51
1766015909.792275,56
1766015909.793288,53
1766015909.794284,51
1766015909.795298,51
1766015909.7963011,52
1766015909.797287,49
1766015909.798292,52
1766015909.7993002,51
1766015909.800312,54
1766015909.801318,54
1766015909.8023198,52
1766015909.803326,53
1766015909.804319,51
1766015909.805336,57
1766015909.806319,54
1766015909.8073332,52
1766015909.8083441,53
1766015909.809352,52
1766015909.810347,53
1766015909.8113458,55
1766015909.812356,52
1766015909.813364,54
1766015909.814354,50
1766015909.815368,52
1766015909.8163662,52
1766015909.817367,49
1766015909.818368,49
1766015909.819366,50
1766015909.8203762,53
1766015909.8213649,50
1766015909.82238,49
1766015909.823362,49
1766015909.8243809,48
1766015909.825378,48
1766015909.8263838,47
1766015909.8273878,50
1766015909.8284018,51
1766015909.8294022,48
1766015909.830382,47
1766015909.8313868,50
1766015909.832391,47
1766015909.8334022,48
1766015909.834411,47
1766015909.835406,51
1766015909.836409,47
1766015909.837417,49
1766015909.83841,48
1766015909.839415,46
1766015909.840416,47
1766015909.841425,47
1766015909.842422,43
1766015909.8434088,48
1766015909.844427,51
1766015909.845439,47
1766015909.846439,46
1766015909.8474398,44
1766015909.848442,43
1766015909.849456,46
1766015909.850435,48
1766015909.851444,45
1766015909.85244,50
1766015909.85346,50
1766015909.854455,49
1766015909.855456,50
1766015909.8564649,49
1766015909.8574731,51
1766015909.858451,48
1766015909.859458,49
1766015909.860469,50
1766015909.861475,48
1766015909.862476,49
1766015909.863489,50
1766015909.8645,49
1766015909.865485,53
1766015909.866506,52
1766015909.8675048,46
1766015909.868504,47
1766015909.8694952,48
1766015909.870516,46
1766015909.87151,46
1766015909.8725061,46
1766015909.8735008,51
1766015909.874507,48
1766015909.8755178,47
1766015909.8765178,46
1766015909.877528,46
1766015909.878518,46
1766015909.879532,48
1766015909.880537,46
1766015909.881553,44
1766015909.8825421,47
