timestamp,emg_value
1766015919.2821991,46
1766015919.2822049,44
1766015919.28221,45
1766015919.2822149,45
1766015919.2822201,45
1766015919.2822258,43
1766015919.282231,45
1766015919.282235,48
1766015919.28224,44
1766015919.2822452,43
1766015919.28225,38
1766015919.2822552,47
1766015919.28226,44
1766015919.2822652,40
1766015919.28227,44
1766015919.282275,41
1766015919.28228,43
1766015919.282285,42
1766015919.28229,42
1766015919.282295,41
1766015919.2823,42
1766015919.282305,39
1766015919.2823098,38
1766015919.282315,39
1766015919.282319,39
1766015919.282325,40
1766015919.28233,40
1766015919.2823339,41
1766015919.282339,39
1766015919.2823439,39
1766015919.282349,38
1766015919.2823539,36
1766015919.282364,41
1766015919.28237,39
1766015919.2823749,39
1766015919.28238,37
1766015919.282384,41
1766015919.282389,40
1766015919.2823942,42
1766015919.282399,42
1766015919.2824042,41
1766015919.282409,37
1766015919.2824142,40
1766015919.282419,40
1766015919.282423,39
1766015919.2824278,41
1766015919.282433,40
1766015919.2824378,43
1766015919.282443,41
1766015919.282447,40
1766015919.2824519,38
1766015919.282457,40
1766015919.282462,35
1766015919.2824671,37
1766015919.282472,39
1766015919.2824771,37
1766015919.282481,38
1766015919.282486,40
1766015919.282491,36
1766015919.282496,39
1766015919.2825,40
1766015919.282505,39
1766015919.28251,35
1766015919.282515,37
1766015919.282519,37
1766015919.282527,41
1766015919.2825332,39
1766015919.282538,37
1766015919.2825432,41
1766015919.282548,39
1766015919.282552,40
1766015919.282557,42
1766015919.282562,41
1766015919.282567,42
1766015919.282572,43
1766015919.2825768,44
1766015919.282581,41
1766015919.282588,43
1766015919.282592,45
1766015919.282597,45
1766015919.282602,44
1766015919.282607,42
1766015919.282612,44
1766015919.2826161,45
1766015919.282621,44
1766015919.2826262,46
1766015919.28263,46
1766015919.282635,46
1766015919.28264,49
1766015919.282645,46
1766015919.28265,47
1766015919.282654,46
1766015919.282659,45
1766015919.2826638,47
1766015919.282669,46
1766015919.2826738,43
1766015919.282679,46
1766015919.282683,45
1766015919.282698,44
1766015919.2827039,47
1766015919.282708,41
1766015919.2827132,43
1766015919.282718,42
1766015919.2827232,43
1766015919.282728,45
1766015919.282733,43
1766015919.282738,43
1766015919.282742,43
1766015919.2827468,42
1766015919.282754,46
1766015919.282758,46
1766015919.282763,44
1766015919.2827678,42
1766015919.282773,41
1766015919.282778,44
1766015919.2827818,44
1766015919.282787,43
1766015919.2827919,41
1766015919.282797,43
1766015919.2828019,41
1766015919.282806,41
1766015919.282811,41
1766015919.282816,41
1766015919.2828212,41
1766015919.282825,41
1766015919.28283,45
1766015919.282835,40
1766015919.282839,41
1766015919.2828438,42
1766015919.2828622,45
1766015919.282866,52
1766015919.2828732,49
1766015919.282878,51
1766015919.2828832,52
1766015919.282888,53
1766015919.282893,56
1766015919.282898,55
1766015919.282903,55
1766015919.2829068,55
1766015919.282912,57
1766015919.282917,52
1766015919.282922,55
1766015919.282926,53
1766015919.2829309,55
1766015919.282936,53
1766015919.2829409,54
1766015919.282946,50
1766015919.28295,52
1766015919.282955,52
1766015919.28296,52
1766015919.282965,49
1766015919.2829702,51
1766015919.282975,51
1766015919.282979,53
1766015919.282984,49
1766015919.282989,49
1766015919.282994,50
1766015919.282999,50
1766015919.2830029,49
1766015919.283008,48
1766015919.283028,48
1766015919.283038,47
1766015919.283044,47
1766015919.2830489,48
1766015919.283056,49
1766015919.283062,47
1766015919.283067,47
1766015919.283072,47
1766015919.283077,46
1766015919.283082,45
1766015919.283087,47
1766015919.283092,47
1766015919.283097,46
1766015919.283102,43
1766015919.283107,45
1766015919.283112,46
1766015919.283117,45
1766015919.2831218,44
1766015919.283127,45
1766015919.2831318,46
1766015919.283136,45
1766015919.2831411,45
1766015919.283146,45
1766015919.2831511,43
1766015919.283156,44
1766015919.2831612,42
1766015919.283166,42
1766015919.2831712,42
1766015919.283175,45
1766015919.28318,43
1766015919.283185,39
1766015919.28319,43
1766015919.2831948,44
1766015919.2832,44
1766015919.283205,41
1766015919.2832088,42
1766015919.283214,44
1766015919.283221,41
1766015919.283226,42
1766015919.283232,44
1766015919.2832372,41
1766015919.283242,41
1766015919.283246,42
1766015919.283251,45
1766015919.283256,42
1766015919.2832608,44
1766015919.283266,45
1766015919.2832708,40
1766015919.283276,40
1766015919.2832808,39
1766015919.283286,44
1766015919.2832909,38
1766015919.283295,42
1766015919.2833002,40
1766015919.283305,42
1766015919.2833102,42
1766015919.283315,43
1766015919.28332,41
1766015919.283325,43
1766015919.283329,41
1766015919.2833338,38
1766015919.283339,39
1766015919.2833438,37
1766015919.283349,39
1766015919.283353,38
1766015919.2833579,36
1766015919.283363,40
1766015919.2833679,38
1766015919.283373,34
1766015919.283378,36
1766015919.2833831,36
1766015919.2833889,36
1766015919.283395,37
1766015919.2833998,34
1766015919.283405,36
1766015919.2834098,36
1766015919.283415,35
1766015919.2834198,35
1766015919.283425,36
1766015919.2834299,35
1766015919.283435,34
1766015919.28344,35
1766015919.283445,35
1766015919.2834501,35
1766015919.283454,35
1766015919.2834592,35
1766015919.283464,31
1766015919.283469,34
1766015919.283474,35
1766015919.283479,29
1766015919.283484,34
1766015919.283489,31
1766015919.283493,35
1766015919.283498,32
1766015919.283503,35
1766015919.283508,35
1766015919.283513,35
1766015919.2835178,32
1766015919.283523,32
1766015919.2835279,32
1766015919.283533,32
1766015919.2835379,32
1766015919.283543,32
1766015919.283547,31
1766015919.283554,33
1766015919.2835588,32
1766015919.283564,29
1766015919.2835689,30
1766015919.283574,27
1766015919.2835789,31
1766015919.283584,32
1766015919.2835891,29
1766015919.283594,32
1766015919.2835991,28
1766015919.283604,28
1766015919.283608,28
1766015919.283613,27
1766015919.283618,29
1766015919.283623,29
1766015919.283628,28
1766015919.283633,30
1766015919.283638,29
1766015919.2836428,30
1766015919.283647,29
1766015919.283652,28
1766015919.283657,30
1766015919.283662,29
1766015919.2836668,28
1766015919.283672,31
1766015919.2836769,29
1766015919.283682,26
1766015919.283686,30
1766015919.283691,26
1766015919.2836962,26
1766015919.283701,25
1766015919.2837062,27
1766015919.283711,27
1766015919.2837172,26
1766015919.283722,28
1766015919.283728,26
1766015919.283733,29
1766015919.2837381,28
1766015919.283743,27
1766015919.2837481,29
1766015919.283753,27
1766015919.283757,28
1766015919.283762,29
1766015919.283767,24
1766015919.283772,26
1766015919.283777,30
1766015919.283782,28
1766015919.283787,28
1766015919.283791,27
1766015919.283796,28
1766015919.283801,24
1766015919.2838058,28
1766015919.283811,27
1766015919.2838159,28
1766015919.28382,25
1766015919.283825,27
1766015919.28383,26
1766015919.283835,27
1766015919.28384,25
1766015919.2838452,26
1766015919.28385,28
1766015919.2838552,25
1766015919.28386,27
1766015919.283865,25
1766015919.283869,23
1766015919.283874,26
1766015919.2838788,27
1766015919.283885,26
1766015919.283892,26
1766015919.2838972,28
1766015919.283902,23
1766015919.283906,23
1766015919.283911,25
1766015919.283916,25
1766015919.283921,26
1766015919.283926,22
1766015919.2839308,23
1766015919.283935,23
1766015919.28394,23
1766015919.2839448,22
1766015919.28395,23
1766015919.2839549,25
1766015919.28396,23
1766015919.2839649,26
1766015919.283969,28
1766015919.283974,24
1766015919.283979,26
1766015919.283984,23
1766015919.283989,27
1766015919.2839942,25
1766015919.283999,25
1766015919.2840042,24
1766015919.284008,25
1766015919.284013,28
1766015919.2840178,24
1766015919.284023,27
1766015919.2840278,23
1766015919.284033,25
1766015919.2840378,26
1766015919.284043,24
1766015919.2840488,25
1766015919.284055,24
1766015919.28406,24
1766015919.284065,24
1766015919.284069,26
1766015919.284074,24
1766015919.284079,24
1766015919.284084,27
1766015919.284089,26
1766015919.284093,25
1766015919.2840981,26
1766015919.284103,25
1766015919.284108,25
1766015919.284113,27
1766015919.284118,26
1766015919.2841222,29
1766015919.284127,25
1766015919.284132,25
1766015919.284137,26
1766015919.284142,29
1766015919.284147,25
1766015919.284151,28
1766015919.2841558,24
1766015919.284161,23
1766015919.2841659,24
1766015919.284171,26
1766015919.2841759,25
1766015919.28418,26
1766015919.2841852,26
1766015919.28419,23
1766015919.2841952,23
1766015919.2842,27
1766015919.284204,28
1766015919.284211,27
1766015919.2842162,25
1766015919.284221,25
1766015919.284226,25
1766015919.284236,25
1766015919.284241,25
1766015919.284245,28
1766015919.28425,25
1766015919.284255,27
1766015919.28426,22
1766015919.284265,26
1766015919.28427,26
1766015919.2842739,25
1766015919.284279,27
1766015919.2842839,22
1766015919.2842891,24
1766015919.284294,25
1766015919.284299,27
1766015919.2843032,26
1766015919.284308,23
1766015919.2843132,26
1766015919.284318,26
1766015919.284322,28
1766015919.284327,24
1766015919.284332,26
1766015919.2843368,27
1766015919.284342,27
1766015919.2843468,23
1766015919.2843509,25
1766015919.284356,26
1766015919.284361,24
1766015919.2843661,26
1766015919.284371,25
1766015919.284375,26
1766015919.2843819,25
1766015919.284388,22
1766015919.284393,22
1766015919.284398,26
1766015919.2844028,26
1766015919.284408,24
1766015919.284412,27
1766015919.284417,24
1766015919.284422,24
1766015919.284427,26
1766015919.284432,23
1766015919.284437,26
1766015919.2844422,26
1766015919.284447,23
1766015919.284451,23
1766015919.284456,24
1766015919.284461,25
1766015919.284466,22
1766015919.284471,26
1766015919.2844758,25
1766015919.28448,23
1766015919.284485,23
1766015919.2844899,27
1766015919.284495,20
1766015919.2845,22
1766015919.2845042,23
1766015919.284509,21
1766015919.284514,22
1766015919.284519,25
1766015919.284524,23
1766015919.284529,27
1766015919.284534,23
1766015919.284538,26
1766015919.284545,23
1766015919.28455,22
1766015919.284555,24
1766015919.28456,24
1766015919.284565,21
1766015919.2845702,23
1766015919.284575,23
1766015919.28458,24
1766015919.284584,23
1766015919.284589,21
1766015919.2845938,23
1766015919.284599,24
1766015919.2846038,20
1766015919.284609,21
1766015919.2846131,18
1766015919.284618,23
1766015919.284668,23
1766015919.284682,25
1766015919.284693,23
1766015919.284703,23
1766015919.284713,23
1766015919.284723,25
1766015919.2847328,23
1766015919.284756,26
1766015919.2847638,23
1766015919.284769,26
1766015919.2847738,22
1766015919.284779,24
1766015919.284784,21
1766015919.284789,26
1766015919.284794,23
1766015919.2848089,25
1766015919.284815,22
1766015919.28482,22
1766015919.2848341,26
1766015919.284838,23
1766015919.284843,21
1766015919.2848482,20
1766015919.284853,20
1766015919.284857,21
1766015919.284862,21
1766015919.284867,23
1766015919.284872,20
1766015919.284877,21
1766015919.284894,24
1766015919.2849002,26
1766015919.284905,24
1766015919.28491,22
1766015919.284915,24
1766015919.2849522,22
1766015919.284965,23
1766015919.284975,22
1766015919.284986,21
1766015919.285023,23
1766015919.285036,22
1766015919.285047,21
1766015919.285057,21
1766015919.2850718,23
1766015919.2850828,23
1766015919.2851179,23
1766015919.285129,24
1766015919.2851388,20
1766015919.2851489,23
1766015919.2851589,23
1766015919.285169,26
1766015919.2851799,21
1766015919.285193,23
1766015919.285203,23
1766015919.285214,23
1766015919.285235,19
1766015919.285245,22
1766015919.28527,23
1766015919.2852821,25
1766015919.285294,23
1766015919.285304,23
1766015919.285314,25
1766015919.285324,23
1766015919.285335,24
1766015919.285346,20
1766015919.285356,23
1766015919.285366,25
1766015919.285376,24
1766015919.285387,23
1766015919.2853959,22
1766015919.2854242,25
1766015919.285435,25
1766015919.28544,23
1766015919.285446,23
1766015919.285451,23
1766015919.285455,24
1766015919.28546,22
1766015919.285465,25
1766015919.28547,24
1766015919.2854762,25
1766015919.28548,28
1766015919.285485,26
1766015919.28549,27
1766015919.285495,27
1766015919.2854998,30
1766015919.285507,30
1766015919.285513,29
1766015919.2855182,28
1766015919.285523,26
1766015919.2855282,27
1766015919.285533,27
1766015919.285538,29
1766015919.285543,28
1766015919.285548,26
1766015919.285553,28
1766015919.285557,31
1766015919.285563,30
1766015919.285567,29
1766015919.285572,29
1766015919.285577,28
1766015919.285582,31
1766015919.2855868,29
1766015919.285592,29
1766015919.2855968,31
1766015919.285602,33
1766015919.285606,34
1766015919.285611,36
1766015919.2856162,37
1766015919.285621,37
1766015919.2856262,37
1766015919.285631,37
1766015919.285635,37
1766015919.28564,34
1766015919.285645,36
1766015919.28565,37
1766015919.2856572,39
1766015919.285662,38
1766015919.2856672,37
1766015919.285673,39
1766015919.285679,41
1766015919.2856839,39
1766015919.285689,41
1766015919.2857542,43
1766015919.285768,43
1766015919.285779,42
1766015919.285789,38
1766015919.285799,41
1766015919.2858088,38
1766015919.2858188,42
1766015919.285829,42
1766015919.285845,40
1766015919.285857,42
1766015919.2858691,38
1766015919.2858791,44
1766015919.285889,40
1766015919.285898,44
1766015919.285913,41
1766015919.2859242,40
1766015919.285934,40
1766015919.285943,43
1766015919.285953,42
1766015919.285963,44
1766015919.2859719,44
1766015919.285982,44
1766015919.285991,43
1766015919.286001,44
1766015919.286013,46
1766015919.286023,44
1766015919.286033,48
1766015919.286043,46
1766015919.286052,47
1766015919.2860649,43
1766015919.286077,45
1766015919.286089,46
1766015919.286098,47
1766015919.286108,49
1766015919.286117,44
1766015919.286127,46
1766015919.286137,47
1766015919.2861462,44
1766015919.286156,46
1766015919.286166,49
1766015919.286175,46
1766015919.286185,43
1766015919.286195,44
1766015919.2862039,52
1766015919.2862139,51
1766015919.286224,52
1766015919.2862332,52
1766015919.286243,50
1766015919.286252,49
1766015919.286262,50
1766015919.2862709,48
1766015919.2862809,50
1766015919.286291,49
1766015919.286301,50
1766015919.28631,51
1766015919.2863202,49
1766015919.286329,49
1766015919.286339,49
1766015919.286349,50
1766015919.286359,51
1766015919.286368,52
1766015919.286378,48
1766015919.286391,48
1766015919.2864032,47
1766015919.286413,50
1766015919.286423,53
1766015919.286433,47
1766015919.286443,49
1766015919.286452,48
1766015919.286462,46
1766015919.286471,49
1766015919.286481,50
1766015919.286491,49
1766015919.2865028,51
1766015919.2865129,50
1766015919.2865229,49
1766015919.2865322,50
1766015919.2865422,51
1766015919.286552,49
1766015919.286561,48
1766015919.286571,51
1766015919.28658,50
1766015919.286591,49
1766015919.286603,47
1766015919.286612,52
1766015919.286622,50
1766015919.2866318,51
1766015919.2866418,51
1766015919.2866518,51
1766015919.2866619,53
1766015919.2866712,52
1766015919.286687,52
1766015919.286699,50
1766015919.28671,51
1766015919.286721,51
1766015919.2867332,55
1766015919.286745,54
1766015919.2867572,53
1766015919.2867682,54
1766015919.2867782,53
1766015919.286788,52
1766015919.286798,50
1766015919.286808,50
1766015919.286818,52
1766015919.286828,51
1766015919.286837,51
1766015919.2868469,49
1766015919.286857,50
1766015919.286867,54
1766015919.286877,49
1766015919.286888,50
1766015919.2868989,48
1766015919.2869241,49
1766015919.2869298,47
1766015919.286935,47
1766015919.2869399,45
1766015919.286945,48
1766015919.2869499,48
1766015919.286954,46
1766015919.2869592,51
1766015919.286964,50
1766015919.2869692,46
1766015919.286974,49
1766015919.286978,50
1766015919.286983,51
1766015919.286988,53
1766015919.2869928,54
1766015919.286999,48
1766015919.287005,52
1766015919.28701,47
1766015919.2870138,49
1766015919.287019,47
1766015919.287024,49
1766015919.287029,50
1766015919.287034,49
1766015919.2870378,48
1766015919.287043,49
1766015919.2870479,49
1766015919.287052,48
1766015919.287057,48
1766015919.287062,49
1766015919.287067,44
1766015919.287072,46
1766015919.287076,47
1766015919.287081,46
1766015919.287086,48
1766015919.287091,47
1766015919.287095,47
1766015919.2870998,47
1766015919.287105,47
1766015919.2871099,46
1766015919.287114,45
1766015919.2871192,46
1766015919.287124,48
1766015919.2871292,46
1766015919.287134,46
1766015919.2871392,47
1766015919.287144,46
1766015919.287148,47
1766015919.287153,46
1766015919.287159,44
1766015919.2871659,45
1766015919.2871711,43
1766015919.287176,45
1766015919.2871811,46
1766015919.287185,45
1766015919.28719,44
1766015919.287195,47
1766015919.2872,46
1766015919.2872052,44
1766015919.287209,44
1766015919.287214,43
1766015919.287219,48
1766015919.287224,46
1766015919.2872288,45
1766015919.287233,45
1766015919.287238,43
1766015919.287243,43
1766015919.287248,44
1766015919.287253,44
1766015919.2872572,43
1766015919.287262,46
1766015919.287267,46
1766015919.287272,46
1766015919.287277,44
1766015919.287282,47
1766015919.287286,45
1766015919.2872908,45
1766015919.287296,43
1766015919.287301,44
1766015919.287306,46
1766015919.2873101,43
1766015919.287315,46
1766015919.287322,42
1766015919.287327,46
1766015919.287332,49
1766015919.287337,45
1766015919.287342,47
1766015919.2873468,43
1766015919.2873511,45
1766015919.287356,45
1766015919.28738,47
1766015919.2873962,47
1766015919.287421,43
1766015919.287454,48
1766015919.287479,48
1766015919.287485,45
1766015919.2874901,48
1766015919.287495,48
1766015919.2875001,45
1766015919.287505,49
1766015919.28751,48
1766015919.287515,47
1766015919.28752,47
1766015919.2875252,47
1766015919.287529,47
1766015919.287534,46
1766015919.287539,45
1766015919.287544,43
1766015919.287549,45
1766015919.287554,46
1766015919.2875578,45
1766015919.287563,44
1766015919.2875679,43
1766015919.287573,49
1766015919.287578,45
1766015919.2875829,43
1766015919.287589,43
1766015919.287595,43
1766015919.2876,46
1766015919.287605,43
1766015919.28761,45
1766015919.287615,44
1766015919.28762,45
1766015919.287624,47
1766015919.2876291,47
1766015919.287634,45
1766015919.2876391,44
1766015919.287644,46
1766015919.287649,47
1766015919.287654,44
1766015919.287658,46
1766015919.2876632,44
1766015919.287668,42
1766015919.287673,43
1766015919.287678,41
1766015919.287683,45
1766015919.2876868,41
1766015919.287692,44
1766015919.2876968,43
1766015919.287702,42
1766015919.2877069,42
1766015919.287712,42
1766015919.2877162,41
1766015919.287721,42
1766015919.2877262,43
1766015919.287731,42
1766015919.2877362,42
1766015919.287741,41
1766015919.287745,42
1766015919.287752,40
1766015919.287759,44
1766015919.287764,45
1766015919.287769,44
1766015919.2877738,41
1766015919.2877781,41
1766015919.287783,41
1766015919.287788,41
1766015919.287793,45
1766015919.287798,42
1766015919.287803,41
1766015919.287808,43
1766015919.287812,41
1766015919.287817,45
1766015919.287822,43
1766015919.287827,43
1766015919.287832,39
1766015919.287837,42
1766015919.287842,42
1766015919.2878458,42
1766015919.287851,44
1766015919.287856,40
1766015919.287861,44
1766015919.287866,43
1766015919.28787,44
1766015919.2878752,41
1766015919.28788,39
1766015919.287885,39
1766015919.28789,43
1766015919.287895,42
1766015919.2878988,43
1766015919.287904,39
1766015919.287909,41
1766015919.287914,44
1766015919.2879202,41
1766015919.287926,41
1766015919.287931,41
1766015919.287936,43
1766015919.2879412,42
1766015919.287946,40
1766015919.28795,40
1766015919.287955,40
1766015919.28796,40
1766015919.2879648,42
1766015919.28797,38
1766015919.2879739,40
1766015919.2879791,40
1766015919.2879841,39
1766015919.287989,40
1766015919.2879941,42
1766015919.287999,40
1766015919.288003,38
1766015919.288008,42
1766015919.288013,41
1766015919.288018,39
1766015919.288023,41
1766015919.2880268,38
1766015919.288032,38
1766015919.288037,40
1766015919.288042,39
1766015919.288047,36
1766015919.288052,37
1766015919.2880561,37
1766015919.288061,37
1766015919.2880661,37
1766015919.288071,38
1766015919.288076,38
1766015919.288082,38
1766015919.288088,37
1766015919.2880929,40
1766015919.2880971,40
1766015919.288102,35
1766015919.288107,36
1766015919.2881122,36
1766015919.288117,39
1766015919.288121,37
1766015919.288126,38
1766015919.288131,36
1766015919.288136,39
1766015919.288141,36
1766015919.2881448,35
1766015919.28815,35
1766015919.2881548,37
1766015919.28816,38
1766015919.288165,34
1766015919.288169,38
1766015919.2881742,32
1766015919.288179,32
1766015919.2881842,32
1766015919.288189,34
1766015919.288194,38
1766015919.288198,37
1766015919.288203,38
1766015919.2882078,35
1766015919.288213,35
1766015919.288218,32
1766015919.288223,33
1766015919.288227,34
1766015919.2882318,36
1766015919.288237,33
1766015919.288244,37
1766015919.288249,36
1766015919.288254,37
1766015919.288259,37
1766015919.288264,35
1766015919.288269,34
1766015919.2882738,34
1766015919.288279,35
1766015919.2882829,32
1766015919.288288,32
1766015919.2882931,35
1766015919.288298,35
1766015919.2883031,35
1766015919.288309,33
1766015919.2883132,33
1766015919.288318,34
1766015919.2883232,31
1766015919.288328,34
1766015919.288333,33
1766015919.288338,36
1766015919.288342,35
1766015919.2883468,31
1766015919.288352,31
1766015919.288357,34
1766015919.288362,30
1766015919.288367,30
1766015919.2883708,32
1766015919.288376,35
1766015919.2883809,31
1766015919.288386,33
1766015919.2883909,31
1766015919.2883961,35
1766015919.288401,31
1766015919.288408,31
1766015919.2884128,30
1766015919.288418,30
1766015919.2884228,30
1766015919.288427,32
1766015919.2884321,34
1766015919.288437,31
1766015919.2884421,31
1766015919.288447,29
1766015919.2884521,30
1766015919.288457,31
1766015919.288461,31
1766015919.288466,29
1766015919.288471,29
1766015919.288476,31
1766015919.288481,27
1766015919.288486,30
1766015919.28849,28
1766015919.288495,28
1766015919.2885,31
1766015919.288505,31
1766015919.2885098,31
1766015919.288515,32
1766015919.2885199,32
1766015919.2885242,25
1766015919.288529,30
1766015919.288534,28
1766015919.288539,29
1766015919.288544,27
1766015919.2885492,29
1766015919.288554,28
1766015919.2885618,29
1766015919.288567,28
1766015919.2885718,30
1766015919.2885818,30
1766015919.288588,30
1766015919.2885928,29
1766015919.288598,27
1766015919.288602,26
1766015919.288607,27
1766015919.2886121,26
1766015919.288617,29
1766015919.2886221,29
1766015919.288627,30
1766015919.2886322,30
1766015919.288636,28
1766015919.288641,27
1766015919.288646,28
1766015919.288651,29
1766015919.288655,28
1766015919.28866,27
1766015919.288665,27
1766015919.28867,29
1766015919.288675,27
1766015919.2886798,28
1766015919.2886841,28
1766015919.288689,24
1766015919.288694,29
1766015919.288699,26
1766015919.288704,27
1766015919.2887092,26
1766015919.288714,26
1766015919.2887192,24
1766015919.288724,27
1766015919.2887292,26
1766015919.288734,29
1766015919.288739,27
1766015919.2887459,28
1766015919.2887528,27
1766015919.288758,27
1766015919.2887628,29
1766015919.288768,27
1766015919.288773,25
1766015919.288778,26
1766015919.288783,26
1766015919.288788,23
1766015919.288793,25
1766015919.2887979,23
1766015919.288803,25
1766015919.2888079,26
1766015919.288813,25
1766015919.288817,27
1766015919.2888231,27
1766015919.288828,24
1766015919.2888331,27
1766015919.2888372,25
1766015919.288842,27
1766015919.2888472,26
1766015919.288852,26
1766015919.288857,24
1766015919.288862,24
1766015919.288867,26
1766015919.288872,25
1766015919.288876,27
1766015919.2888808,26
1766015919.288886,25
1766015919.2888908,23
1766015919.288896,27
1766015919.2889001,28
1766015919.288905,25
1766015919.2889118,26
1766015919.288917,24
1766015919.288922,26
1766015919.288927,28
1766015919.288932,27
1766015919.2889369,26
1766015919.288942,24
1766015919.288946,24
1766015919.2889512,27
1766015919.288956,25
1766015919.288961,26
1766015919.288966,29
1766015919.288971,26
1766015919.288976,24
1766015919.288981,24
1766015919.288985,24
1766015919.28899,27
1766015919.288995,27
1766015919.289,25
1766015919.289005,23
1766015919.2890098,25
1766015919.289015,26
1766015919.2890189,23
1766015919.289024,22
1766015919.2890291,27
1766015919.289034,24
1766015919.2890391,23
1766015919.289044,24
1766015919.2890491,26
1766015919.289053,25
1766015919.289058,25
1766015919.289063,24
1766015919.289068,27
1766015919.289073,27
1766015919.2890828,25
1766015919.289088,23
1766015919.289093,22
1766015919.289098,24
1766015919.289103,25
1766015919.289108,28
1766015919.289112,26
1766015919.2891169,22
1766015919.289122,24
1766015919.2891269,24
1766015919.289132,24
1766015919.289137,23
1766015919.2891421,27
1766015919.289147,25
1766015919.289151,26
1766015919.2891562,24
1766015919.289161,26
1766015919.289166,24
1766015919.289171,24
1766015919.289176,23
1766015919.289181,21
1766015919.289185,28
1766015919.2891898,24
1766015919.289195,23
1766015919.2892,22
1766015919.289205,26
1766015919.28921,23
1766015919.289214,25
1766015919.2892191,22
1766015919.289224,24
1766015919.2892292,24
1766015919.289234,22
1766015919.2892401,21
1766015919.289245,24
1766015919.2892501,24
1766015919.289255,23
1766015919.2892601,23
1766015919.289265,22
1766015919.28927,22
1766015919.289275,26
1766015919.28928,22
1766015919.2892852,23
1766015919.28929,24
1766015919.2892952,23
1766015919.289299,24
1766015919.289304,22
1766015919.289309,23
1766015919.289314,24
1766015919.2893188,24
1766015919.289324,19
1766015919.2893288,22
1766015919.289333,24
1766015919.289338,20
1766015919.2893429,22
1766015919.2893481,26
1766015919.289353,23
1766015919.2893581,20
1766015919.289363,21
1766015919.289367,24
1766015919.289372,24
1766015919.289377,23
1766015919.289382,27
1766015919.289387,25
1766015919.289391,24
1766015919.289396,20
1766015919.289401,23
1766015919.289408,23
1766015919.289415,25
1766015919.2894201,22
1766015919.289425,24
1766015919.28943,22
1766015919.289435,24
1766015919.28944,25
1766015919.2894452,24
1766015919.28945,23
1766015919.2894552,25
1766015919.289459,25
1766015919.289464,23
1766015919.289469,22
1766015919.289474,26
1766015919.289479,26
1766015919.289483,27
1766015919.2894878,23
1766015919.289493,25
1766015919.289498,26
1766015919.2895029,25
1766015919.2895072,22
1766015919.289512,25
1766015919.2895172,25
1766015919.289522,25
1766015919.289527,24
1766015919.289531,24
1766015919.289536,25
1766015919.289541,22
1766015919.289546,24
1766015919.289551,23
1766015919.289556,25
1766015919.28956,25
1766015919.2895648,27
1766015919.28957,24
1766015919.2895749,25
1766015919.28958,25
1766015919.2895849,23
1766015919.2895901,25
1766015919.289595,23
1766015919.289599,25
1766015919.2896042,28
1766015919.289609,24
1766015919.289614,24
1766015919.289619,22
1766015919.289624,23
1766015919.289629,27
1766015919.289634,27
1766015919.2896378,21
1766015919.289644,27
1766015919.289649,29
1766015919.289653,24
1766015919.289658,26
1766015919.289663,26
1766015919.289668,26
1766015919.2896729,26
1766015919.2896798,24
1766015919.289685,24
1766015919.28969,25
1766015919.289695,29
1766015919.2897,27
1766015919.2897038,27
1766015919.28971,23
1766015919.2897139,26
1766015919.289719,27
1766015919.2897239,26
1766015919.289729,27
1766015919.289734,27
1766015919.289738,25
1766015919.2897432,26
1766015919.289748,24
1766015919.2897532,27
1766015919.289758,27
1766015919.289763,25
1766015919.289768,25
1766015919.289772,21
1766015919.2897768,26
1766015919.289782,24
1766015919.2897868,25
1766015919.289792,22
1766015919.289797,25
1766015919.289801,23
1766015919.2898061,26
1766015919.289811,26
1766015919.2898161,26
1766015919.289821,23
1766015919.2898262,25
1766015919.28983,26
1766015919.289835,23
1766015919.2898402,26
1766015919.289845,23
1766015919.28985,26
1766015919.289855,23
1766015919.289859,24
1766015919.2898638,22
1766015919.289869,23
1766015919.2898738,24
1766015919.289879,26
1766015919.2898839,25
1766015919.289888,23
1766015919.2898932,25
1766015919.289898,24
1766015919.2899032,25
1766015919.289908,28
1766015919.289912,22
1766015919.289917,22
1766015919.289922,24
1766015919.289927,22
1766015919.289932,25
1766015919.2899358,27
1766015919.289941,27
1766015919.289946,24
1766015919.289951,25
1766015919.289956,23
1766015919.2899609,26
1766015919.289966,25
1766015919.2899709,22
1766015919.2899761,22
1766015919.289981,24
1766015919.289985,24
1766015919.28999,23
1766015919.289995,24
1766015919.29,25
1766015919.290005,24
1766015919.2900102,24
1766015919.290014,26
1766015919.290019,26
1766015919.290024,26
1766015919.290029,25
1766015919.2900338,27
1766015919.290038,24
1766015919.2900429,26
1766015919.290048,24
1766015919.2900531,25
1766015919.290058,26
1766015919.2900622,24
1766015919.290067,23
1766015919.290072,24
1766015919.290077,25
1766015919.290082,26
1766015919.290087,24
1766015919.290091,21
1766015919.290096,24
1766015919.290101,24
1766015919.290106,25
1766015919.290111,24
1766015919.290115,25
1766015919.29012,26
1766015919.2901251,24
1766015919.29013,22
1766015919.2901351,26
1766015919.290139,25
1766015919.290144,23
1766015919.2901492,26
1766015919.290154,25
1766015919.290159,23
1766015919.290164,24
1766015919.290168,23
1766015919.2901728,25
1766015919.290178,25
1766015919.2901828,24
1766015919.290188,21
1766015919.2901928,23
1766015919.290198,26
1766015919.2902021,26
1766015919.290207,24
1766015919.2902122,21
1766015919.290217,24
1766015919.2902222,22
1766015919.290227,24
1766015919.290231,24
1766015919.290236,27
1766015919.290241,21
1766015919.2902458,23
1766015919.290251,23
1766015919.2902558,25
1766015919.29026,24
1766015919.290265,25
1766015919.2902699,22
1766015919.290275,25
1766015919.2902799,24
1766015919.290284,22
1766015919.290289,27
1766015919.290294,26
1766015919.290299,24
1766015919.290304,23
1766015919.2903092,25
1766015919.290314,24
1766015919.2903192,22
1766015919.290339,26
1766015919.290345,25
1766015919.2903502,25
1766015919.290355,24
1766015919.290396,23
1766015919.2904088,23
1766015919.290426,21
1766015919.290431,24
1766015919.290436,23
1766015919.290441,25
1766015919.290446,25
1766015919.2904499,22
1766015919.290455,23
1766015919.2904599,24
1766015919.290465,23
1766015919.29047,24
1766015919.290474,23
1766015919.2904792,26
1766015919.290484,25
1766015919.2904892,23
1766015919.290494,23
1766015919.290498,25
1766015919.290503,22
1766015919.290508,22
1766015919.290514,24
1766015919.290518,26
1766015919.2905228,25
1766015919.290528,25
1766015919.290533,22
1766015919.290538,26
1766015919.2905421,24
1766015919.290547,25
1766015919.2905521,21
1766015919.290557,26
1766015919.290561,22
1766015919.290566,24
1766015919.290571,23
1766015919.290576,21
1766015919.29076,25
1766015919.291769,24
1766015919.292767,23
1766015919.293786,23
1766015919.294803,24
1766015919.2958028,23
1766015919.296787,23
1766015919.297802,23
1766015919.298858,26
1766015919.2997918,23
1766015919.300781,27
1766015919.3017988,24
1766015919.3027892,24
1766015919.303828,27
1766015919.304808,26
1766015919.305821,24
1766015919.306775,27
1766015919.3078852,25
1766015919.308827,23
1766015919.3097768,23
1766015919.310791,23
1766015919.3117921,25
1766015919.312819,23
1766015919.3138392,23
1766015919.314844,27
1766015919.315818,24
1766015919.316829,26
1766015919.317815,24
1766015919.318818,26
1766015919.319822,27
1766015919.320842,25
1766015919.3218188,24
1766015919.322879,23
1766015919.323893,26
1766015919.324872,23
1766015919.325842,24
1766015919.3268402,26
1766015919.327851,26
1766015919.328871,25
1766015919.3298838,26
1766015919.330852,25
1766015919.331855,25
1766015919.332852,26
1766015919.333837,25
1766015919.3348732,27
1766015919.33586,23
1766015919.336855,29
1766015919.337834,24
1766015919.3388412,24
1766015919.339853,28
1766015919.340953,25
1766015919.3419452,27
1766015919.3429382,24
1766015919.343952,25
1766015919.344875,23
1766015919.345964,27
1766015919.3469539,24
1766015919.34799,25
1766015919.348963,27
1766015919.3499498,23
1766015919.350938,25
1766015919.3519459,23
1766015919.352951,25
1766015919.3539898,23
1766015919.35496,22
1766015919.355946,24
1766015919.356952,25
1766015919.35796,26
1766015919.358939,23
1766015919.359935,27
1766015919.360945,26
1766015919.36196,24
1766015919.362976,24
1766015919.3639512,25
1766015919.364937,23
1766015919.3659499,25
1766015919.366951,20
1766015919.367946,25
1766015919.368931,26
1766015919.369955,24
1766015919.370975,27
1766015919.371958,24
1766015919.3729558,24
1766015919.373965,23
1766015919.374957,25
1766015919.375954,22
1766015919.376949,25
1766015919.3779562,26
1766015919.37902,25
1766015919.380008,26
1766015919.380984,21
1766015919.381987,26
1766015919.382993,27
1766015919.3839831,25
1766015919.384985,27
1766015919.385998,27
1766015919.386998,28
1766015919.387996,27
1766015919.388986,28
1766015919.3899992,32
1766015919.3909938,35
1766015919.391995,33
1766015919.3930008,31
1766015919.394014,33
1766015919.3950121,36
1766015919.396019,34
1766015919.397027,31
1766015919.3980129,32
1766015919.3990479,31
1766015919.400048,36
1766015919.4010408,43
1766015919.4020422,49
1766015919.4030342,56
1766015919.404097,66
1766015919.405039,72
1766015919.406034,76
1766015919.4070559,77
1766015919.408074,84
1766015919.40907,86
1766015919.410072,84
1766015919.4110668,87
1766015919.412132,91
1766015919.413167,89
1766015919.414119,87
1766015919.415086,86
1766015919.4161038,89
1766015919.417119,90
1766015919.418078,92
1766015919.41909,99
1766015919.420192,107
1766015919.421223,109
1766015919.422204,110
1766015919.423182,111
1766015919.424212,111
1766015919.425195,110
1766015919.426208,112
1766015919.427207,110
1766015919.4282298,114
1766015919.429284,116
1766015919.4302342,118
1766015919.431206,114
1766015919.432228,114
1766015919.433203,111
1766015919.434203,115
1766015919.43521,117
1766015919.436196,123
1766015919.437218,134
1766015919.438208,139
1766015919.439214,149
1766015919.440212,159
1766015919.441225,163
1766015919.442223,164
1766015919.443236,165
1766015919.4442408,166
1766015919.445271,166
1766015919.446302,166
1766015919.447253,165
1766015919.448259,169
1766015919.449247,174
1766015919.45026,171
1766015919.451293,170
1766015919.4522738,170
1766015919.453287,170
1766015919.45428,170
1766015919.455285,171
1766015919.456293,171
1766015919.4572742,172
1766015919.458289,174
1766015919.459292,173
1766015919.4602811,173
1766015919.461308,174
1766015919.462317,171
1766015919.463296,175
1766015919.464294,181
1766015919.465316,188
1766015919.466311,194
1766015919.467314,199
1766015919.46831,203
1766015919.469333,202
1766015919.470316,202
1766015919.4713411,204
1766015919.472327,207
1766015919.473362,209
1766015919.474335,209
1766015919.475339,210
1766015919.4764202,209
1766015919.477338,208
1766015919.4783502,204
1766015919.4793448,205
1766015919.480351,201
1766015919.4813492,199
1766015919.482362,201
1766015919.48336,196
1766015919.48436,196
1766015919.485367,195
1766015919.486356,198
1766015919.487385,199
1766015919.488384,205
1766015919.489366,214
1766015919.4904,230
1766015919.491373,240
1766015919.492366,247
1766015919.493387,252
1766015919.494404,250
1766015919.495392,253
1766015919.496413,251
1766015919.497419,251
1766015919.498425,254
1766015919.499397,254
1766015919.5004249,251
1766015919.501416,252
1766015919.502434,248
1766015919.503414,250
1766015919.504441,248
1766015919.505419,247
1766015919.506413,246
1766015919.507421,242
1766015919.508415,241
1766015919.509409,239
1766015919.510428,243
1766015919.511439,243
1766015919.512449,248
1766015919.5134459,250
1766015919.514452,247
1766015919.515455,244
1766015919.516444,242
1766015919.51745,241
1766015919.518453,242
1766015919.519468,241
1766015919.520467,247
1766015919.521472,255
1766015919.522476,258
1766015919.523484,260
1766015919.5244648,259
1766015919.525474,261
1766015919.526458,255
1766015919.527489,254
1766015919.528492,250
1766015919.529495,250
1766015919.53057,247
1766015919.5315478,247
1766015919.5325482,245
1766015919.53352,248
1766015919.534515,253
1766015919.5355048,260
1766015919.53649,267
1766015919.537504,275
1766015919.538521,281
1766015919.539509,278
1766015919.5405152,280
1766015919.5415208,280
1766015919.542521,280
1766015919.543545,283
1766015919.5445151,283
1766015919.545548,289
1766015919.5465431,292
1766015919.5475452,289
1766015919.548566,289
1766015919.5495858,286
1766015919.550564,282
1766015919.551564,280
1766015919.552555,276
1766015919.553547,275
1766015919.5545669,270
1766015919.555563,269
1766015919.5565598,272
1766015919.557567,274
1766015919.558563,284
1766015919.559576,290
1766015919.560593,289
1766015919.561549,290
1766015919.5625842,295
1766015919.5636108,297
1766015919.564599,298
1766015919.565598,296
1766015919.566633,292
1766015919.567604,289
1766015919.568599,285
1766015919.5695791,283
1766015919.5705972,278
1766015919.571594,274
1766015919.572603,271
1766015919.573608,266
1766015919.574615,267
1766015919.575619,266
1766015919.576608,261
1766015919.5776021,259
1766015919.578609,256
1766015919.579626,254
1766015919.58064,252
1766015919.581644,250
1766015919.582628,253
1766015919.5836318,254
1766015919.5846431,251
1766015919.58564,247
1766015919.586642,251
1766015919.587681,247
1766015919.5886562,243
1766015919.589657,244
1766015919.590656,247
1766015919.5916622,244
1766015919.592656,246
1766015919.593649,240
1766015919.5946681,237
1766015919.595656,234
1766015919.596674,233
1766015919.597684,231
1766015919.598689,228
1766015919.59967,227
1766015919.600668,224
1766015919.6017332,224
1766015919.602735,225
1766015919.603669,228
1766015919.604695,231
1766015919.605691,231
1766015919.606702,235
1766015919.607699,234
1766015919.608711,234
1766015919.609715,227
1766015919.610715,227
1766015919.611698,223
1766015919.612719,224
1766015919.613714,221
1766015919.6147141,218
1766015919.6157172,216
1766015919.616734,215
1766015919.61774,217
1766015919.618745,219
1766015919.619755,217
1766015919.6207519,214
1766015919.6217139,214
1766015919.622755,210
1766015919.623744,209
1766015919.624745,208
1766015919.625771,206
1766015919.62676,203
1766015919.6277819,206
1766015919.628764,207
1766015919.629775,210
1766015919.6307561,209
1766015919.631763,206
1766015919.63277,208
1766015919.633773,211
1766015919.6347709,206
1766015919.6357691,206
1766015919.636765,201
1766015919.6377769,199
1766015919.638792,197
1766015919.639807,193
1766015919.640793,191
1766015919.641797,189
1766015919.642805,189
1766015919.6438148,186
1766015919.6448221,183
1766015919.645835,186
1766015919.646847,187
1766015919.647829,187
1766015919.6488261,190
1766015919.649842,190
1766015919.65084,189
1766015919.651828,187
1766015919.6528199,188
1766015919.6538198,186
1766015919.654948,187
1766015919.655848,189
1766015919.656842,187
1766015919.657852,183
1766015919.658855,181
1766015919.659864,181
1766015919.660906,181
1766015919.661866,176
1766015919.662855,175
1766015919.663837,171
1766015919.6649,171
1766015919.666014,167
1766015919.666923,167
1766015919.667927,166
1766015919.668999,164
1766015919.669944,165
1766015919.6710038,165
1766015919.6719968,175
1766015919.672988,181
1766015919.673938,187
1766015919.674989,189
1766015919.675997,190
1766015919.67699,194
1766015919.677991,193
1766015919.679043,190
1766015919.680039,189
1766015919.681046,185
1766015919.681961,185
1766015919.6830049,185
1766015919.684034,184
1766015919.685001,183
1766015919.686029,184
1766015919.687017,181
1766015919.688009,180
1766015919.689007,178
1766015919.690001,177
1766015919.691009,176
1766015919.691974,171
1766015919.692971,170
1766015919.693974,169
1766015919.694964,168
1766015919.696011,165
1766015919.697013,164
1766015919.698003,160
1766015919.699001,160
1766015919.700019,159
1766015919.701022,159
1766015919.702003,158
1766015919.702972,158
1766015919.704063,154
1766015919.705049,153
1766015919.706059,151
1766015919.707021,148
1766015919.7080169,147
1766015919.709022,147
1766015919.710025,143
1766015919.7110322,143
1766015919.71209,146
1766015919.713046,146
1766015919.714041,150
1766015919.715035,154
1766015919.7160451,153
1766015919.7170591,152
1766015919.718053,152
1766015919.71906,154
1766015919.720005,150
1766015919.721076,151
1766015919.722055,149
1766015919.7230668,145
1766015919.724076,149
1766015919.725064,147
1766015919.726092,146
1766015919.727085,147
1766015919.728053,144
1766015919.729107,143
1766015919.7301152,141
1766015919.731101,141
1766015919.732107,137
1766015919.733112,137
1766015919.7341352,138
1766015919.735119,136
1766015919.736151,134
1766015919.7371662,134
1766015919.738146,131
1766015919.739142,130
1766015919.7401211,129
1766015919.741101,128
1766015919.742134,126
1766015919.743165,126
1766015919.74417,127
1766015919.7450938,125
1766015919.746214,123
1766015919.7471611,124
1766015919.7481349,124
1766015919.74912,126
1766015919.750138,131
1766015919.751149,134
1766015919.752158,134
1766015919.7531252,137
1766015919.7541199,138
1766015919.755211,139
1766015919.7561312,141
1766015919.757178,135
1766015919.758133,136
1766015919.759176,137
1766015919.760185,135
1766015919.761182,137
1766015919.762188,135
1766015919.7631848,133
1766015919.76422,133
1766015919.7652102,136
1766015919.766186,133
1766015919.76721,131
1766015919.7682061,131
1766015919.769218,131
1766015919.7701728,129
1766015919.7712262,130
1766015919.772214,132
1766015919.7732038,130
1766015919.7742028,127
1766015919.775232,127
1766015919.776234,127
1766015919.7772212,123
1766015919.778188,125
1766015919.779239,125
1766015919.7801988,130
1766015919.7812438,133
1766015919.782235,136
1766015919.783246,135
1766015919.784238,138
1766015919.785266,143
1766015919.786242,145
1766015919.787318,146
1766015919.788269,147
1766015919.789267,142
1766015919.790268,143
1766015919.791265,143
1766015919.792269,145
1766015919.793267,137
1766015919.7942872,140
1766015919.795233,140
1766015919.7962408,135
1766015919.797297,133
1766015919.798296,132
1766015919.799293,134
1766015919.800264,131
1766015919.801284,133
1766015919.802284,129
1766015919.8032808,128
1766015919.804289,126
1766015919.8053088,126
1766015919.806302,124
1766015919.807307,126
1766015919.808332,126
1766015919.809298,121
1766015919.810308,121
1766015919.8113,122
1766015919.812345,126
1766015919.813291,127
1766015919.81433,132
1766015919.8153012,131
1766015919.81635,133
1766015919.817317,135
1766015919.8183198,133
1766015919.8193338,134
1766015919.82032,133
1766015919.821373,129
1766015919.82235,129
1766015919.823335,127
1766015919.824357,126
1766015919.825363,126
1766015919.82637,123
1766015919.82736,125
1766015919.828337,122
1766015919.8293881,120
1766015919.83037,120
1766015919.8313642,118
1766015919.832362,116
1766015919.833389,115
1766015919.834379,115
1766015919.835372,112
1766015919.8363678,114
1766015919.8373911,114
1766015919.838398,113
1766015919.839373,112
1766015919.840398,110
1766015919.841395,109
1766015919.842402,110
1766015919.843395,108
1766015919.844398,108
1766015919.845394,110
1766015919.846402,111
1766015919.847414,114
1766015919.848435,113
1766015919.8494,113
1766015919.8504431,111
1766015919.851409,111
1766015919.852436,110
1766015919.853408,108
1766015919.854439,108
1766015919.855444,105
1766015919.856451,107
1766015919.8574169,103
1766015919.858452,104
1766015919.859432,100
1766015919.860458,101
1766015919.861412,101
1766015919.862439,102
1766015919.863442,100
1766015919.864345,98
1766015919.8653572,97
1766015919.866344,98
1766015919.867376,95
1766015919.868374,93
1766015919.869382,92
1766015919.870403,94
1766015919.871385,93
1766015919.872389,93
1766015919.873386,89
1766015919.874413,90
1766015919.8753731,88
1766015919.876389,90
1766015919.877374,89
1766015919.878405,88
1766015919.8794172,89
1766015919.880404,88
1766015919.8814,87
1766015919.882431,84
1766015919.8834271,83
1766015919.884408,83
1766015919.885417,83
1766015919.88642,87
1766015919.88743,90
1766015919.8884149,91
1766015919.889441,97
1766015919.890433,94
1766015919.8914402,98
1766015919.892522,100
1766015919.893444,98
1766015919.8945549,100
1766015919.895533,102
1766015919.896496,100
1766015919.897446,97
1766015919.8985379,102
1766015919.8995242,102
1766015919.900539,104
1766015919.901546,103
1766015919.902545,102
1766015919.9034948,100
1766015919.904459,99
1766015919.9054642,99
1766015919.906454,99
1766015919.907468,96
1766015919.908483,96
1766015919.9094741,94
1766015919.910479,90
1766015919.911453,94
1766015919.91249,91
1766015919.913471,92
1766015919.914498,92
1766015919.915471,88
1766015919.916503,87
1766015919.917464,94
1766015919.918488,93
1766015919.919452,94
1766015919.920476,96
1766015919.9214988,95
1766015919.922501,96
1766015919.923506,98
1766015919.924512,99
1766015919.92561,102
1766015919.9265149,98
1766015919.9276001,101
1766015919.928569,100
1766015919.929614,103
1766015919.930635,103
1766015919.931629,102
1766015919.9325829,101
1766015919.933635,102
1766015919.934634,100
1766015919.935624,101
1766015919.936618,101
1766015919.937535,95
1766015919.9386299,100
1766015919.939548,96
1766015919.940526,97
1766015919.941531,94
1766015919.9425359,94
1766015919.943541,94
1766015919.94456,93
1766015919.945738,92
1766015919.946569,91
1766015919.947577,93
1766015919.948589,91
1766015919.9495811,92
1766015919.950581,89
1766015919.951566,93
1766015919.952577,90
1766015919.9535801,87
1766015919.95458,87
1766015919.9555771,84
1766015919.956588,88
1766015919.9575832,86
1766015919.958622,82
1766015919.959597,80
1766015919.960596,80
1766015919.9616,84
1766015919.962615,79
1766015919.9636211,82
1766015919.964631,80
1766015919.9656,77
1766015919.966635,79
1766015919.967616,78
1766015919.968622,78
1766015919.969624,81
1766015919.97063,80
1766015919.971628,80
1766015919.972639,80
1766015919.9736419,81
1766015919.974646,79
1766015919.975647,78
1766015919.976641,78
1766015919.977642,76
1766015919.978656,77
1766015919.9796522,76
1766015919.9806552,77
1766015919.981659,72
1766015919.982665,74
1766015919.983677,76
1766015919.984674,71
1766015919.9856699,73
1766015919.9866781,73
1766015919.987673,72
1766015919.9886851,74
1766015919.989687,77
1766015919.990685,78
1766015919.991692,75
1766015919.9926982,79
1766015919.993684,83
1766015919.994715,84
1766015919.995702,86
1766015919.996692,84
1766015919.997726,86
1766015919.998729,85
1766015919.9997299,87
1766015920.0007439,84
1766015920.001745,84
1766015920.002739,83
1766015920.003752,80
1766015920.0047429,79
1766015920.00575,78
1766015920.0067651,77
1766015920.0077708,80
1766015920.008731,81
1766015920.0097358,81
1766015920.010755,80
1766015920.011731,83
1766015920.012769,82
1766015920.013757,81
1766015920.014752,83
1766015920.015766,84
1766015920.016767,82
1766015920.017766,82
1766015920.018773,83
1766015920.0197601,82
1766015920.020777,84
1766015920.021791,87
1766015920.0227919,82
1766015920.0237892,81
1766015920.024804,84
1766015920.025802,84
1766015920.026761,82
1766015920.027782,85
1766015920.0288,78
1766015920.02978,81
1766015920.030775,82
1766015920.0317812,81
1766015920.0327911,82
1766015920.033798,82
1766015920.034781,81
1766015920.0358028,82
1766015920.036795,86
1766015920.0378041,86
1766015920.038798,82
1766015920.039828,81
1766015920.040823,84
1766015920.041826,81
1766015920.042811,83
1766015920.0438132,80
1766015920.044801,79
1766015920.045813,79
1766015920.04679,81
1766015920.047818,78
1766015920.048817,80
1766015920.049823,80
1766015920.0508149,78
1766015920.05182,78
1766015920.052812,79
1766015920.0538418,79
1766015920.0548322,81
1766015920.055836,83
1766015920.05683,80
1766015920.057869,82
1766015920.05885,82
1766015920.059906,82
1766015920.060888,83
1766015920.061855,82
1766015920.062846,82
1766015920.063849,82
1766015920.064872,82
1766015920.065857,82
1766015920.0668569,81
1766015920.0678542,80
1766015920.068943,78
1766015920.0699468,78
1766015920.070873,76
1766015920.0719528,78
1766015920.072957,81
1766015920.0739489,76
1766015920.0749571,79
1766015920.076,74
1766015920.0769951,77
1766015920.078005,74
1766015920.078997,75
1766015920.0799942,77
1766015920.080995,72
1766015920.081992,75
1766015920.082974,76
1766015920.083974,78
1766015920.0849762,79
1766015920.0859609,81
1766015920.0869691,80
1766015920.087957,80
1766015920.088972,82
1766015920.089972,79
1766015920.090965,81
1766015920.09196,80
1766015920.092986,78
1766015920.0939882,80
1766015920.095,78
1766015920.095986,79
1766015920.0969899,78
1766015920.0979998,77
1766015920.098985,77
1766015920.099997,77
1766015920.100993,76
1766015920.101988,76
1766015920.102986,73
1766015920.1040099,76
1766015920.105011,75
1766015920.105991,73
1766015920.1070158,74
1766015920.108017,69
1766015920.10901,69
1766015920.110016,72
1766015920.111012,70
1766015920.1120121,74
1766015920.113014,70
1766015920.1140218,73
1766015920.1150222,72
1766015920.1160362,71
1766015920.117035,71
1766015920.118046,72
1766015920.119039,72
1766015920.1200519,69
1766015920.1210449,68
1766015920.1220539,73
1766015920.123051,73
1766015920.12405,72
1766015920.125049,76
1766015920.1260722,79
1766015920.1270669,74
1766015920.128051,77
1766015920.129075,75
1766015920.130069,78
1766015920.13107,83
1766015920.132064,86
1766015920.133078,87
1766015920.1340768,86
1766015920.135081,88
1766015920.1360798,91
1766015920.137072,94
1766015920.138088,94
1766015920.139083,93
1766015920.1401038,91
1766015920.141116,93
1766015920.142097,91
1766015920.143114,91
1766015920.144116,91
1766015920.145101,90
1766015920.146094,93
1766015920.1471019,91
1766015920.148128,91
1766015920.1491132,90
1766015920.150126,89
1766015920.151114,87
1766015920.152127,87
1766015920.153121,87
1766015920.154144,86
1766015920.155136,83
1766015920.156134,87
1766015920.157134,83
1766015920.1581628,84
1766015920.1591449,81
1766015920.1601532,86
1766015920.161152,89
1766015920.1621592,86
1766015920.1631649,84
1766015920.16417,82
1766015920.165171,85
1766015920.166181,86
1766015920.16716,83
1766015920.168171,86
1766015920.1691751,85
1766015920.170181,87
1766015920.171186,85
1766015920.1721869,83
1766015920.1731882,81
1766015920.174195,78
1766015920.175188,80
1766015920.1762,81
1766015920.177196,81
1766015920.1782038,80
1766015920.179198,77
1766015920.180198,78
1766015920.181207,80
1766015920.182227,79
1766015920.183221,77
1766015920.184223,76
1766015920.1852212,76
1766015920.1862452,72
1766015920.187233,75
1766015920.188233,72
1766015920.189227,75
1766015920.1902158,75
1766015920.191197,72
1766015920.192209,75
1766015920.1932092,75
1766015920.194231,75
1766015920.195216,77
1766015920.19623,75
1766015920.197207,74
1766015920.19821,76
1766015920.199219,76
1766015920.2002308,72
1766015920.201231,73
1766015920.202239,73
1766015920.203211,72
1766015920.204253,69
1766015920.205251,70
1766015920.206271,69
1766015920.207277,67
1766015920.208274,67
1766015920.2092538,70
1766015920.2102451,68
1766015920.211265,66
1766015920.21228,67
1766015920.213322,64
1766015920.2143428,65
1766015920.215318,65
1766015920.216317,67
1766015920.2172842,68
1766015920.2183318,70
1766015920.2193222,72
1766015920.220323,70
1766015920.221344,69
1766015920.2223492,69
1766015920.223347,71
1766015920.224339,75
1766015920.22534,77
1766015920.226326,79
1766015920.22735,81
1766015920.228338,74
1766015920.2293491,80
1766015920.2303438,79
1766015920.23135,79
1766015920.23236,82
1766015920.233365,83
1766015920.234339,86
1766015920.23534,86
1766015920.236334,86
1766015920.237362,87
1766015920.238366,89
1766015920.2393742,87
1766015920.240372,87
1766015920.241379,87
1766015920.2423759,88
1766015920.243385,88
1766015920.244382,85
1766015920.2453618,85
1766015920.246399,87
1766015920.247404,83
1766015920.2484748,83
1766015920.2493749,85
1766015920.250419,80
1766015920.251372,83
1766015920.252429,82
1766015920.2533948,81
1766015920.254436,80
1766015920.255434,80
1766015920.256434,75
1766015920.257452,75
1766015920.258444,76
1766015920.259446,73
1766015920.26044,76
1766015920.261445,75
1766015920.2624462,71
1766015920.263419,74
1766015920.264436,71
1766015920.265444,71
1766015920.266454,71
1766015920.267429,70
1766015920.268461,70
1766015920.2694788,66
1766015920.270473,68
1766015920.271456,68
1766015920.272471,66
1766015920.273442,67
1766015920.2744582,66
1766015920.2754471,63
1766015920.27647,62
1766015920.277476,64
1766015920.2784908,65
1766015920.279453,62
1766015920.280491,61
1766015920.281496,61
1766015920.282485,59
