timestamp,emg_value
1766015939.4104278,40
1766015939.410452,40
1766015939.4104729,38
1766015939.410493,41
1766015939.410512,38
1766015939.410534,42
1766015939.41055,40
1766015939.4105659,41
1766015939.4105809,40
1766015939.410597,43
1766015939.41065,43
1766015939.410686,41
1766015939.4107032,35
1766015939.410719,42
1766015939.4107661,40
1766015939.410783,39
1766015939.410799,38
1766015939.410815,38
1766015939.41083,39
1766015939.410846,38
1766015939.410861,39
1766015939.41092,38
1766015939.41094,41
1766015939.4109561,39
1766015939.410974,42
1766015939.4109912,36
1766015939.4110432,39
1766015939.411063,40
1766015939.411079,37
1766015939.411094,39
1766015939.41111,36
1766015939.411125,40
1766015939.4111612,39
1766015939.411177,37
1766015939.411196,38
1766015939.411211,37
1766015939.411226,35
1766015939.411241,38
1766015939.411257,41
1766015939.411272,36
1766015939.411288,39
1766015939.411304,38
1766015939.411319,35
1766015939.4113338,40
1766015939.411349,38
1766015939.411365,38
1766015939.41138,38
1766015939.411395,39
1766015939.411411,38
1766015939.411433,39
1766015939.411453,38
1766015939.411474,36
1766015939.411495,35
1766015939.411511,38
1766015939.411526,38
1766015939.411542,37
1766015939.411558,35
1766015939.4115782,37
1766015939.411594,38
1766015939.4116092,37
1766015939.411625,40
1766015939.4116402,39
1766015939.411656,40
1766015939.4118102,41
1766015939.411854,38
1766015939.411885,37
1766015939.411904,38
1766015939.411924,38
1766015939.4119449,37
1766015939.4119658,37
1766015939.41206,37
1766015939.412085,37
1766015939.412102,39
1766015939.412117,38
1766015939.412134,37
1766015939.412149,38
1766015939.4121652,37
1766015939.4121861,34
1766015939.412202,37
1766015939.4122171,37
1766015939.4122329,37
1766015939.412249,37
1766015939.4122639,35
1766015939.41228,36
1766015939.4122949,39
1766015939.412311,37
1766015939.4123259,36
1766015939.412342,36
1766015939.412357,34
1766015939.412373,37
1766015939.412388,36
1766015939.4124029,34
1766015939.412419,34
1766015939.412436,37
1766015939.412451,35
1766015939.412467,37
1766015939.412504,35
1766015939.41252,36
1766015939.412533,33
1766015939.412547,35
1766015939.41256,37
1766015939.412574,36
1766015939.412587,37
1766015939.4126,36
1766015939.4126132,36
1766015939.412626,36
1766015939.412639,37
1766015939.412653,36
1766015939.412666,36
1766015939.412684,37
1766015939.412697,36
1766015939.41271,38
1766015939.4127228,36
1766015939.4127371,36
1766015939.41275,34
1766015939.4127629,34
1766015939.412776,33
1766015939.412788,36
1766015939.412801,37
1766015939.412883,35
1766015939.41291,37
1766015939.4129238,39
1766015939.4129379,38
1766015939.412951,40
1766015939.412967,43
1766015939.413034,41
1766015939.4130518,43
1766015939.413075,43
1766015939.4130921,42
1766015939.413117,43
1766015939.41313,42
1766015939.413148,42
1766015939.413161,39
1766015939.413179,41
1766015939.413192,41
1766015939.4132092,38
1766015939.4132218,42
1766015939.41324,40
1766015939.413253,39
1766015939.413273,38
1766015939.413287,40
1766015939.413304,38
1766015939.4133172,39
1766015939.4133298,40
1766015939.413347,40
1766015939.41336,38
1766015939.413378,37
1766015939.413391,39
1766015939.4134028,38
1766015939.4134169,38
1766015939.413434,40
1766015939.4134479,39
1766015939.413461,41
1766015939.413478,37
1766015939.413491,37
1766015939.4135082,38
1766015939.4135208,38
1766015939.413538,39
1766015939.413551,40
1766015939.413568,41
1766015939.413582,37
1766015939.413606,41
1766015939.41362,38
1766015939.4136372,37
1766015939.41365,39
1766015939.4136682,37
1766015939.4136808,39
1766015939.413694,38
1766015939.413711,40
1766015939.413724,38
1766015939.413741,40
1766015939.4137542,39
1766015939.413784,40
1766015939.413803,39
1766015939.413821,41
1766015939.413834,40
1766015939.413847,40
1766015939.413864,39
1766015939.413877,41
1766015939.413895,39
1766015939.413908,37
1766015939.413921,38
1766015939.4139378,39
1766015939.413951,36
1766015939.4139678,38
1766015939.413991,39
1766015939.4140038,38
1766015939.414017,39
1766015939.4140348,41
1766015939.414048,38
1766015939.414061,39
1766015939.4140742,39
1766015939.4140868,36
1766015939.4141078,37
1766015939.414121,38
1766015939.414134,35
1766015939.414151,35
1766015939.414164,36
1766015939.414177,39
1766015939.414197,36
1766015939.4142091,37
1766015939.414227,35
1766015939.41424,36
1766015939.414253,34
1766015939.414266,35
1766015939.414345,33
1766015939.41436,34
1766015939.4143732,32
1766015939.414386,33
1766015939.414399,34
1766015939.414412,35
1766015939.414504,35
1766015939.4145238,36
1766015939.414547,35
1766015939.41456,35
1766015939.414578,33
1766015939.414596,34
1766015939.414609,33
1766015939.414622,34
1766015939.414635,31
1766015939.4146528,32
1766015939.414666,30
1766015939.414679,33
1766015939.4146922,34
1766015939.41471,33
1766015939.4147258,33
1766015939.414739,30
1766015939.4147599,34
1766015939.414773,31
1766015939.414786,32
1766015939.41483,28
1766015939.414845,30
1766015939.414866,34
1766015939.4148831,31
1766015939.414896,32
1766015939.414909,31
1766015939.414923,31
1766015939.414936,32
1766015939.4149492,30
1766015939.4149618,29
1766015939.414975,29
1766015939.414989,30
1766015939.415002,31
1766015939.415015,32
1766015939.4150279,29
1766015939.4150422,28
1766015939.415055,32
1766015939.415068,29
1766015939.415081,31
1766015939.415094,29
1766015939.415107,29
1766015939.41512,32
1766015939.415133,30
1766015939.4151459,30
1766015939.415159,30
1766015939.415173,29
1766015939.415186,31
1766015939.415199,30
1766015939.4152162,30
1766015939.41523,32
1766015939.415243,28
1766015939.415256,33
1766015939.4152691,33
1766015939.415282,30
1766015939.415295,32
1766015939.415307,31
1766015939.415321,32
1766015939.415334,30
1766015939.4153469,32
1766015939.41536,31
1766015939.415373,29
1766015939.4153862,29
1766015939.4153988,32
1766015939.415412,30
1766015939.415425,26
1766015939.4154382,31
1766015939.4154508,31
1766015939.415464,30
1766015939.415477,33
1766015939.4154902,31
1766015939.415503,30
1766015939.415516,32
1766015939.415529,31
1766015939.4155421,31
1766015939.415555,28
1766015939.4155679,34
1766015939.415581,33
1766015939.415594,31
1766015939.415607,32
1766015939.41562,32
1766015939.4156349,33
1766015939.415649,32
1766015939.415661,33
1766015939.4156742,32
1766015939.4156868,31
1766015939.415701,30
1766015939.415714,32
1766015939.4157262,33
1766015939.4157388,32
1766015939.415752,28
1766015939.415765,32
1766015939.4157782,34
1766015939.415791,32
1766015939.415804,33
1766015939.415817,32
1766015939.41583,36
1766015939.415843,34
1766015939.4158561,30
1766015939.415869,33
1766015939.415884,32
1766015939.4158971,31
1766015939.41591,30
1766015939.4159229,33
1766015939.415937,30
1766015939.415951,31
1766015939.415964,32
1766015939.415977,30
1766015939.415989,28
1766015939.416003,30
1766015939.4160159,30
1766015939.416029,30
1766015939.416042,31
1766015939.416055,28
1766015939.41607,30
1766015939.416082,29
1766015939.416095,29
1766015939.4161081,30
1766015939.416121,30
1766015939.4161339,30
1766015939.4161458,31
1766015939.41616,31
1766015939.416172,30
1766015939.4161851,33
1766015939.4161978,32
1766015939.416212,32
1766015939.416225,29
1766015939.416237,29
1766015939.4162502,31
1766015939.4162629,29
1766015939.416276,33
1766015939.416289,30
1766015939.416302,30
1766015939.4163148,31
1766015939.416328,30
1766015939.416341,32
1766015939.416353,30
1766015939.416367,27
1766015939.41638,30
1766015939.416394,31
1766015939.416407,29
1766015939.41642,29
1766015939.4164329,30
1766015939.416447,30
1766015939.41646,33
1766015939.4164732,36
1766015939.416489,34
1766015939.416502,36
1766015939.4165142,36
1766015939.416527,33
1766015939.41654,35
1766015939.416553,36
1766015939.4165661,37
1766015939.416579,34
1766015939.416592,37
1766015939.416605,34
1766015939.416617,38
1766015939.41663,37
1766015939.4166431,38
1766015939.4166558,38
1766015939.416671,35
1766015939.4166842,35
1766015939.416697,36
1766015939.41671,31
1766015939.416723,31
1766015939.416736,34
1766015939.416749,36
1766015939.4167612,37
1766015939.4167738,36
1766015939.416787,36
1766015939.4168,35
1766015939.416815,31
1766015939.416828,36
1766015939.4168398,34
1766015939.416853,37
1766015939.4168708,35
1766015939.416885,35
1766015939.416899,33
1766015939.416914,36
1766015939.4169269,39
1766015939.41694,35
1766015939.416953,39
1766015939.416966,36
1766015939.4169788,35
1766015939.416992,38
1766015939.417005,35
1766015939.4170182,36
1766015939.4170308,36
1766015939.417044,35
1766015939.417057,39
1766015939.4170702,43
1766015939.4170828,43
1766015939.417096,44
1766015939.417109,47
1766015939.4171221,50
1766015939.4171362,52
1766015939.4171479,54
1766015939.417162,56
1766015939.417175,56
1766015939.4171882,59
1766015939.4172008,61
1766015939.417214,61
1766015939.417228,59
1766015939.417241,62
1766015939.417254,60
1766015939.4172668,57
1766015939.41728,58
1766015939.417293,57
1766015939.4173062,60
1766015939.4173188,58
1766015939.417355,57
1766015939.417377,54
1766015939.417391,57
1766015939.417404,58
1766015939.417417,58
1766015939.41743,56
1766015939.417443,61
1766015939.4174569,56
1766015939.41747,57
1766015939.417483,56
1766015939.417496,55
1766015939.417509,55
1766015939.417522,56
1766015939.4175339,58
1766015939.417547,54
1766015939.41756,57
1766015939.4175732,53
1766015939.417587,55
1766015939.417599,58
1766015939.417612,54
1766015939.4176252,57
1766015939.4176378,55
1766015939.417651,52
1766015939.417664,54
1766015939.4176772,55
1766015939.417691,57
1766015939.4177039,55
1766015939.417716,54
1766015939.41773,53
1766015939.4177432,51
1766015939.4177558,51
1766015939.417769,49
1766015939.417782,50
1766015939.4178,52
1766015939.417813,48
1766015939.417826,49
1766015939.417839,51
1766015939.417852,49
1766015939.4178681,49
1766015939.417881,53
1766015939.417894,53
1766015939.417907,52
1766015939.41792,51
1766015939.417933,52
1766015939.417948,52
1766015939.417961,49
1766015939.417974,52
1766015939.417987,50
1766015939.418,51
1766015939.4180129,49
1766015939.418025,49
1766015939.418039,51
1766015939.4180522,50
1766015939.4180648,50
1766015939.418078,51
1766015939.418091,51
1766015939.4181042,51
1766015939.418117,49
1766015939.41813,48
1766015939.4181418,51
1766015939.418155,46
1766015939.418168,48
1766015939.4181812,49
1766015939.4181938,48
1766015939.418208,47
1766015939.4182441,47
1766015939.418259,45
1766015939.418272,48
1766015939.418286,46
1766015939.418299,47
1766015939.4183118,44
1766015939.418325,44
1766015939.418339,44
1766015939.4183521,45
1766015939.418366,44
1766015939.418379,46
1766015939.4183922,47
1766015939.418405,44
1766015939.418419,44
1766015939.418432,41
1766015939.418446,44
1766015939.418459,43
1766015939.418472,40
1766015939.418485,43
1766015939.418498,45
1766015939.4185112,44
1766015939.4185238,44
1766015939.418538,43
1766015939.418551,41
1766015939.418564,42
1766015939.418577,44
1766015939.41859,43
1766015939.418603,42
1766015939.418616,41
1766015939.41863,42
1766015939.418643,44
1766015939.418656,42
1766015939.418672,42
1766015939.418685,42
1766015939.418698,45
1766015939.4187121,45
1766015939.418725,46
1766015939.41874,45
1766015939.418753,46
1766015939.418766,46
1766015939.418779,46
1766015939.418792,45
1766015939.418805,45
1766015939.418818,45
1766015939.418831,45
1766015939.418844,41
1766015939.4188569,43
1766015939.418871,44
1766015939.418884,45
1766015939.418897,42
1766015939.41891,42
1766015939.418923,41
1766015939.418936,42
1766015939.4189491,44
1766015939.418962,44
1766015939.4189749,42
1766015939.418988,42
1766015939.419034,40
1766015939.41905,41
1766015939.419064,41
1766015939.4190772,43
1766015939.41909,44
1766015939.419104,45
1766015939.419117,46
1766015939.41913,42
1766015939.4191449,44
1766015939.419159,40
1766015939.419172,40
1766015939.4191842,43
1766015939.419198,41
1766015939.419211,42
1766015939.419224,41
1766015939.4192371,41
1766015939.4192488,41
1766015939.419263,40
1766015939.419276,40
1766015939.419289,38
1766015939.419302,42
1766015939.4193149,40
1766015939.419328,38
1766015939.419345,36
1766015939.419358,38
1766015939.419371,37
1766015939.419384,40
1766015939.4193978,40
1766015939.419411,38
1766015939.419424,37
1766015939.4194372,39
1766015939.41945,37
1766015939.419463,41
1766015939.419476,40
1766015939.419489,41
1766015939.419502,41
1766015939.419515,41
1766015939.419528,40
1766015939.419541,42
1766015939.419554,40
1766015939.41957,41
1766015939.419583,39
1766015939.419596,44
1766015939.419609,37
1766015939.419622,38
1766015939.419635,40
1766015939.419648,40
1766015939.419661,39
1766015939.4196742,38
1766015939.4196868,41
1766015939.4197,40
1766015939.419713,39
1766015939.419729,41
1766015939.4197419,42
1766015939.419755,39
1766015939.419768,42
1766015939.4197812,38
1766015939.4197938,39
1766015939.419807,44
1766015939.41982,42
1766015939.4198332,41
1766015939.4198458,41
1766015939.419859,40
1766015939.419872,40
1766015939.4198852,45
1766015939.419898,43
1766015939.419911,44
1766015939.4199538,42
1766015939.419968,39
1766015939.419981,41
1766015939.419994,39
1766015939.420007,42
1766015939.420023,41
1766015939.420037,38
1766015939.42005,39
1766015939.420063,36
1766015939.4200761,37
1766015939.420089,37
1766015939.420102,38
1766015939.420115,37
1766015939.420128,40
1766015939.420141,38
1766015939.420154,39
1766015939.420167,38
1766015939.42018,37
1766015939.420193,37
1766015939.420206,38
1766015939.420219,36
1766015939.4202318,36
1766015939.420245,37
1766015939.420257,35
1766015939.420268,36
1766015939.420279,36
1766015939.4202912,35
1766015939.4203022,34
1766015939.420314,36
1766015939.420325,38
1766015939.4203362,36
1766015939.420348,36
1766015939.420359,36
1766015939.4203699,38
1766015939.420382,36
1766015939.420393,38
1766015939.420405,35
1766015939.420416,38
1766015939.4204302,37
1766015939.420442,35
1766015939.420453,37
1766015939.420465,31
1766015939.420476,33
1766015939.420487,35
1766015939.4204988,35
1766015939.42051,35
1766015939.420521,36
1766015939.420533,36
1766015939.420544,33
1766015939.420556,34
1766015939.420567,31
1766015939.420578,32
1766015939.4205902,33
1766015939.4206011,34
1766015939.420612,32
1766015939.4206238,32
1766015939.420635,34
1766015939.420646,33
1766015939.4206579,29
1766015939.42067,33
1766015939.420681,33
1766015939.420692,33
1766015939.420703,32
1766015939.420715,30
1766015939.420726,32
1766015939.4207392,31
1766015939.420751,34
1766015939.420762,35
1766015939.420774,34
1766015939.420785,35
1766015939.420809,31
1766015939.420824,31
1766015939.4208362,31
1766015939.4208472,29
1766015939.4208581,30
1766015939.4208698,31
1766015939.4208808,30
1766015939.420892,30
1766015939.420904,31
1766015939.420915,29
1766015939.4209259,30
1766015939.420938,30
1766015939.420949,29
1766015939.42096,31
1766015939.420971,30
1766015939.420983,29
1766015939.420994,30
1766015939.421005,31
1766015939.421016,30
1766015939.4210281,30
1766015939.421039,31
1766015939.42105,30
1766015939.421062,31
1766015939.421073,30
1766015939.421084,26
1766015939.421095,29
1766015939.421107,30
1766015939.421118,30
1766015939.42113,31
1766015939.421141,31
1766015939.421153,30
1766015939.421164,30
1766015939.421175,30
1766015939.421189,28
1766015939.4211998,30
1766015939.4212108,29
1766015939.421223,28
1766015939.421234,30
1766015939.4212449,29
1766015939.4212558,30
1766015939.421267,31
1766015939.421279,27
1766015939.42129,27
1766015939.421301,33
1766015939.421313,30
1766015939.421324,31
1766015939.421335,27
1766015939.421346,30
1766015939.4213572,31
1766015939.421369,30
1766015939.42138,30
1766015939.421391,30
1766015939.421403,28
1766015939.421414,30
1766015939.4214249,28
1766015939.421437,29
1766015939.421448,27
1766015939.421459,31
1766015939.42147,30
1766015939.421482,30
1766015939.421493,28
1766015939.421504,27
1766015939.421516,28
1766015939.4215271,26
1766015939.421538,28
1766015939.421551,29
1766015939.4215622,27
1766015939.4215739,26
1766015939.4215848,30
1766015939.4215958,29
1766015939.421608,29
1766015939.421619,28
1766015939.42163,28
1766015939.4216409,27
1766015939.421653,31
1766015939.421664,27
1766015939.421675,25
1766015939.4216871,28
1766015939.421698,30
1766015939.421709,28
1766015939.42172,27
1766015939.421731,25
1766015939.4217432,26
1766015939.4217558,30
1766015939.421767,26
1766015939.421778,25
1766015939.42179,29
1766015939.4218009,28
1766015939.421812,27
1766015939.421823,27
1766015939.421835,28
1766015939.421846,31
1766015939.421857,27
1766015939.421868,30
1766015939.42188,24
1766015939.421891,28
1766015939.4219022,28
1766015939.4219148,26
1766015939.4219258,24
1766015939.421938,27
1766015939.421949,28
1766015939.4219599,23
1766015939.4219708,27
1766015939.421982,27
1766015939.421994,26
1766015939.422005,29
1766015939.422016,26
1766015939.422028,29
1766015939.422039,28
1766015939.42205,29
1766015939.4220622,25
1766015939.4220731,28
1766015939.422084,27
1766015939.4220958,27
1766015939.422107,28
1766015939.422119,27
1766015939.4221299,25
1766015939.4221408,26
1766015939.422152,24
1766015939.422164,27
1766015939.422175,22
1766015939.422186,28
1766015939.422198,23
1766015939.422209,26
1766015939.42222,25
1766015939.422231,25
1766015939.422243,23
1766015939.422254,25
1766015939.422265,26
1766015939.422276,22
1766015939.422292,22
1766015939.422304,25
1766015939.4223151,27
1766015939.422326,25
1766015939.422337,25
1766015939.422348,25
1766015939.4223602,24
1766015939.4223711,28
1766015939.422382,25
1766015939.422394,24
1766015939.422405,21
1766015939.422416,25
1766015939.422428,28
1766015939.4224389,24
1766015939.422451,24
1766015939.422462,22
1766015939.422473,21
1766015939.4224849,24
1766015939.422496,25
1766015939.422508,26
1766015939.422519,20
1766015939.42253,26
1766015939.4225411,23
1766015939.422552,25
1766015939.422564,24
1766015939.422575,25
1766015939.4225862,24
1766015939.422598,26
1766015939.4226089,25
1766015939.422705,25
1766015939.422718,26
1766015939.42273,24
1766015939.422744,23
1766015939.4227562,26
1766015939.4227672,24
1766015939.4227788,25
1766015939.4227898,22
1766015939.4228008,24
1766015939.422813,25
1766015939.4228349,25
1766015939.422847,22
1766015939.422859,22
1766015939.422872,25
1766015939.422883,23
1766015939.422894,25
1766015939.4229052,23
1766015939.4229171,27
1766015939.4229279,21
1766015939.4229388,24
1766015939.422951,25
1766015939.422962,25
1766015939.422973,23
1766015939.422984,26
1766015939.422998,22
1766015939.4230158,27
1766015939.423027,24
1766015939.423038,23
1766015939.42305,24
1766015939.423061,25
1766015939.423073,24
1766015939.423084,25
1766015939.423095,25
1766015939.4231071,25
1766015939.423118,21
1766015939.42313,21
1766015939.423142,25
1766015939.423153,23
1766015939.4231648,24
1766015939.423176,26
1766015939.423188,23
1766015939.423199,23
1766015939.42321,27
1766015939.4232209,20
1766015939.423233,25
1766015939.423244,23
1766015939.423255,24
1766015939.4232671,27
1766015939.423278,26
1766015939.423289,25
1766015939.4233012,24
1766015939.423312,23
1766015939.423323,23
1766015939.423334,23
1766015939.4233458,24
1766015939.423357,26
1766015939.423368,24
1766015939.42338,24
1766015939.4233909,26
1766015939.423402,22
1766015939.423413,23
1766015939.423425,24
1766015939.423436,26
1766015939.4234471,23
1766015939.423459,25
1766015939.42347,24
1766015939.423481,28
1766015939.4234922,26
1766015939.423506,23
1766015939.423517,23
1766015939.423529,25
1766015939.4235399,26
1766015939.423551,26
1766015939.423562,24
1766015939.423573,25
1766015939.423585,24
1766015939.4235961,22
1766015939.423607,24
1766015939.423618,22
1766015939.423629,25
1766015939.4236412,27
1766015939.4236522,23
1766015939.4236631,25
1766015939.423674,24
1766015939.423685,24
1766015939.423697,25
1766015939.423708,24
1766015939.423719,24
1766015939.42373,25
1766015939.4237409,27
1766015939.4237518,28
1766015939.423764,26
1766015939.423775,24
1766015939.423786,26
1766015939.423797,26
1766015939.423808,28
1766015939.42382,23
1766015939.423831,27
1766015939.423842,24
1766015939.4238532,25
1766015939.423867,26
1766015939.423879,28
1766015939.4238899,25
1766015939.4239008,26
1766015939.423912,26
1766015939.423923,24
1766015939.423934,26
1766015939.423946,23
1766015939.423957,24
1766015939.423968,27
1766015939.423979,24
1766015939.42399,27
1766015939.424002,26
1766015939.4240131,26
1766015939.424024,29
1766015939.424035,26
1766015939.424046,26
1766015939.4240582,29
1766015939.4240692,26
1766015939.42408,28
1766015939.424096,26
1766015939.424107,25
1766015939.424118,27
1766015939.424129,28
1766015939.4241412,26
1766015939.4241521,28
1766015939.424161,29
1766015939.424172,26
1766015939.424182,28
1766015939.424192,26
1766015939.424202,27
1766015939.424211,27
1766015939.424223,26
1766015939.424234,27
1766015939.424244,25
1766015939.424255,27
1766015939.424266,29
1766015939.4242759,26
1766015939.424286,27
1766015939.424296,29
1766015939.4243069,27
1766015939.424317,25
1766015939.424327,26
1766015939.424336,29
1766015939.4243462,27
1766015939.424356,30
1766015939.4243672,27
1766015939.4243772,25
1766015939.424387,27
1766015939.424397,26
1766015939.424407,26
1766015939.424417,31
1766015939.424427,29
1766015939.424437,27
1766015939.424447,27
1766015939.424457,27
1766015939.4244668,25
1766015939.4244769,28
1766015939.4244869,27
1766015939.424497,29
1766015939.424507,27
1766015939.4245172,28
1766015939.4245272,31
1766015939.4245372,30
1766015939.424547,29
1766015939.4245582,28
1766015939.4245682,28
1766015939.424578,29
1766015939.424588,30
1766015939.424598,28
1766015939.424608,30
1766015939.424618,28
1766015939.424628,31
1766015939.424638,29
1766015939.424648,30
1766015939.4246578,28
1766015939.4246678,30
1766015939.4246778,30
1766015939.424688,29
1766015939.424698,29
1766015939.4247081,26
1766015939.4247181,27
1766015939.4247282,29
1766015939.424738,28
1766015939.424748,28
1766015939.424758,29
1766015939.424768,29
1766015939.424778,26
1766015939.424788,26
1766015939.424798,30
1766015939.424808,28
1766015939.424818,28
1766015939.424829,28
1766015939.424839,28
1766015939.4248488,26
1766015939.4248588,26
1766015939.424868,29
1766015939.42488,30
1766015939.42489,30
1766015939.4249,26
1766015939.42491,28
1766015939.42492,29
1766015939.42493,32
1766015939.424939,28
1766015939.4249501,29
1766015939.424959,28
1766015939.424969,29
1766015939.42498,29
1766015939.42499,28
1766015939.424999,28
1766015939.42501,28
1766015939.42502,31
1766015939.42503,33
1766015939.4250398,29
1766015939.42505,29
1766015939.42506,29
1766015939.425071,31
1766015939.425081,29
1766015939.425091,29
1766015939.425101,30
1766015939.425111,31
1766015939.425122,28
1766015939.425132,30
1766015939.425142,31
1766015939.425152,29
1766015939.425162,29
1766015939.4251719,29
1766015939.4251819,26
1766015939.4251919,29
1766015939.425204,32
1766015939.425214,28
1766015939.4252238,30
1766015939.4252338,29
1766015939.4252439,30
1766015939.4252539,30
1766015939.4252648,30
1766015939.4252748,27
1766015939.425285,26
1766015939.425295,30
1766015939.4253051,27
1766015939.4253151,31
1766015939.4253252,32
1766015939.425335,29
1766015939.425345,30
1766015939.425355,29
1766015939.425365,30
1766015939.425375,28
1766015939.425385,30
1766015939.425395,29
1766015939.425405,29
1766015939.4254148,27
1766015939.4254248,29
1766015939.4254348,30
1766015939.425445,29
1766015939.425455,29
1766015939.425465,29
1766015939.4254751,30
1766015939.4254851,27
1766015939.4254951,26
1766015939.425505,30
1766015939.425515,29
1766015939.425525,32
1766015939.425537,28
1766015939.4255471,31
1766015939.425558,27
1766015939.425568,32
1766015939.4255779,30
1766015939.425589,29
1766015939.4255989,27
1766015939.4256089,28
1766015939.425619,31
1766015939.425629,29
1766015939.425639,32
1766015939.425649,30
1766015939.425659,30
1766015939.4256692,28
1766015939.4256792,29
1766015939.425689,31
1766015939.425699,29
1766015939.425709,29
1766015939.425719,30
1766015939.42573,27
1766015939.42574,31
1766015939.42575,27
1766015939.42576,32
1766015939.42577,29
1766015939.42578,29
1766015939.4257898,31
1766015939.4257998,30
1766015939.4258099,27
1766015939.4258199,29
1766015939.42583,27
1766015939.4258401,28
1766015939.4258502,29
1766015939.4258602,29
1766015939.4258702,29
1766015939.42588,27
1766015939.42589,27
1766015939.4259,31
1766015939.42591,30
1766015939.42592,30
1766015939.42593,29
1766015939.42594,29
1766015939.42595,29
1766015939.4259598,27
1766015939.4259698,29
1766015939.4259799,28
1766015939.4259899,28
1766015939.4259999,28
1766015939.4260108,29
1766015939.426023,29
1766015939.4260328,29
1766015939.4260428,29
1766015939.426054,31
1766015939.4260638,32
1766015939.4261389,30
1766015939.426155,30
1766015939.4261692,30
1766015939.4261818,28
1766015939.426195,29
1766015939.426208,30
1766015939.4262211,28
1766015939.426234,29
1766015939.426246,28
1766015939.426259,28
1766015939.426272,30
1766015939.426284,31
1766015939.4262972,31
1766015939.4263098,29
1766015939.426322,28
1766015939.4263349,28
1766015939.426348,28
1766015939.426361,28
1766015939.426373,26
1766015939.4263859,27
1766015939.426399,29
1766015939.426412,25
1766015939.426424,28
1766015939.4264371,25
1766015939.4264488,26
1766015939.426462,29
1766015939.426475,25
1766015939.426487,28
1766015939.4265,29
1766015939.426513,29
1766015939.426526,27
1766015939.426539,29
1766015939.426551,29
1766015939.426564,26
1766015939.4265769,27
1766015939.42659,26
1766015939.426602,26
1766015939.426615,27
1766015939.426628,27
1766015939.426641,28
1766015939.426653,26
1766015939.426666,27
1766015939.426678,30
1766015939.426691,29
1766015939.426704,28
1766015939.4267159,28
1766015939.426729,27
1766015939.426741,28
1766015939.426754,27
1766015939.426767,27
1766015939.4267788,25
1766015939.426792,25
1766015939.426805,28
1766015939.4268181,26
1766015939.426831,24
1766015939.426843,27
1766015939.426856,26
1766015939.426868,26
1766015939.426881,27
1766015939.426893,26
1766015939.426906,24
1766015939.426919,28
1766015939.4269319,24
1766015939.426945,27
1766015939.4269571,28
1766015939.42697,28
1766015939.4269829,27
1766015939.426995,26
1766015939.427008,26
1766015939.427021,26
1766015939.4270332,27
1766015939.4270458,24
1766015939.42706,28
1766015939.427072,26
1766015939.4270852,24
1766015939.427098,24
1766015939.42711,26
1766015939.4271228,25
1766015939.427136,25
1766015939.427148,25
1766015939.427161,28
1766015939.4271739,26
1766015939.427186,26
1766015939.427199,27
1766015939.427211,25
1766015939.4272242,24
1766015939.427236,27
1766015939.427249,24
1766015939.427262,25
1766015939.427275,26
1766015939.427288,25
1766015939.4273002,25
1766015939.4273129,26
1766015939.427328,25
1766015939.427341,23
1766015939.4273531,24
1766015939.4273658,25
1766015939.427379,25
1766015939.427391,26
1766015939.427404,23
1766015939.427416,22
1766015939.4274292,25
1766015939.4274418,26
1766015939.427454,26
1766015939.427467,25
1766015939.427479,28
1766015939.4274921,22
1766015939.4275048,25
1766015939.427517,27
1766015939.42753,23
1766015939.427542,24
1766015939.427555,25
1766015939.427567,26
1766015939.4275799,25
1766015939.427592,27
1766015939.427605,28
1766015939.427617,24
1766015939.4276302,26
1766015939.4276428,24
1766015939.427655,24
1766015939.4276679,24
1766015939.427681,21
1766015939.4276931,25
1766015939.427706,26
1766015939.4277189,23
1766015939.427732,23
1766015939.427745,25
1766015939.427758,25
1766015939.4277701,25
1766015939.427783,25
1766015939.427795,26
1766015939.427808,22
1766015939.42782,22
1766015939.427833,23
1766015939.427845,25
1766015939.4278579,24
1766015939.427871,23
1766015939.427883,24
1766015939.427896,24
1766015939.4279091,23
1766015939.4279208,23
1766015939.427934,21
1766015939.427947,24
1766015939.427959,25
1766015939.427972,24
1766015939.427985,22
1766015939.4279969,24
1766015939.42801,22
1766015939.428022,23
1766015939.428035,26
1766015939.428048,24
1766015939.428061,25
1766015939.428073,24
1766015939.428087,26
1766015939.4281,25
1766015939.428113,25
1766015939.4281259,24
1766015939.428139,20
1766015939.4281511,21
1766015939.428164,24
1766015939.4281769,20
1766015939.42819,26
1766015939.428203,23
1766015939.428216,25
1766015939.4282281,25
1766015939.428242,24
1766015939.428254,24
1766015939.428267,21
1766015939.42828,24
1766015939.42836,23
1766015939.428373,25
1766015939.428386,21
1766015939.428519,24
1766015939.4285371,25
1766015939.4285922,26
1766015939.4286458,27
1766015939.42866,24
1766015939.4286752,25
1766015939.4287639,21
1766015939.428778,23
1766015939.42879,23
1766015939.428803,27
1766015939.4288158,22
1766015939.428829,25
1766015939.428842,24
1766015939.428855,24
1766015939.428867,25
1766015939.428881,23
1766015939.4288929,21
1766015939.428906,28
1766015939.428919,26
1766015939.4289322,25
1766015939.4289448,25
1766015939.429104,25
1766015939.4301739,26
1766015939.431107,23
1766015939.432127,24
1766015939.433131,22
1766015939.434141,23
1766015939.435153,21
1766015939.43614,22
1766015939.437162,23
1766015939.43816,27
1766015939.439127,23
1766015939.440143,23
1766015939.4411578,22
1766015939.4422112,24
1766015939.443171,24
1766015939.444175,24
1766015939.445201,25
1766015939.446186,22
1766015939.4471722,23
1766015939.448152,22
1766015939.4491909,25
1766015939.450131,24
1766015939.45117,23
1766015939.4521642,23
1766015939.453184,22
1766015939.454208,21
1766015939.455177,20
1766015939.456149,21
1766015939.457197,25
1766015939.45815,18
1766015939.459192,24
1766015939.46016,23
1766015939.461171,25
1766015939.462202,26
1766015939.4632041,22
1766015939.4641762,23
1766015939.46519,21
1766015939.466227,25
1766015939.467221,24
1766015939.468183,23
1766015939.469192,24
1766015939.470214,23
1766015939.471253,23
1766015939.472215,21
1766015939.473197,22
1766015939.474208,23
1766015939.475192,25
1766015939.476234,24
1766015939.4772348,20
1766015939.478234,25
1766015939.479295,24
1766015939.480246,22
1766015939.481225,25
1766015939.482234,22
1766015939.4832509,20
1766015939.4842649,22
1766015939.485279,26
1766015939.486279,23
1766015939.487278,22
1766015939.488289,23
1766015939.489262,24
1766015939.490262,23
1766015939.4912589,26
1766015939.49228,24
1766015939.493282,24
1766015939.494299,26
1766015939.495309,29
1766015939.496324,27
1766015939.497278,27
1766015939.498294,28
1766015939.499309,29
1766015939.500302,25
1766015939.5013041,26
1766015939.5023098,26
1766015939.503329,27
1766015939.504344,24
1766015939.505335,25
1766015939.506316,26
1766015939.507349,26
1766015939.508366,25
1766015939.5093381,25
1766015939.51035,25
1766015939.511369,25
1766015939.512359,27
1766015939.513359,26
1766015939.5143209,28
1766015939.515336,27
1766015939.516356,25
1766015939.5173519,27
1766015939.5183659,26
1766015939.519368,25
1766015939.520391,26
1766015939.5214012,25
1766015939.5223439,28
1766015939.523395,26
1766015939.524381,27
1766015939.5253801,27
1766015939.5263932,25
1766015939.5273678,29
1766015939.528395,33
1766015939.5294158,34
1766015939.530383,39
1766015939.531383,42
1766015939.532406,38
1766015939.533416,40
1766015939.5343978,47
1766015939.535398,39
1766015939.536444,42
1766015939.53743,42
1766015939.5384178,44
1766015939.5394151,41
1766015939.540417,45
1766015939.541427,42
1766015939.54243,46
1766015939.543447,43
1766015939.544443,42
1766015939.545463,42
1766015939.5464609,41
1766015939.5474591,37
1766015939.548445,40
1766015939.549479,43
1766015939.5504699,43
1766015939.551469,50
1766015939.5524611,54
1766015939.553468,58
1766015939.55445,64
1766015939.555456,65
1766015939.55648,66
1766015939.5574741,65
1766015939.558474,62
1766015939.5594869,64
1766015939.560482,63
1766015939.561502,61
1766015939.562504,65
1766015939.563539,66
1766015939.564503,63
1766015939.565522,62
1766015939.566547,66
1766015939.567532,65
1766015939.568518,65
1766015939.569495,66
1766015939.570529,67
1766015939.5715709,70
1766015939.572513,75
1766015939.573513,83
1766015939.574513,85
1766015939.575495,88
1766015939.57649,86
1766015939.577516,92
1766015939.5785348,91
1766015939.579558,95
1766015939.580529,95
1766015939.581523,94
1766015939.582526,97
1766015939.583541,98
1766015939.5845299,95
1766015939.585529,92
1766015939.58655,93
1766015939.5875452,89
1766015939.588537,89
1766015939.5895271,93
1766015939.590572,93
1766015939.591539,91
1766015939.592565,89
1766015939.593569,90
1766015939.594582,90
1766015939.595571,92
1766015939.596679,89
1766015939.5976052,94
1766015939.59859,96
1766015939.599562,98
1766015939.600597,98
1766015939.601613,96
1766015939.602677,100
1766015939.603598,99
1766015939.604702,97
1766015939.605663,98
1766015939.6066508,97
1766015939.607609,95
1766015939.6086369,94
1766015939.609605,94
1766015939.6106062,95
1766015939.611649,93
1766015939.612624,93
1766015939.613633,91
1766015939.614623,91
1766015939.615626,90
1766015939.6166148,85
1766015939.6176069,92
1766015939.61863,90
1766015939.619641,90
1766015939.6206348,89
1766015939.6216562,85
1766015939.622634,84
1766015939.623651,83
1766015939.624633,85
1766015939.62563,83
1766015939.626632,85
1766015939.627671,83
1766015939.62866,81
1766015939.6296792,80
1766015939.630643,81
1766015939.63169,79
1766015939.632648,80
1766015939.6336482,83
1766015939.634655,78
1766015939.635668,81
1766015939.636668,81
1766015939.6376681,79
1766015939.63867,80
1766015939.639692,83
1766015939.640692,84
1766015939.6416728,85
1766015939.6426759,89
1766015939.6437042,89
1766015939.64472,88
1766015939.6457531,88
1766015939.6468081,92
1766015939.647774,92
1766015939.648746,90
1766015939.649769,91
1766015939.650748,91
1766015939.651732,92
1766015939.6527581,94
1766015939.653731,96
1766015939.65486,100
1766015939.655735,93
1766015939.656848,101
1766015939.657752,96
1766015939.658931,100
1766015939.659731,97
1766015939.6608388,101
1766015939.6618361,105
1766015939.662848,106
1766015939.6639218,108
1766015939.664941,104
1766015939.6658292,105
1766015939.6669161,105
1766015939.6679082,105
1766015939.668905,106
1766015939.669922,106
1766015939.6709619,112
1766015939.671964,116
1766015939.672954,119
1766015939.6739688,126
1766015939.674955,126
1766015939.675974,126
1766015939.676955,133
1766015939.6779578,133
1766015939.6789498,135
1766015939.679969,132
1766015939.68098,137
1766015939.681965,140
1766015939.6829572,138
1766015939.6839502,139
1766015939.684959,133
1766015939.685954,135
1766015939.686951,134
1766015939.687962,134
1766015939.6889532,135
1766015939.6899588,131
1766015939.690968,129
1766015939.691958,133
1766015939.692966,129
1766015939.693961,133
1766015939.694963,133
1766015939.695977,134
1766015939.6970088,131
1766015939.697962,133
1766015939.698978,141
1766015939.699971,147
1766015939.70098,154
1766015939.701972,154
1766015939.702985,156
1766015939.703979,166
1766015939.7049952,169
1766015939.705997,171
1766015939.7070022,171
1766015939.708002,170
1766015939.708999,168
1766015939.709996,169
1766015939.7110028,167
1766015939.7120168,162
1766015939.713034,163
1766015939.7140229,159
1766015939.715019,159
1766015939.7160199,158
1766015939.7170281,154
1766015939.71803,152
1766015939.719025,152
1766015939.72003,149
1766015939.721041,146
1766015939.722025,144
1766015939.723053,145
1766015939.724051,141
1766015939.7250419,141
1766015939.726047,138
1766015939.727055,138
1766015939.728055,135
1766015939.729058,135
1766015939.730064,136
1766015939.7310731,136
1766015939.732079,129
1766015939.733061,128
1766015939.73408,129
1766015939.7350578,128
1766015939.736075,127
1766015939.737087,125
1766015939.7380962,125
1766015939.7391,125
1766015939.7401118,126
1766015939.741087,126
1766015939.74211,123
1766015939.7430909,127
1766015939.744098,121
1766015939.7451031,118
1766015939.746125,122
1766015939.747115,120
1766015939.7481039,117
1766015939.749109,118
1766015939.7501178,118
1766015939.751122,115
1766015939.752115,111
1766015939.753123,111
1766015939.7541308,108
1766015939.755144,108
1766015939.7562082,107
1766015939.7571359,109
1766015939.7581718,108
1766015939.7591648,105
1766015939.760133,105
1766015939.761135,107
1766015939.762151,102
1766015939.7631721,104
1766015939.7641659,103
1766015939.765182,101
1766015939.766165,100
1766015939.767078,99
1766015939.7681658,101
1766015939.7690701,95
1766015939.7700858,98
1766015939.771102,97
1766015939.7721002,96
1766015939.773128,99
1766015939.774079,99
1766015939.775105,97
1766015939.776103,97
1766015939.7770839,94
1766015939.7780852,94
1766015939.77908,92
1766015939.7801049,92
1766015939.781106,90
1766015939.782125,93
1766015939.7831051,90
1766015939.784113,87
1766015939.785116,88
1766015939.786112,87
1766015939.787114,85
1766015939.7881448,83
1766015939.789141,81
1766015939.79012,83
1766015939.791122,78
1766015939.792151,82
1766015939.793138,82
1766015939.794143,81
1766015939.795135,85
1766015939.796138,84
1766015939.797167,85
1766015939.798166,84
1766015939.799177,84
1766015939.8001668,84
1766015939.801166,81
1766015939.802167,85
1766015939.803185,81
1766015939.804163,80
1766015939.805165,80
1766015939.80618,78
1766015939.807188,77
1766015939.808191,77
1766015939.809197,77
1766015939.8101828,78
1766015939.811169,76
1766015939.812187,75
1766015939.813209,77
1766015939.814195,76
1766015939.815209,74
1766015939.8162072,80
1766015939.8171918,75
1766015939.818204,76
1766015939.819202,70
1766015939.820208,74
1766015939.821248,75
1766015939.822221,71
1766015939.823241,74
1766015939.8242502,73
1766015939.8252501,71
1766015939.826247,71
1766015939.8272462,72
1766015939.828277,70
1766015939.829252,69
1766015939.830245,67
1766015939.831247,69
1766015939.832253,70
1766015939.833262,69
1766015939.8342452,70
1766015939.8352268,65
1766015939.836232,68
1766015939.837246,68
1766015939.83825,63
1766015939.839232,65
1766015939.840251,66
1766015939.841248,63
1766015939.842253,67
1766015939.8432388,67
1766015939.8442721,66
1766015939.845279,67
1766015939.846276,66
1766015939.847286,63
1766015939.8482728,66
1766015939.849277,66
1766015939.8502898,62
1766015939.851267,66
1766015939.8522701,64
1766015939.8532639,64
1766015939.854326,65
1766015939.85531,62
1766015939.856311,63
1766015939.857325,64
1766015939.858322,62
1766015939.859321,62
1766015939.860336,64
1766015939.861334,67
1766015939.862328,66
1766015939.863328,66
1766015939.8643498,66
1766015939.865356,63
1766015939.866356,66
1766015939.8673291,65
1766015939.8683531,65
1766015939.869357,65
1766015939.8703518,66
1766015939.871348,70
1766015939.872361,64
1766015939.873354,66
1766015939.874363,66
1766015939.875365,65
1766015939.8763678,66
1766015939.87737,64
1766015939.878356,63
1766015939.8793862,65
1766015939.88033,65
1766015939.881381,63
1766015939.8823948,62
1766015939.883399,65
1766015939.8843951,64
1766015939.8853881,64
1766015939.8864,65
1766015939.8874109,65
1766015939.888396,69
1766015939.889405,65
1766015939.89042,69
1766015939.891416,66
1766015939.8924139,67
1766015939.893416,67
1766015939.894419,67
1766015939.895421,70
1766015939.896424,65
1766015939.897444,64
1766015939.898416,64
1766015939.899423,63
1766015939.9004228,63
1766015939.901439,64
1766015939.902412,63
1766015939.903449,61
1766015939.9044511,63
1766015939.905463,63
1766015939.906464,63
1766015939.907466,63
1766015939.908461,61
1766015939.909454,57
1766015939.91045,61
1766015939.9114702,61
1766015939.912478,59
1766015939.913461,58
1766015939.9144819,58
1766015939.915477,61
1766015939.9164858,57
1766015939.917483,57
1766015939.918494,56
1766015939.9194822,58
1766015939.920489,54
1766015939.9215,56
1766015939.922511,55
1766015939.9235342,58
1766015939.924523,54
1766015939.9255161,58
1766015939.926514,56
1766015939.9275131,54
1766015939.92851,51
1766015939.9295418,50
1766015939.930527,56
1766015939.931566,51
1766015939.9325309,50
1766015939.933532,50
1766015939.934546,52
1766015939.935531,49
1766015939.936529,48
1766015939.937521,52
1766015939.938545,53
1766015939.939569,50
1766015939.940567,51
1766015939.941561,52
1766015939.9425468,50
1766015939.94356,48
1766015939.9445498,51
1766015939.9455628,52
1766015939.94658,51
1766015939.947565,50
1766015939.948574,47
1766015939.94958,51
1766015939.950591,48
1766015939.951587,44
1766015939.952597,48
1766015939.953595,49
1766015939.954595,48
1766015939.955592,45
1766015939.9566028,45
1766015939.9576042,45
1766015939.9586198,44
1766015939.959624,43
1766015939.960614,43
1766015939.9616342,47
1766015939.962605,46
1766015939.963649,48
1766015939.964656,45
1766015939.965625,47
1766015939.966624,48
1766015939.967635,50
1766015939.968637,53
1766015939.969642,55
1766015939.97064,57
1766015939.97167,56
1766015939.972647,54
1766015939.973693,57
1766015939.974663,56
1766015939.975659,59
1766015939.976668,59
1766015939.977661,62
1766015939.978663,63
1766015939.979687,64
1766015939.980663,67
1766015939.981677,66
1766015939.9826849,67
1766015939.983686,66
1766015939.98468,65
1766015939.98569,66
1766015939.986698,68
1766015939.9876869,66
1766015939.988699,63
1766015939.989704,64
1766015939.99069,64
1766015939.9917178,64
1766015939.992696,62
1766015939.9937081,64
1766015939.994705,62
1766015939.9957068,62
1766015939.996852,62
1766015939.9978108,62
1766015939.9987369,62
1766015939.9997172,59
1766015940.000708,60
1766015940.001706,57
1766015940.0028448,57
1766015940.0037918,59
1766015940.004798,58
1766015940.005763,57
1766015940.006729,58
1766015940.007742,56
1766015940.008712,56
1766015940.0097091,55
1766015940.010709,55
1766015940.011731,56
1766015940.012718,54
1766015940.013726,53
1766015940.014742,55
1766015940.015767,55
1766015940.016758,52
1766015940.017765,51
1766015940.0187662,53
1766015940.0197718,53
1766015940.0207639,49
1766015940.021775,49
1766015940.022768,52
1766015940.023772,48
1766015940.024776,51
1766015940.0257778,50
1766015940.026786,47
1766015940.027785,52
1766015940.028831,48
1766015940.0297868,46
1766015940.030807,49
1766015940.03179,49
1766015940.0328052,49
1766015940.033795,52
1766015940.034794,47
1766015940.035798,47
1766015940.0368,50
1766015940.037801,48
1766015940.038809,47
1766015940.039797,49
1766015940.040801,48
1766015940.0418088,45
1766015940.042809,49
1766015940.0438201,49
1766015940.044817,51
1766015940.0458188,48
1766015940.046829,49
1766015940.047828,46
1766015940.048921,49
1766015940.0499148,47
1766015940.050835,50
1766015940.051828,47
1766015940.05283,48
1766015940.053918,49
1766015940.054896,49
1766015940.055916,49
1766015940.0569038,47
1766015940.057914,50
1766015940.0589151,47
1766015940.059913,46
1766015940.0609112,49
1766015940.061924,48
1766015940.062915,49
1766015940.0639098,45
1766015940.064959,52
1766015940.065941,47
1766015940.066903,47
1766015940.067898,50
1766015940.0689101,49
1766015940.069918,46
1766015940.070913,49
1766015940.071915,49
1766015940.072916,47
1766015940.073916,50
1766015940.074922,49
1766015940.0759182,46
1766015940.076915,46
1766015940.077915,49
1766015940.078915,47
1766015940.07992,44
1766015940.080904,48
1766015940.0819368,48
1766015940.082915,49
1766015940.083935,47
1766015940.0849652,48
1766015940.085938,47
1766015940.086905,44
1766015940.087928,48
1766015940.088918,46
1766015940.0899148,45
1766015940.0909288,45
1766015940.091926,48
1766015940.092927,43
1766015940.09392,45
1766015940.09493,40
1766015940.095941,42
1766015940.096948,42
1766015940.097978,45
1766015940.098955,43
1766015940.099939,41
1766015940.100956,42
1766015940.1019661,44
1766015940.102956,40
1766015940.103957,43
1766015940.1049652,42
1766015940.105967,44
1766015940.1069682,48
1766015940.107969,49
1766015940.109003,46
1766015940.109982,49
1766015940.1109781,51
1766015940.111988,51
1766015940.113031,52
1766015940.114016,48
1766015940.1150038,51
1766015940.116004,52
1766015940.1170108,51
1766015940.118012,55
1766015940.11901,55
1766015940.120048,54
1766015940.121025,55
1766015940.122005,55
1766015940.123009,57
1766015940.1240451,55
1766015940.125054,51
1766015940.1260319,56
1766015940.1270468,55
1766015940.128046,54
1766015940.129045,53
1766015940.130042,52
1766015940.131042,51
1766015940.132052,51
1766015940.133039,52
1766015940.134052,52
1766015940.135065,54
1766015940.136087,54
1766015940.1370618,53
1766015940.138059,51
1766015940.139071,53
1766015940.140069,51
1766015940.14106,53
1766015940.142106,52
1766015940.14308,50
1766015940.14408,47
1766015940.145105,48
1766015940.1461031,48
1766015940.147115,47
1766015940.148145,46
1766015940.1491342,51
1766015940.150121,49
1766015940.151173,48
1766015940.152107,48
1766015940.153138,46
1766015940.1541739,46
1766015940.155123,48
1766015940.156131,48
1766015940.157135,47
1766015940.15819,45
1766015940.159158,47
1766015940.16013,44
1766015940.16116,43
1766015940.1621509,42
1766015940.163157,41
1766015940.1641548,44
1766015940.165161,42
1766015940.1661692,43
1766015940.1671622,42
1766015940.16816,42
1766015940.1691918,41
1766015940.170151,44
1766015940.171165,40
1766015940.1721668,40
1766015940.173172,42
1766015940.17418,42
1766015940.175192,41
1766015940.176234,42
1766015940.177205,42
1766015940.178206,40
1766015940.179179,40
1766015940.1801941,41
1766015940.1811898,40
1766015940.1822028,42
1766015940.183199,42
1766015940.184208,41
1766015940.185219,42
1766015940.1862059,40
1766015940.187231,44
1766015940.1882298,44
1766015940.1892219,43
1766015940.1902158,43
1766015940.196098,40
1766015940.196112,44
1766015940.196123,43
1766015940.1961331,44
1766015940.1961432,41
1766015940.201729,45
1766015940.2017431,44
1766015940.2017531,45
1766015940.2017632,46
1766015940.2017741,44
1766015940.2017841,47
1766015940.202256,47
1766015940.206387,50
1766015940.206401,48
1766015940.206414,47
1766015940.2064252,48
1766015940.21474,48
1766015940.2147489,49
1766015940.214754,45
1766015940.2147589,47
1766015940.214764,46
1766015940.214769,45
1766015940.2147741,47
1766015940.214779,49
1766015940.2153401,48
1766015940.216307,50
1766015940.217299,48
1766015940.218327,49
1766015940.2198982,53
1766015940.2203698,53
1766015940.22134,52
1766015940.222325,50
1766015940.22333,52
1766015940.2243478,50
1766015940.225318,50
1766015940.226305,49
1766015940.22732,48
1766015940.22833,49
1766015940.229353,49
1766015940.23035,49
1766015940.2313468,47
1766015940.2323258,44
1766015940.2333739,48
1766015940.2343302,50
1766015940.2353349,48
1766015940.2363489,46
1766015940.237369,47
1766015940.238372,48
1766015940.239369,45
1766015940.240387,44
1766015940.241366,43
1766015940.242348,43
1766015940.243389,43
1766015940.244401,41
1766015940.245496,44
1766015940.246444,44
1766015940.2474308,44
1766015940.24842,46
1766015940.249426,47
1766015940.250462,44
1766015940.251426,43
1766015940.252407,48
1766015940.253397,47
1766015940.254408,45
1766015940.25547,46
1766015940.2564201,43
1766015940.257411,44
1766015940.258425,44
1766015940.259418,46
1766015940.260414,45
1766015940.261407,44
1766015940.262419,44
1766015940.263424,45
1766015940.264443,44
1766015940.265414,43
1766015940.2664268,42
1766015940.267435,46
1766015940.268419,45
1766015940.269429,43
1766015940.270417,42
1766015940.271446,46
1766015940.272437,44
1766015940.2734358,42
1766015940.274461,42
1766015940.275465,45
1766015940.276459,47
1766015940.277466,42
1766015940.278474,44
1766015940.2795122,44
1766015940.280523,46
1766015940.281483,48
1766015940.282492,47
1766015940.283475,47
1766015940.284487,46
1766015940.2854888,47
1766015940.286494,45
1766015940.28747,47
1766015940.288486,44
1766015940.289516,42
1766015940.290488,45
1766015940.291473,43
1766015940.2924979,46
1766015940.2934961,44
1766015940.294486,47
1766015940.2954812,46
1766015940.296499,43
1766015940.297502,41
1766015940.2985,46
1766015940.299503,42
1766015940.3005419,43
1766015940.3015301,43
1766015940.3025339,42
1766015940.303515,42
1766015940.304513,40
1766015940.30553,43
1766015940.306506,42
1766015940.3075242,39
1766015940.308535,42
1766015940.3095539,39
1766015940.31053,39
1766015940.311559,39
1766015940.3125398,40
1766015940.3135412,41
1766015940.3145669,40
1766015940.315553,39
1766015940.31658,39
1766015940.3176372,40
1766015940.318584,41
1766015940.3196,39
1766015940.320571,38
1766015940.321601,41
1766015940.32262,39
1766015940.3236082,40
1766015940.324595,40
1766015940.325598,40
1766015940.326611,38
1766015940.3276129,38
1766015940.328618,40
1766015940.3296168,37
1766015940.3306298,39
1766015940.3316312,40
1766015940.3326101,38
1766015940.333642,40
1766015940.33465,37
1766015940.3356318,41
1766015940.3366258,40
1766015940.337634,40
1766015940.338646,36
1766015940.339651,36
1766015940.340638,40
1766015940.341623,38
1766015940.342627,39
1766015940.343652,36
1766015940.344656,40
1766015940.34566,37
1766015940.346657,36
1766015940.3476741,37
1766015940.3486688,40
1766015940.349675,37
1766015940.3506718,38
1766015940.351679,39
1766015940.3526862,36
1766015940.353748,39
1766015940.354731,39
1766015940.3557172,36
1766015940.356704,36
1766015940.35769,37
1766015940.3586829,36
1766015940.359711,36
1766015940.360693,37
1766015940.361716,34
1766015940.362716,38
1766015940.363702,35
1766015940.364702,35
1766015940.365721,37
1766015940.366722,38
1766015940.367722,34
1766015940.368712,38
1766015940.3697228,36
1766015940.370722,35
1766015940.371708,38
1766015940.372722,36
1766015940.373733,38
1766015940.374762,37
1766015940.3757498,38
1766015940.3767521,37
1766015940.3777559,40
1766015940.378758,36
1766015940.379764,38
1766015940.380773,37
1766015940.381772,38
1766015940.382741,38
1766015940.383764,39
1766015940.384765,39
1766015940.3857799,42
1766015940.386782,43
1766015940.387778,39
1766015940.38877,42
1766015940.389771,45
1766015940.390773,45
1766015940.391792,46
1766015940.3927948,42
1766015940.3937979,42
1766015940.3948119,45
1766015940.39579,49
1766015940.396814,41
1766015940.397797,45
1766015940.398821,42
1766015940.399859,44
1766015940.400845,42
1766015940.401809,46
1766015940.402818,45
1766015940.403827,41
1766015940.4048262,40
1766015940.405833,43
1766015940.4068182,39
1766015940.4078279,39
1766015940.4089139,40
1766015940.40992,41
1766015940.410836,40
