timestamp,emg_value
1766015941.779938,40
1766015941.779945,40
1766015941.779951,40
1766015941.779955,38
1766015941.7799602,41
1766015941.779965,43
1766015941.77997,42
1766015941.779975,43
1766015941.77998,40
1766015941.779985,40
1766015941.77999,40
1766015941.779995,39
1766015941.779999,40
1766015941.780004,39
1766015941.780009,36
1766015941.780014,40
1766015941.780019,37
1766015941.780024,35
1766015941.7800288,39
1766015941.780034,39
1766015941.7800379,37
1766015941.7800431,35
1766015941.780048,36
1766015941.780053,36
1766015941.7800581,38
1766015941.780063,41
1766015941.7800682,41
1766015941.780073,38
1766015941.780077,40
1766015941.780082,45
1766015941.780087,43
1766015941.780092,42
1766015941.7801,45
1766015941.780108,41
1766015941.7801118,43
1766015941.780117,41
1766015941.780122,45
1766015941.780127,45
1766015941.780132,44
1766015941.780137,43
1766015941.780142,40
1766015941.7801468,44
1766015941.780152,43
1766015941.7801569,42
1766015941.7801611,43
1766015941.780166,44
1766015941.780171,44
1766015941.780176,43
1766015941.780181,45
1766015941.780185,42
1766015941.78019,44
1766015941.780195,42
1766015941.7802,44
1766015941.780205,46
1766015941.78021,45
1766015941.780215,46
1766015941.7802198,46
1766015941.780224,49
1766015941.780229,46
1766015941.780234,42
1766015941.780239,44
1766015941.7802439,44
1766015941.7802482,42
1766015941.780253,42
1766015941.780258,45
1766015941.780266,39
1766015941.7802722,43
1766015941.780277,44
1766015941.780282,43
1766015941.7802858,42
1766015941.780291,44
1766015941.7802958,42
1766015941.780301,44
1766015941.780305,43
1766015941.78031,44
1766015941.780315,45
1766015941.78032,42
1766015941.7803268,47
1766015941.780332,44
1766015941.7803369,42
1766015941.780342,45
1766015941.7803469,45
1766015941.780352,47
1766015941.7803562,49
1766015941.780361,51
1766015941.7803662,50
1766015941.780371,54
1766015941.780376,53
1766015941.780381,55
1766015941.780386,56
1766015941.7803898,54
1766015941.780395,52
1766015941.7804,56
1766015941.780405,55
1766015941.78041,55
1766015941.780415,54
1766015941.78042,56
1766015941.780425,53
1766015941.78043,53
1766015941.780436,53
1766015941.780442,52
1766015941.780447,52
1766015941.780452,55
1766015941.780457,52
1766015941.780461,52
1766015941.7804658,50
1766015941.780471,52
1766015941.7804759,50
1766015941.780481,52
1766015941.7804868,50
1766015941.780491,52
1766015941.780496,52
1766015941.780501,52
1766015941.7805061,51
1766015941.780511,48
1766015941.780515,47
1766015941.78052,51
1766015941.780525,51
1766015941.78053,47
1766015941.780534,49
1766015941.7805388,45
1766015941.780544,49
1766015941.780549,47
1766015941.7805529,48
1766015941.780558,47
1766015941.7805629,46
1766015941.7805681,47
1766015941.780572,48
1766015941.780577,47
1766015941.780583,48
1766015941.7805882,47
1766015941.780593,49
1766015941.780599,47
1766015941.780604,47
1766015941.7806091,46
1766015941.780614,44
1766015941.780619,46
1766015941.780624,44
1766015941.780628,43
1766015941.780633,45
1766015941.780638,44
1766015941.780643,45
1766015941.7806468,47
1766015941.780652,45
1766015941.7806568,44
1766015941.780662,43
1766015941.7806668,42
1766015941.780671,42
1766015941.7806761,43
1766015941.780681,42
1766015941.7806861,43
1766015941.78069,42
1766015941.780695,42
1766015941.7807,41
1766015941.780705,40
1766015941.780709,44
1766015941.780714,41
1766015941.780719,37
1766015941.780725,39
1766015941.78073,38
1766015941.780735,39
1766015941.780739,37
1766015941.7807438,39
1766015941.780749,40
1766015941.7807539,39
1766015941.780758,38
1766015941.7807648,36
1766015941.78077,38
1766015941.7807748,36
1766015941.78078,38
1766015941.7807841,36
1766015941.780789,36
1766015941.7807941,36
1766015941.7808,35
1766015941.7808042,36
1766015941.780809,35
1766015941.7808142,36
1766015941.780819,36
1766015941.780823,40
1766015941.780828,35
1766015941.780833,36
1766015941.7808378,36
1766015941.780842,39
1766015941.780847,37
1766015941.780852,35
1766015941.780857,37
1766015941.780861,38
1766015941.7808661,35
1766015941.780871,35
1766015941.780875,36
1766015941.78088,37
1766015941.780885,34
1766015941.7808902,34
1766015941.780894,36
1766015941.780899,37
1766015941.780904,36
1766015941.780909,33
1766015941.7809138,35
1766015941.7809222,34
1766015941.780928,34
1766015941.7809339,35
1766015941.780939,35
1766015941.7809439,35
1766015941.7809489,34
1766015941.7809541,34
1766015941.780958,34
1766015941.7809632,32
1766015941.780968,32
1766015941.780973,32
1766015941.780977,31
1766015941.780982,31
1766015941.7809868,30
1766015941.780992,31
1766015941.780996,31
1766015941.7810009,33
1766015941.781006,34
1766015941.78101,31
1766015941.7810152,30
1766015941.78102,30
1766015941.781024,29
1766015941.7810292,30
1766015941.781034,31
1766015941.781039,33
1766015941.781043,30
1766015941.781048,29
1766015941.7810528,31
1766015941.781058,28
1766015941.7810628,30
1766015941.781067,30
1766015941.781072,29
1766015941.781077,29
1766015941.7810812,29
1766015941.781086,27
1766015941.781127,31
1766015941.781132,28
1766015941.781137,28
1766015941.781142,25
1766015941.7811468,29
1766015941.781151,27
1766015941.781156,29
1766015941.781161,29
1766015941.7811651,28
1766015941.78117,26
1766015941.7811751,29
1766015941.78118,27
1766015941.781184,28
1766015941.7811892,29
1766015941.781194,28
1766015941.781198,28
1766015941.781203,26
1766015941.781208,28
1766015941.781213,25
1766015941.781217,27
1766015941.7812219,26
1766015941.781227,25
1766015941.781232,28
1766015941.781236,26
1766015941.7812412,29
1766015941.781246,26
1766015941.781251,28
1766015941.781255,25
1766015941.78126,28
1766015941.7812648,25
1766015941.78127,23
1766015941.781274,27
1766015941.78128,27
1766015941.781286,26
1766015941.78129,28
1766015941.781295,25
1766015941.7813,25
1766015941.781305,25
1766015941.7813098,24
1766015941.7813141,25
1766015941.781319,27
1766015941.7813241,26
1766015941.781329,26
1766015941.781333,26
1766015941.7813382,27
1766015941.781343,26
1766015941.781348,29
1766015941.781352,26
1766015941.781357,26
1766015941.7813618,23
1766015941.781367,25
1766015941.7813709,24
1766015941.781376,27
1766015941.7813811,27
1766015941.781385,26
1766015941.7813902,25
1766015941.781395,25
1766015941.781399,26
1766015941.781404,23
1766015941.781409,25
1766015941.7814138,24
1766015941.781418,25
1766015941.781425,26
1766015941.781429,24
1766015941.781434,24
1766015941.78144,25
1766015941.781445,27
1766015941.78145,26
1766015941.781455,27
1766015941.78146,23
1766015941.781465,26
1766015941.78147,24
1766015941.781474,23
1766015941.781479,25
1766015941.7814841,25
1766015941.781489,24
1766015941.781494,26
1766015941.781499,25
1766015941.781504,23
1766015941.7815082,27
1766015941.781513,27
1766015941.781518,24
1766015941.781523,28
1766015941.781527,23
1766015941.7815318,23
1766015941.781537,24
1766015941.7815418,27
1766015941.781547,26
1766015941.7815511,23
1766015941.781556,25
1766015941.7815611,26
1766015941.781566,26
1766015941.78157,28
1766015941.781575,27
1766015941.78158,24
1766015941.781585,26
1766015941.781589,25
1766015941.781594,23
1766015941.781599,23
1766015941.781605,24
1766015941.78161,24
1766015941.781615,24
1766015941.78162,27
1766015941.781625,24
1766015941.7816288,24
1766015941.781634,25
1766015941.7816389,27
1766015941.781644,23
1766015941.7816489,28
1766015941.781653,24
1766015941.7816582,25
1766015941.781663,24
1766015941.781667,25
1766015941.781672,25
1766015941.781677,22
1766015941.7816808,21
1766015941.781686,25
1766015941.7816908,25
1766015941.781696,25
1766015941.781701,22
1766015941.781706,23
1766015941.781711,24
1766015941.781715,25
1766015941.7817202,26
1766015941.781725,26
1766015941.78173,22
1766015941.781734,23
1766015941.781739,24
1766015941.7817442,25
1766015941.781749,24
1766015941.781754,24
1766015941.781758,25
1766015941.7817652,21
1766015941.781771,24
1766015941.781776,24
1766015941.78178,21
1766015941.781785,23
1766015941.78179,25
1766015941.781795,23
1766015941.7817988,23
1766015941.781804,26
1766015941.7818089,25
1766015941.781814,23
1766015941.7818182,24
1766015941.781823,23
1766015941.7818282,24
1766015941.781833,25
1766015941.781837,25
1766015941.781842,24
1766015941.781847,22
1766015941.781852,24
1766015941.781856,23
1766015941.781861,23
1766015941.781866,23
1766015941.781871,24
1766015941.781932,26
1766015941.781945,21
1766015941.781955,24
1766015941.781966,22
1766015941.781976,23
1766015941.781986,27
1766015941.781996,24
1766015941.782006,22
1766015941.782016,25
1766015941.782026,23
1766015941.782038,22
1766015941.782049,24
1766015941.782058,22
1766015941.78207,23
1766015941.78208,23
1766015941.78209,23
1766015941.7821,20
1766015941.78211,25
1766015941.78212,22
1766015941.78213,22
1766015941.78214,21
1766015941.7821498,23
1766015941.7821598,24
1766015941.78217,22
1766015941.78218,27
1766015941.78219,23
1766015941.7821991,24
1766015941.782209,26
1766015941.782219,22
1766015941.782229,24
1766015941.782239,22
1766015941.782249,24
1766015941.782259,27
1766015941.7822678,23
1766015941.7822778,25
1766015941.7822888,26
1766015941.782347,22
1766015941.78236,23
1766015941.7823648,24
1766015941.78237,26
1766015941.7823749,24
1766015941.78238,24
1766015941.7823849,24
1766015941.782392,24
1766015941.782398,23
1766015941.782403,26
1766015941.78243,25
1766015941.782441,22
1766015941.782451,24
1766015941.782496,25
1766015941.782507,26
1766015941.782518,27
1766015941.782527,26
1766015941.782537,26
1766015941.782547,26
1766015941.782557,26
1766015941.7825751,23
1766015941.7825851,27
1766015941.7825952,27
1766015941.7826052,26
1766015941.782615,26
1766015941.78263,26
1766015941.7826402,26
1766015941.78265,27
1766015941.78266,27
1766015941.78267,26
1766015941.782679,27
1766015941.78269,25
1766015941.782711,26
1766015941.782722,30
1766015941.782727,26
1766015941.782732,28
1766015941.7827368,26
1766015941.782742,26
1766015941.7827468,27
1766015941.782752,28
1766015941.782759,23
1766015941.7827652,28
1766015941.782769,28
1766015941.782774,26
1766015941.782779,28
1766015941.782784,24
1766015941.7827892,27
1766015941.782794,29
1766015941.782799,29
1766015941.782804,26
1766015941.782809,28
1766015941.782814,29
1766015941.782819,29
1766015941.782824,30
1766015941.782829,30
1766015941.7828338,29
1766015941.782839,29
1766015941.7828438,27
1766015941.782849,32
1766015941.7828538,30
1766015941.782859,30
1766015941.7828631,27
1766015941.782868,29
1766015941.7828732,30
1766015941.782878,27
1766015941.7828832,28
1766015941.782888,29
1766015941.782893,28
1766015941.782898,30
1766015941.782903,26
1766015941.782908,29
1766015941.782913,31
1766015941.782918,30
1766015941.782924,27
1766015941.78293,28
1766015941.7829351,33
1766015941.78294,30
1766015941.782945,29
1766015941.7829492,32
1766015941.782954,25
1766015941.7829592,32
1766015941.782964,32
1766015941.782969,32
1766015941.782974,29
1766015941.782979,33
1766015941.782984,34
1766015941.782988,33
1766015941.7829928,31
1766015941.782998,29
1766015941.7830029,29
1766015941.783008,31
1766015941.783013,33
1766015941.7830179,33
1766015941.783023,34
1766015941.783028,35
1766015941.7830331,33
1766015941.783037,35
1766015941.783047,36
1766015941.783052,35
1766015941.783057,36
1766015941.783062,37
1766015941.783067,36
1766015941.783072,41
1766015941.783077,36
1766015941.783081,39
1766015941.783086,38
1766015941.7830908,40
1766015941.7830982,38
1766015941.783104,42
1766015941.7831092,37
1766015941.783113,43
1766015941.783118,40
1766015941.783123,38
1766015941.783128,36
1766015941.783133,37
1766015941.783138,39
1766015941.7831428,39
1766015941.783148,41
1766015941.783152,41
1766015941.783157,39
1766015941.783162,39
1766015941.783167,41
1766015941.7831721,41
1766015941.783177,41
1766015941.7831821,38
1766015941.783187,39
1766015941.783191,35
1766015941.783196,37
1766015941.783201,39
1766015941.783206,38
1766015941.783211,40
1766015941.7832162,41
1766015941.78322,42
1766015941.783225,41
1766015941.78323,38
1766015941.783235,38
1766015941.783241,39
1766015941.783246,38
1766015941.783251,39
1766015941.783256,39
1766015941.783262,39
1766015941.7832682,39
1766015941.783273,39
1766015941.783278,40
1766015941.783283,45
1766015941.783288,42
1766015941.783293,43
1766015941.783298,41
1766015941.783303,42
1766015941.783308,43
1766015941.7833118,43
1766015941.783317,46
1766015941.783322,43
1766015941.7833269,42
1766015941.783332,42
1766015941.7833369,46
1766015941.7833421,44
1766015941.783346,43
1766015941.783351,45
1766015941.783356,45
1766015941.783361,43
1766015941.783366,44
1766015941.783371,41
1766015941.783375,41
1766015941.78338,44
1766015941.783385,41
1766015941.78339,44
1766015941.783395,44
1766015941.7833998,46
1766015941.783405,42
1766015941.7834098,43
1766015941.783415,45
1766015941.7834198,43
1766015941.783426,47
1766015941.7834308,45
1766015941.783437,45
1766015941.7834408,45
1766015941.783446,44
1766015941.7834508,45
1766015941.783456,48
1766015941.783461,45
1766015941.783466,43
1766015941.783471,45
1766015941.783475,44
1766015941.7834802,45
1766015941.783485,42
1766015941.78349,42
1766015941.783495,46
1766015941.7835,46
1766015941.783505,43
1766015941.78351,43
1766015941.783515,46
1766015941.783519,46
1766015941.783524,44
1766015941.783529,42
1766015941.783534,47
1766015941.783539,47
1766015941.783544,46
1766015941.7835488,46
1766015941.783554,43
1766015941.7835588,44
1766015941.783563,45
1766015941.783568,44
1766015941.783573,44
1766015941.7835782,49
1766015941.783583,45
1766015941.783587,45
1766015941.783594,46
1766015941.7836,50
1766015941.783604,47
1766015941.7836092,49
1766015941.783614,50
1766015941.7836192,47
1766015941.783624,48
1766015941.783629,47
1766015941.783633,48
1766015941.783638,51
1766015941.7836428,48
1766015941.783648,48
1766015941.783653,49
1766015941.783657,52
1766015941.783662,49
1766015941.7836668,48
1766015941.783672,49
1766015941.7836769,48
1766015941.783682,49
1766015941.783686,44
1766015941.783691,47
1766015941.783696,49
1766015941.783701,50
1766015941.7837062,47
1766015941.783711,46
1766015941.7837162,48
1766015941.783721,48
1766015941.783725,46
1766015941.78373,52
1766015941.783735,48
1766015941.7837398,48
1766015941.783745,47
1766015941.7837498,46
1766015941.783756,45
1766015941.783762,46
1766015941.783767,49
1766015941.783772,47
1766015941.783777,50
1766015941.783782,46
1766015941.783787,46
1766015941.783791,45
1766015941.783796,45
1766015941.783802,46
1766015941.7838058,46
1766015941.783811,46
1766015941.7838159,48
1766015941.783821,50
1766015941.7838259,47
1766015941.7838311,47
1766015941.783836,47
1766015941.78384,46
1766015941.7838452,48
1766015941.78385,45
1766015941.7838552,44
1766015941.78386,44
1766015941.783865,45
1766015941.78387,43
1766015941.783874,46
1766015941.7838788,46
1766015941.783884,45
1766015941.7838888,45
1766015941.783894,44
1766015941.7838988,41
1766015941.783904,45
1766015941.783909,46
1766015941.783914,44
1766015941.783919,45
1766015941.783925,46
1766015941.78393,48
1766015941.783935,45
1766015941.78394,44
1766015941.7839448,43
1766015941.78395,45
1766015941.7839549,47
1766015941.78396,46
1766015941.783964,45
1766015941.783969,46
1766015941.783974,44
1766015941.783979,44
1766015941.7839842,46
1766015941.783989,46
1766015941.7839942,45
1766015941.783999,45
1766015941.784003,47
1766015941.784008,45
1766015941.784013,45
1766015941.7840178,45
1766015941.784023,46
1766015941.7840278,45
1766015941.784032,43
1766015941.784037,45
1766015941.784042,43
1766015941.7840471,47
1766015941.784052,45
1766015941.7840571,45
1766015941.784062,45
1766015941.784066,45
1766015941.784071,45
1766015941.784076,45
1766015941.784081,45
1766015941.784087,43
1766015941.784093,44
1766015941.7840981,44
1766015941.784103,45
1766015941.784107,44
1766015941.7841122,43
1766015941.784117,46
1766015941.7841222,44
1766015941.784127,43
1766015941.784132,45
1766015941.7841358,45
1766015941.784141,43
1766015941.7841458,42
1766015941.784151,43
1766015941.7841558,42
1766015941.784161,44
1766015941.7841651,47
1766015941.78417,43
1766015941.7841752,42
1766015941.78418,45
1766015941.7841852,45
1766015941.78419,41
1766015941.784194,44
1766015941.784199,42
1766015941.784204,43
1766015941.784209,43
1766015941.784214,46
1766015941.784218,41
1766015941.784223,43
1766015941.784228,43
1766015941.7842329,43
1766015941.784238,43
1766015941.7842429,42
1766015941.784248,41
1766015941.7842538,43
1766015941.78426,42
1766015941.784265,41
1766015941.78427,41
1766015941.7842739,42
1766015941.784279,42
1766015941.7842839,42
1766015941.7842891,39
1766015941.784294,43
1766015941.784298,42
1766015941.7843032,43
1766015941.784308,43
1766015941.7843132,43
1766015941.784318,42
1766015941.784322,41
1766015941.784327,41
1766015941.784332,39
1766015941.7843368,39
1766015941.784342,42
1766015941.7843468,41
1766015941.7843509,38
1766015941.784356,36
1766015941.784361,40
1766015941.7843661,39
1766015941.784371,40
1766015941.7843761,40
1766015941.78438,37
1766015941.784385,40
1766015941.78439,40
1766015941.784395,41
1766015941.7844,40
1766015941.784405,38
1766015941.784409,39
1766015941.784416,38
1766015941.784422,38
1766015941.784427,37
1766015941.7844322,37
1766015941.784437,40
1766015941.784441,38
1766015941.784446,38
1766015941.784451,39
1766015941.784456,38
1766015941.784461,39
1766015941.784466,37
1766015941.784471,38
1766015941.7844748,40
1766015941.78448,42
1766015941.784485,39
1766015941.7844899,40
1766015941.784495,39
1766015941.784499,41
1766015941.7845042,39
1766015941.784509,38
1766015941.784514,40
1766015941.784519,41
1766015941.784524,39
1766015941.784529,38
1766015941.784534,39
1766015941.784539,39
1766015941.784544,37
1766015941.7845492,35
1766015941.784553,41
1766015941.784558,38
1766015941.7845628,37
1766015941.784568,39
1766015941.7845728,36
1766015941.784579,40
1766015941.784585,38
1766015941.78459,37
1766015941.7845938,37
1766015941.784599,38
1766015941.7846038,37
1766015941.784609,39
1766015941.7846138,37
1766015941.784619,39
1766015941.7846231,40
1766015941.784628,38
1766015941.7846332,39
1766015941.784638,40
1766015941.7846432,39
1766015941.784648,40
1766015941.784652,36
1766015941.784657,40
1766015941.784662,38
1766015941.7846668,39
1766015941.784671,35
1766015941.784676,37
1766015941.7846808,38
1766015941.784686,39
1766015941.7846909,37
1766015941.784696,37
1766015941.7847,39
1766015941.784705,39
1766015941.78471,36
1766015941.784715,35
1766015941.78472,35
1766015941.784725,35
1766015941.784729,38
1766015941.784734,35
1766015941.7847402,37
1766015941.784745,33
1766015941.7847512,35
1766015941.784756,37
1766015941.78476,37
1766015941.784765,34
1766015941.78477,36
1766015941.784775,39
1766015941.78478,36
1766015941.7847838,37
1766015941.784789,37
1766015941.784794,38
1766015941.7847989,33
1766015941.7848032,36
1766015941.784808,37
1766015941.7848132,36
1766015941.784818,38
1766015941.784823,36
1766015941.784827,32
1766015941.784832,33
1766015941.784837,36
1766015941.784842,34
1766015941.784847,35
1766015941.784852,35
1766015941.784856,33
1766015941.7848608,34
1766015941.784866,33
1766015941.7848709,36
1766015941.784876,33
1766015941.7848809,38
1766015941.784885,34
1766015941.7848902,36
1766015941.784895,35
1766015941.7849002,33
1766015941.784906,33
1766015941.7849119,34
1766015941.7849169,36
1766015941.7849221,32
1766015941.784926,35
1766015941.7849312,32
1766015941.784936,34
1766015941.784941,34
1766015941.784946,34
1766015941.78495,34
1766015941.7849548,35
1766015941.78496,36
1766015941.784965,33
1766015941.78497,32
1766015941.784975,35
1766015941.7849789,35
1766015941.784984,33
1766015941.7849889,35
1766015941.7849941,35
1766015941.784999,34
1766015941.7850041,36
1766015941.7850082,32
1766015941.785013,33
1766015941.7850182,34
1766015941.785023,29
1766015941.785028,33
1766015941.785033,31
1766015941.785037,31
1766015941.7850418,32
1766015941.785047,33
1766015941.7850518,33
1766015941.785057,32
1766015941.7850618,34
1766015941.785068,33
1766015941.785074,30
1766015941.785079,33
1766015941.785084,33
1766015941.785089,31
1766015941.7850938,31
1766015941.785098,32
1766015941.785103,33
1766015941.7851079,29
1766015941.785113,33
1766015941.7851179,31
1766015941.785123,31
1766015941.7851279,30
1766015941.7851331,32
1766015941.785138,30
1766015941.7851431,31
1766015941.785148,32
1766015941.785153,30
1766015941.7851572,30
1766015941.785162,32
1766015941.7851672,32
1766015941.785172,32
1766015941.785177,30
1766015941.785182,33
1766015941.785187,31
1766015941.7851908,30
1766015941.785258,28
1766015941.785291,32
1766015941.785312,32
1766015941.785326,28
1766015941.785336,30
1766015941.785346,29
1766015941.785356,32
1766015941.785368,30
1766015941.7853792,27
1766015941.785389,32
1766015941.785399,31
1766015941.785409,30
1766015941.785419,28
1766015941.785428,32
1766015941.785439,30
1766015941.785449,29
1766015941.785462,30
1766015941.785472,31
1766015941.785481,29
1766015941.785491,29
1766015941.785501,29
1766015941.7855349,30
1766015941.785543,29
1766015941.785548,28
1766015941.785553,28
1766015941.785558,30
1766015941.785563,30
1766015941.785568,29
1766015941.785573,29
1766015941.785578,29
1766015941.785583,28
1766015941.785588,28
1766015941.785593,32
1766015941.785598,28
1766015941.785603,29
1766015941.7856069,31
1766015941.785612,31
1766015941.7856169,29
1766015941.785623,30
1766015941.785627,29
1766015941.785635,28
1766015941.785641,29
1766015941.785646,28
1766015941.785652,28
1766015941.7856572,27
1766015941.785661,30
1766015941.785666,30
1766015941.785671,29
1766015941.785676,26
1766015941.785681,31
1766015941.785686,26
1766015941.7856908,29
1766015941.785696,27
1766015941.7857,28
1766015941.7857049,29
1766015941.78571,29
1766015941.7857149,29
1766015941.78572,30
1766015941.7857249,29
1766015941.7857301,25
1766015941.785735,28
1766015941.7857401,30
1766015941.785745,27
1766015941.78575,28
1766015941.7857542,28
1766015941.785759,28
1766015941.785764,31
1766015941.785769,30
1766015941.785774,27
1766015941.785779,26
1766015941.785784,28
1766015941.785789,29
1766015941.785794,28
1766015941.785799,29
1766015941.785804,27
1766015941.78581,27
1766015941.785816,26
1766015941.785821,29
1766015941.785826,28
1766015941.785831,26
1766015941.785836,25
1766015941.785841,25
1766015941.785846,28
1766015941.78585,27
1766015941.785855,28
1766015941.78586,28
1766015941.785865,27
1766015941.78587,28
1766015941.7858748,26
1766015941.78588,28
1766015941.7858849,24
1766015941.785889,29
1766015941.785894,26
1766015941.785899,29
1766015941.7859042,26
1766015941.785909,28
1766015941.7859142,27
1766015941.785919,29
1766015941.7859242,29
1766015941.785928,30
1766015941.785933,28
1766015941.785938,28
1766015941.785943,27
1766015941.7859478,28
1766015941.785953,26
1766015941.785957,25
1766015941.7859619,24
1766015941.785967,27
1766015941.7859719,28
1766015941.7859788,27
1766015941.785984,30
1766015941.785989,25
1766015941.785994,26
1766015941.785999,27
1766015941.786004,28
1766015941.7860081,26
1766015941.7860649,26
1766015941.7860951,25
1766015941.786101,26
1766015941.786106,27
1766015941.7861109,27
1766015941.7861152,26
1766015941.78612,26
1766015941.786125,28
1766015941.78613,28
1766015941.786135,24
1766015941.78614,26
1766015941.786145,25
1766015941.78615,24
1766015941.786155,28
1766015941.786159,26
1766015941.786164,26
1766015941.786169,24
1766015941.786174,27
1766015941.786179,27
1766015941.7861838,27
1766015941.7861881,25
1766015941.786193,25
1766015941.786198,25
1766015941.786203,25
1766015941.786208,26
1766015941.7862122,25
1766015941.7862191,25
1766015941.7862248,25
1766015941.786231,25
1766015941.7862358,24
1766015941.78624,24
1766015941.786245,27
1766015941.7862499,25
1766015941.7862551,24
1766015941.78626,26
1766015941.7862642,23
1766015941.786269,28
1766015941.786274,26
1766015941.786279,26
1766015941.786284,27
1766015941.786288,27
1766015941.786293,25
1766015941.786298,27
1766015941.786303,23
1766015941.786307,27
1766015941.7863119,23
1766015941.786317,21
1766015941.7863219,22
1766015941.786326,27
1766015941.786331,23
1766015941.786336,24
1766015941.7863412,25
1766015941.786345,21
1766015941.78635,22
1766015941.786355,24
1766015941.78636,23
1766015941.7863638,25
1766015941.786369,22
1766015941.7863739,24
1766015941.78638,26
1766015941.7863848,23
1766015941.786391,26
1766015941.7863958,26
1766015941.7864,24
1766015941.786405,25
1766015941.78641,21
1766015941.786415,25
1766015941.7864199,21
1766015941.7864242,21
1766015941.786429,24
1766015941.786434,24
1766015941.786439,22
1766015941.786444,23
1766015941.786449,26
1766015941.786453,23
1766015941.786458,24
1766015941.786463,24
1766015941.786468,22
1766015941.786473,26
1766015941.786478,22
1766015941.7864819,23
1766015941.786487,26
1766015941.7864919,24
1766015941.786497,21
1766015941.786502,23
1766015941.786507,22
1766015941.786512,23
1766015941.786516,25
1766015941.7865212,24
1766015941.786526,26
1766015941.786531,27
1766015941.786536,24
1766015941.78654,24
1766015941.7865448,23
1766015941.78655,25
1766015941.7865548,21
1766015941.78656,23
1766015941.786565,22
1766015941.7865689,24
1766015941.7865741,25
1766015941.786579,23
1766015941.7865841,24
1766015941.786589,21
1766015941.786593,23
1766015941.786598,26
1766015941.786603,25
1766015941.7866082,25
1766015941.786613,24
1766015941.786618,23
1766015941.786624,26
1766015941.7866292,25
1766015941.786634,23
1766015941.7866392,24
1766015941.786644,26
1766015941.786648,23
1766015941.786653,27
1766015941.786658,25
1766015941.7866628,24
1766015941.786668,24
1766015941.7866728,26
1766015941.786678,21
1766015941.7866828,24
1766015941.786688,22
1766015941.786693,27
1766015941.786697,23
1766015941.7867022,26
1766015941.786707,21
1766015941.7867122,23
1766015941.786717,24
1766015941.786722,23
1766015941.786727,22
1766015941.786765,25
1766015941.786784,24
1766015941.786807,25
1766015941.786818,25
1766015941.786828,26
1766015941.786838,23
1766015941.786848,24
1766015941.786858,22
1766015941.786869,25
1766015941.786879,22
1766015941.786889,23
1766015941.7868989,26
1766015941.7869089,25
1766015941.7869189,25
1766015941.786929,24
1766015941.786939,24
1766015941.7869482,24
1766015941.786958,26
1766015941.786968,22
1766015941.786978,26
1766015941.786992,24
1766015941.787004,26
1766015941.787015,26
1766015941.787025,26
1766015941.787035,27
1766015941.787045,23
1766015941.787055,24
1766015941.787064,25
1766015941.787074,28
1766015941.787084,24
1766015941.787094,26
1766015941.787104,27
1766015941.787114,24
1766015941.787124,28
1766015941.787134,28
1766015941.787144,27
1766015941.787154,24
1766015941.7871628,28
1766015941.787173,26
1766015941.787183,26
1766015941.787193,27
1766015941.7872052,26
1766015941.787215,29
1766015941.787225,28
1766015941.787235,26
1766015941.787245,27
1766015941.787255,27
1766015941.787265,23
1766015941.787275,27
1766015941.787285,25
1766015941.7872949,28
1766015941.7873049,27
1766015941.787315,28
1766015941.787325,27
1766015941.787334,29
1766015941.787344,28
1766015941.7873542,29
1766015941.787364,26
1766015941.787374,27
1766015941.787384,27
1766015941.787394,30
1766015941.787404,31
1766015941.787414,28
1766015941.787424,27
1766015941.787434,29
1766015941.7874439,27
1766015941.787454,29
1766015941.787464,28
1766015941.787474,28
1766015941.787483,26
1766015941.7874932,29
1766015941.787503,28
1766015941.787513,28
1766015941.787523,29
1766015941.787533,29
1766015941.787543,28
1766015941.787553,31
1766015941.787563,27
1766015941.787573,25
1766015941.7875829,27
1766015941.787592,29
1766015941.787602,25
1766015941.787612,31
1766015941.787622,31
1766015941.7876322,27
1766015941.787643,31
1766015941.7876532,29
1766015941.787662,31
1766015941.787672,32
1766015941.787682,27
1766015941.787692,29
1766015941.787702,27
1766015941.787712,30
1766015941.7877219,29
1766015941.787732,27
1766015941.787742,28
1766015941.787752,28
1766015941.787761,28
1766015941.787771,29
1766015941.7877812,31
1766015941.787791,29
1766015941.787801,29
1766015941.787811,29
1766015941.7878249,31
1766015941.787835,28
1766015941.7878451,31
1766015941.7878551,29
1766015941.7878652,27
1766015941.7878752,29
1766015941.787885,35
1766015941.787895,33
1766015941.787905,29
1766015941.787915,29
1766015941.787925,31
1766015941.787935,28
1766015941.787945,30
1766015941.7879539,29
1766015941.7879639,30
1766015941.7879739,32
1766015941.787984,32
1766015941.7879941,34
1766015941.7880042,32
1766015941.7880142,31
1766015941.788023,30
1766015941.788033,28
1766015941.788043,31
1766015941.788053,34
1766015941.788063,30
1766015941.788073,31
1766015941.7880828,31
1766015941.7880929,31
1766015941.788102,31
1766015941.788112,33
1766015941.7881222,32
1766015941.7881322,34
1766015941.788142,34
1766015941.788152,32
1766015941.788162,31
1766015941.788171,30
1766015941.788181,36
1766015941.788191,33
1766015941.7882009,33
1766015941.7882109,33
1766015941.78822,32
1766015941.78823,29
1766015941.78824,33
1766015941.7882502,33
1766015941.78826,29
1766015941.78827,31
1766015941.78828,32
1766015941.788289,34
1766015941.788299,31
1766015941.788309,28
1766015941.7883189,29
1766015941.788329,29
1766015941.788339,29
1766015941.788349,31
1766015941.788358,29
1766015941.788368,28
1766015941.788378,28
1766015941.788388,29
1766015941.788398,28
1766015941.788408,30
1766015941.788417,31
1766015941.788427,27
1766015941.788437,30
1766015941.788447,30
1766015941.788457,28
1766015941.788467,29
1766015941.788697,30
1766015941.789734,30
1766015941.790679,31
1766015941.7917,28
1766015941.792715,29
1766015941.7936919,30
1766015941.794718,31
1766015941.795724,31
1766015941.796748,28
1766015941.797735,27
1766015941.79873,28
1766015941.799731,29
1766015941.8007061,29
1766015941.801731,31
1766015941.802795,28
1766015941.803804,31
1766015941.8047822,32
1766015941.8057542,27
1766015941.806746,28
1766015941.807776,27
1766015941.808785,29
1766015941.8097448,30
1766015941.81075,27
1766015941.811765,31
1766015941.812751,28
1766015941.813767,28
1766015941.814761,30
1766015941.815804,31
1766015941.816836,30
1766015941.817796,29
1766015941.818775,28
1766015941.8197901,29
1766015941.82079,30
1766015941.82179,29
1766015941.822787,28
1766015941.823804,30
1766015941.824817,29
1766015941.825835,31
1766015941.826829,31
1766015941.8278148,29
1766015941.82881,29
1766015941.8298008,25
1766015941.8307898,29
1766015941.831813,28
1766015941.8328278,27
1766015941.8338401,27
1766015941.83484,27
1766015941.835808,28
1766015941.836821,26
1766015941.837915,28
1766015941.838814,29
1766015941.839838,30
1766015941.840945,28
1766015941.841965,28
1766015941.8429399,28
1766015941.843935,29
1766015941.844938,25
1766015941.84593,27
1766015941.846931,28
1766015941.847923,27
1766015941.848938,29
1766015941.849972,25
1766015941.850954,31
1766015941.851933,27
1766015941.8529248,27
1766015941.853933,27
1766015941.854926,30
1766015941.8559182,27
1766015941.85692,24
1766015941.8579252,26
1766015941.858916,27
1766015941.859908,27
1766015941.860908,27
1766015941.8619158,25
1766015941.8629298,27
1766015941.8639228,27
1766015941.8649201,27
1766015941.865938,26
1766015941.866938,25
1766015941.867908,28
1766015941.8689039,27
1766015941.8699331,26
1766015941.8709261,27
1766015941.8719082,26
1766015941.87292,28
1766015941.8739352,30
1766015941.874979,27
1766015941.875953,30
1766015941.87696,30
1766015941.877952,25
1766015941.8789551,26
1766015941.879959,30
1766015941.880951,25
1766015941.881952,26
1766015941.8829498,27
1766015941.883975,28
1766015941.884952,29
1766015941.885972,26
1766015941.886965,28
1766015941.887972,27
1766015941.888957,27
1766015941.88996,28
1766015941.890978,27
1766015941.8919911,28
1766015941.892975,26
1766015941.8939881,28
1766015941.894973,24
1766015941.895972,28
1766015941.8969731,28
1766015941.897977,27
1766015941.8989928,30
1766015941.9000041,29
1766015941.9009888,26
1766015941.9019918,31
1766015941.9029949,26
1766015941.904001,26
1766015941.9050229,26
1766015941.906015,26
1766015941.90702,29
1766015941.908057,28
1766015941.90906,25
1766015941.9100318,26
1766015941.91105,28
1766015941.912055,25
1766015941.9130838,26
1766015941.914037,29
1766015941.915061,27
1766015941.916054,26
1766015941.9170508,28
1766015941.9180522,27
1766015941.919062,26
1766015941.920073,27
1766015941.921063,30
1766015941.92205,26
1766015941.9230819,28
1766015941.9240682,30
1766015941.9250822,27
1766015941.92608,25
1766015941.92708,27
1766015941.928082,29
1766015941.9290628,26
1766015941.9300961,26
1766015941.9310908,29
1766015941.932101,28
1766015941.9330912,26
1766015941.934104,28
1766015941.935105,28
1766015941.936109,25
1766015941.937088,30
1766015941.9381309,27
1766015941.939121,28
1766015941.940128,29
1766015941.9411352,31
1766015941.9421408,28
1766015941.943126,29
1766015941.9441469,30
1766015941.94516,29
1766015941.946135,29
1766015941.9471219,28
1766015941.948127,28
1766015941.949153,31
1766015941.9501572,32
1766015941.95117,33
1766015941.952152,36
1766015941.9531572,36
1766015941.954165,35
1766015941.955162,37
1766015941.956172,36
1766015941.9571562,41
1766015941.9581609,36
1766015941.959171,41
1766015941.960214,39
1766015941.961202,41
1766015941.9621792,38
1766015941.963191,38
1766015941.964183,40
1766015941.965179,40
1766015941.966167,47
1766015941.967202,47
1766015941.9682188,54
1766015941.9692101,59
1766015941.970193,63
1766015941.971216,69
1766015941.9722161,69
1766015941.973203,69
1766015941.9742029,69
1766015941.975209,68
1766015941.976226,72
1766015941.977207,68
1766015941.97822,76
1766015941.979224,77
1766015941.980226,85
1766015941.981225,94
1766015941.982309,105
1766015941.983328,110
1766015941.984334,110
1766015941.985339,116
1766015941.986337,120
1766015941.987338,124
1766015941.988339,124
1766015941.9893491,127
1766015941.9903512,127
1766015941.991352,126
1766015941.992351,131
1766015941.993353,129
1766015941.9943528,127
1766015941.9953542,127
1766015941.9963782,127
1766015941.9973671,126
1766015941.998375,123
1766015941.999382,125
1766015942.0003798,123
1766015942.001476,121
1766015942.0023801,120
1766015942.003375,118
1766015942.004384,119
1766015942.0053818,118
1766015942.006402,118
1766015942.007413,115
1766015942.008398,116
1766015942.009432,115
1766015942.010404,112
1766015942.0114691,114
1766015942.012416,114
1766015942.0134358,114
1766015942.014452,117
1766015942.015439,122
1766015942.016444,122
1766015942.017496,127
1766015942.01845,136
1766015942.0194821,146
1766015942.020462,153
1766015942.021464,158
1766015942.022444,166
1766015942.023423,168
1766015942.024431,166
1766015942.025471,167
1766015942.026463,170
1766015942.027444,170
1766015942.028456,172
1766015942.029456,173
1766015942.030449,175
1766015942.031446,172
1766015942.032456,178
1766015942.033489,177
1766015942.034473,175
1766015942.035481,173
1766015942.036457,173
1766015942.0375218,169
1766015942.038522,167
1766015942.039495,164
1766015942.040493,165
1766015942.0414898,167
1766015942.042497,165
1766015942.043485,163
1766015942.044493,161
1766015942.045482,162
1766015942.046509,160
1766015942.047499,156
1766015942.048505,155
1766015942.049516,154
1766015942.050499,154
1766015942.051538,153
1766015942.05251,151
1766015942.053501,150
1766015942.054527,146
1766015942.055538,145
1766015942.0565188,141
1766015942.057528,143
1766015942.058531,139
1766015942.059542,139
1766015942.0605462,138
1766015942.061513,138
1766015942.0625432,141
1766015942.063553,139
1766015942.0645409,143
1766015942.065544,143
1766015942.066562,141
1766015942.0675662,140
1766015942.068576,142
1766015942.069586,142
1766015942.070591,136
1766015942.0715818,136
1766015942.072563,138
1766015942.0735638,133
1766015942.074582,133
1766015942.075588,134
1766015942.0765939,129
1766015942.077585,128
1766015942.0785978,128
1766015942.0795689,124
1766015942.080589,127
1766015942.0816078,127
1766015942.082579,128
1766015942.083606,124
1766015942.0846038,124
1766015942.0855901,122
1766015942.086582,120
1766015942.087605,120
1766015942.088615,116
1766015942.089626,115
1766015942.090683,117
1766015942.091647,114
1766015942.0926049,114
1766015942.093607,111
1766015942.094652,110
1766015942.095642,110
1766015942.096632,110
1766015942.097634,106
1766015942.0986419,108
1766015942.099643,105
1766015942.100638,103
1766015942.1016471,103
1766015942.102651,102
1766015942.103656,102
1766015942.104657,100
1766015942.105674,103
1766015942.106669,102
1766015942.107656,100
1766015942.108672,102
1766015942.109674,100
1766015942.110646,103
1766015942.1116512,100
1766015942.112588,98
1766015942.113584,98
1766015942.114594,96
1766015942.115582,97
1766015942.1165912,95
1766015942.117646,95
1766015942.118635,95
1766015942.119614,91
1766015942.120594,91
1766015942.121624,90
1766015942.122601,92
1766015942.1236658,91
1766015942.124707,90
1766015942.125673,88
1766015942.12672,88
1766015942.127628,91
1766015942.128722,88
1766015942.129708,87
1766015942.130668,84
1766015942.131669,85
1766015942.1326761,87
1766015942.1337001,89
1766015942.134732,86
1766015942.135686,86
1766015942.136657,90
1766015942.1377332,92
1766015942.138703,91
1766015942.13968,89
1766015942.1407301,89
1766015942.141727,89
1766015942.1427531,88
1766015942.143712,88
1766015942.144664,87
1766015942.1457548,88
1766015942.146752,86
1766015942.147688,88
1766015942.1486988,84
1766015942.149707,88
1766015942.150728,86
1766015942.151734,83
1766015942.1527,82
1766015942.15374,83
1766015942.154716,81
1766015942.15579,84
1766015942.1567402,81
1766015942.157783,83
1766015942.158723,82
1766015942.159762,78
1766015942.160815,81
1766015942.161778,80
1766015942.1627572,77
1766015942.1637938,78
1766015942.164763,78
1766015942.165799,77
1766015942.166823,75
1766015942.1677802,76
1766015942.1687732,75
1766015942.169732,75
1766015942.1707919,73
1766015942.171819,71
1766015942.172802,70
1766015942.17378,73
1766015942.17478,74
1766015942.1758,69
1766015942.176807,70
1766015942.1777651,71
1766015942.178802,70
1766015942.179837,72
1766015942.18081,68
1766015942.181813,68
1766015942.182792,68
1766015942.183837,69
1766015942.184811,64
1766015942.185845,66
1766015942.186833,69
1766015942.187862,68
1766015942.1888409,68
1766015942.189812,61
1766015942.190838,66
1766015942.191849,64
1766015942.19286,64
1766015942.193849,64
1766015942.194776,60
1766015942.195905,62
1766015942.196852,63
1766015942.1978571,63
1766015942.198855,65
1766015942.199888,60
1766015942.200869,62
1766015942.201951,62
1766015942.202914,62
1766015942.2040162,63
1766015942.20498,59
1766015942.2058969,58
1766015942.2069519,58
1766015942.207953,61
1766015942.20896,60
1766015942.2099562,63
1766015942.210977,64
1766015942.212013,68
1766015942.212977,68
1766015942.213981,70
1766015942.2149491,69
1766015942.2159538,74
1766015942.216953,74
1766015942.2179751,74
1766015942.218982,75
1766015942.219912,76
1766015942.2209752,77
1766015942.221929,73
1766015942.222952,71
1766015942.223968,76
1766015942.224927,73
1766015942.225952,72
1766015942.226955,71
1766015942.227914,75
1766015942.228937,75
1766015942.2299268,71
1766015942.230973,75
1766015942.231942,73
1766015942.2329228,70
1766015942.233958,71
1766015942.234974,71
1766015942.235935,71
1766015942.237011,71
1766015942.237941,69
1766015942.238964,68
1766015942.239943,65
1766015942.240963,68
1766015942.241971,66
1766015942.242997,63
1766015942.2439868,66
1766015942.2449348,68
1766015942.245986,64
1766015942.2470038,63
1766015942.2479858,61
1766015942.2489998,64
1766015942.24998,62
1766015942.2509818,64
1766015942.251988,58
1766015942.252971,63
1766015942.2540019,59
1766015942.255022,58
1766015942.25602,61
1766015942.2570088,59
1766015942.2580092,58
1766015942.25902,59
1766015942.260066,58
1766015942.261021,60
1766015942.2620008,56
1766015942.263037,53
1766015942.264025,54
1766015942.265022,56
1766015942.26602,57
1766015942.26702,57
1766015942.26805,54
1766015942.269035,53
1766015942.269994,56
1766015942.271049,53
1766015942.272064,52
1766015942.273029,53
1766015942.274066,52
1766015942.275072,52
1766015942.276067,50
1766015942.277073,55
1766015942.278025,50
1766015942.27911,54
1766015942.280069,52
1766015942.28107,48
1766015942.282086,54
1766015942.283078,51
1766015942.284085,52
1766015942.2850828,55
1766015942.286078,55
1766015942.2870579,51
1766015942.288105,52
1766015942.289094,49
1766015942.29009,52
1766015942.2910998,55
1766015942.2921112,53
1766015942.293108,54
1766015942.294115,53
1766015942.295071,52
1766015942.296115,55
1766015942.2971,54
1766015942.298125,51
1766015942.299126,53
1766015942.300131,52
1766015942.301128,53
1766015942.302141,50
1766015942.3031292,49
1766015942.30414,52
1766015942.305137,52
1766015942.306139,51
1766015942.307141,52
1766015942.3081112,49
1766015942.309149,54
1766015942.3101702,50
1766015942.311142,50
1766015942.312167,51
1766015942.313194,47
1766015942.314162,47
1766015942.315157,50
1766015942.316152,48
1766015942.317174,49
1766015942.318175,48
1766015942.31918,49
1766015942.320172,45
1766015942.3211572,48
1766015942.322154,47
1766015942.323189,45
1766015942.32419,46
1766015942.3251998,49
1766015942.326207,47
1766015942.3271942,50
1766015942.328183,47
1766015942.329211,51
1766015942.330219,47
1766015942.331211,53
1766015942.332211,49
1766015942.333197,48
1766015942.334225,49
1766015942.3352299,50
1766015942.336212,52
1766015942.3372438,50
1766015942.338229,50
1766015942.33923,52
1766015942.340221,51
1766015942.341277,53
1766015942.342279,52
1766015942.3432488,54
1766015942.344247,51
1766015942.345217,50
1766015942.346198,50
1766015942.347234,47
1766015942.3482492,49
1766015942.349272,48
1766015942.350272,48
1766015942.351271,48
1766015942.3522549,47
1766015942.353277,49
1766015942.354262,48
1766015942.3552809,51
1766015942.3562722,50
1766015942.357279,48
1766015942.358284,48
1766015942.359263,49
1766015942.360269,48
1766015942.361226,50
1766015942.3622882,48
1766015942.363269,49
1766015942.364306,45
1766015942.365264,47
1766015942.366303,46
1766015942.367296,47
1766015942.368294,46
1766015942.369267,47
1766015942.3703082,47
1766015942.371335,48
1766015942.3723059,45
1766015942.3732748,45
1766015942.3743098,47
1766015942.375266,46
1766015942.376296,41
1766015942.3773088,46
1766015942.3782961,49
1766015942.379338,49
1766015942.380316,50
1766015942.3813078,43
1766015942.382292,46
1766015942.383323,45
1766015942.384309,48
1766015942.385355,45
1766015942.386307,47
1766015942.387344,48
1766015942.388323,45
1766015942.389367,46
1766015942.390333,46
1766015942.39134,47
1766015942.392361,46
1766015942.393381,47
1766015942.39434,47
1766015942.395372,46
1766015942.396391,48
1766015942.397372,48
1766015942.398377,45
1766015942.399382,47
1766015942.400359,46
1766015942.401397,46
1766015942.402379,47
1766015942.4033952,45
1766015942.4044,47
1766015942.4053981,43
1766015942.4063869,45
1766015942.4074152,45
1766015942.408416,50
1766015942.40941,47
1766015942.410422,51
1766015942.411417,49
1766015942.4124181,50
1766015942.4134212,50
1766015942.4144099,50
1766015942.415432,52
1766015942.4164321,52
1766015942.417427,49
1766015942.418436,49
1766015942.41944,51
1766015942.420437,50
1766015942.4214468,53
1766015942.422445,50
1766015942.423451,51
1766015942.424457,51
1766015942.425465,53
1766015942.426464,49
1766015942.4274602,51
1766015942.4284701,48
1766015942.429451,49
1766015942.43046,49
1766015942.431461,50
1766015942.4324648,48
1766015942.433486,51
1766015942.434477,48
1766015942.435491,46
1766015942.4364722,48
1766015942.43747,47
1766015942.438506,49
1766015942.439487,48
1766015942.440525,47
1766015942.441511,50
1766015942.442504,50
1766015942.4435,50
1766015942.4444952,48
1766015942.445494,48
1766015942.44652,47
1766015942.447511,48
1766015942.4485078,46
1766015942.449514,48
1766015942.450519,49
1766015942.451516,45
1766015942.452523,49
1766015942.453537,46
1766015942.454551,47
1766015942.4555352,46
1766015942.456545,48
1766015942.45755,46
1766015942.4585469,47
1766015942.4595468,45
1766015942.4605591,44
1766015942.4615638,46
1766015942.462564,46
1766015942.463568,43
1766015942.4645681,43
1766015942.4655712,41
1766015942.466569,45
1766015942.467584,44
1766015942.468572,45
1766015942.469573,47
1766015942.470577,40
1766015942.471599,44
1766015942.472597,45
1766015942.47359,45
1766015942.474595,45
1766015942.475604,45
1766015942.476589,46
1766015942.4775941,46
1766015942.478592,43
1766015942.479617,46
1766015942.480615,43
1766015942.4816,44
1766015942.482611,46
1766015942.483608,45
1766015942.484621,44
1766015942.485617,43
1766015942.486628,48
1766015942.4876359,46
1766015942.4886222,49
1766015942.4898381,51
1766015942.490633,47
1766015942.491637,48
1766015942.492644,49
1766015942.493633,49
1766015942.4946702,46
1766015942.495648,48
1766015942.496656,50
1766015942.497665,47
1766015942.49866,50
1766015942.499674,47
1766015942.50067,48
1766015942.501672,50
1766015942.502679,47
1766015942.5036852,46
1766015942.50467,45
1766015942.5056908,46
1766015942.5066829,47
1766015942.5076852,47
1766015942.508699,46
1766015942.5097039,45
1766015942.510706,47
1766015942.5117068,47
1766015942.5127108,47
1766015942.513706,44
1766015942.514692,44
1766015942.515705,46
1766015942.5167098,42
1766015942.5177112,42
1766015942.518711,44
1766015942.5197198,44
1766015942.520721,45
1766015942.521719,43
1766015942.522717,43
1766015942.523732,45
1766015942.5247302,43
1766015942.525737,44
1766015942.526737,46
1766015942.527738,43
1766015942.528739,44
1766015942.5297332,41
1766015942.5307431,40
1766015942.531745,41
1766015942.53274,41
1766015942.533769,42
1766015942.534752,44
1766015942.535753,45
1766015942.53677,41
1766015942.537767,44
1766015942.538781,45
1766015942.539777,47
1766015942.5407848,47
1766015942.541787,45
1766015942.542774,48
1766015942.543776,46
1766015942.544786,48
1766015942.5457878,43
1766015942.546796,48
1766015942.547806,45
1766015942.548844,45
1766015942.549818,43
1766015942.550818,46
1766015942.551817,42
1766015942.552819,46
1766015942.553801,43
1766015942.554806,43
1766015942.555826,43
1766015942.5568142,44
1766015942.557821,44
1766015942.5588238,44
1766015942.559826,43
1766015942.5608268,42
1766015942.56184,43
1766015942.562836,44
1766015942.5638468,43
1766015942.5648499,44
1766015942.565839,48
1766015942.5668411,46
1766015942.567935,43
1766015942.568841,41
1766015942.569854,46
1766015942.570848,46
1766015942.571936,46
1766015942.572942,46
1766015942.573942,43
1766015942.574944,44
1766015942.5759418,43
1766015942.576957,42
1766015942.577937,44
1766015942.578942,45
1766015942.579948,44
1766015942.580957,46
1766015942.5819662,46
1766015942.5829551,46
1766015942.583945,48
1766015942.584936,50
1766015942.585938,50
1766015942.5869372,48
1766015942.587947,49
1766015942.5889459,45
1766015942.589947,46
1766015942.590946,46
1766015942.591941,45
1766015942.592959,44
1766015942.593942,46
1766015942.5949419,44
1766015942.595941,45
1766015942.5969431,46
1766015942.5979362,45
1766015942.598937,48
1766015942.599942,47
1766015942.600949,46
1766015942.601946,44
1766015942.602944,45
1766015942.603955,45
1766015942.604938,45
1766015942.6059468,42
1766015942.606959,44
1766015942.60796,47
1766015942.608961,46
1766015942.609972,44
1766015942.610977,48
1766015942.611965,47
1766015942.612972,48
1766015942.6139789,47
1766015942.6149812,45
1766015942.615978,46
1766015942.616988,47
1766015942.618002,46
1766015942.619012,44
1766015942.6199832,46
1766015942.621011,44
1766015942.6220002,45
1766015942.6230001,45
1766015942.623998,46
1766015942.625012,45
1766015942.626011,45
1766015942.627007,44
1766015942.62802,43
1766015942.629025,46
1766015942.630021,43
1766015942.6310139,47
1766015942.632021,46
1766015942.633024,47
1766015942.634036,42
1766015942.635041,44
1766015942.636039,45
1766015942.637036,45
1766015942.6380448,44
1766015942.639053,43
1766015942.640049,44
1766015942.641057,41
1766015942.642058,42
1766015942.6430678,42
1766015942.644047,41
1766015942.6450639,42
1766015942.6460521,44
1766015942.6470668,42
1766015942.648077,42
1766015942.6490839,42
1766015942.650082,45
1766015942.6510751,40
1766015942.6520839,42
1766015942.6530838,44
1766015942.654081,41
1766015942.655076,40
1766015942.656102,45
1766015942.6571012,47
1766015942.6581051,49
1766015942.6590981,49
1766015942.660099,50
1766015942.661113,49
1766015942.6621,47
1766015942.663127,48
1766015942.6641128,51
1766015942.6651142,48
1766015942.666111,53
1766015942.667116,54
1766015942.6681228,52
1766015942.669122,51
1766015942.670136,56
1766015942.6711318,51
1766015942.672132,54
1766015942.67314,55
1766015942.6741471,53
1766015942.675147,54
1766015942.676151,51
1766015942.67717,49
1766015942.678143,49
1766015942.679167,50
1766015942.680172,50
1766015942.6811478,49
1766015942.682156,50
1766015942.683166,49
1766015942.684171,51
1766015942.68517,49
1766015942.686174,49
1766015942.687176,48
1766015942.688182,51
1766015942.6892002,53
1766015942.690192,51
1766015942.691204,48
1766015942.69221,48
1766015942.693187,51
1766015942.694199,49
1766015942.69521,50
1766015942.696216,53
1766015942.697217,54
1766015942.698217,50
1766015942.69921,49
1766015942.700219,49
1766015942.70122,53
1766015942.702209,49
1766015942.7032242,51
1766015942.7042198,50
1766015942.7052312,50
1766015942.706235,48
1766015942.707219,49
1766015942.708231,49
1766015942.7092228,49
1766015942.7102258,49
1766015942.711225,50
1766015942.712224,46
1766015942.7132008,46
1766015942.7142148,47
1766015942.715212,49
1766015942.7162051,45
1766015942.71721,46
1766015942.718202,42
1766015942.719203,43
1766015942.720226,44
1766015942.7212212,44
1766015942.722228,46
1766015942.723232,45
1766015942.724223,49
1766015942.725226,49
1766015942.726221,52
1766015942.727232,53
1766015942.7282329,53
1766015942.729279,54
1766015942.730288,57
1766015942.7313,55
1766015942.732291,55
1766015942.7332742,60
1766015942.734279,59
1766015942.735279,57
1766015942.7363,59
1766015942.73731,59
1766015942.738316,58
1766015942.7393029,58
1766015942.740315,54
1766015942.741334,56
1766015942.74232,56
1766015942.743326,57
1766015942.74433,54
1766015942.7453282,55
1766015942.7463412,56
1766015942.7473311,53
1766015942.7483442,55
1766015942.749362,54
1766015942.7503328,55
1766015942.7513459,53
1766015942.7523499,52
1766015942.753355,52
1766015942.7543528,54
1766015942.7553668,54
1766015942.756375,55
1766015942.75737,55
1766015942.758364,55
1766015942.759372,55
1766015942.760374,55
1766015942.7613928,53
1766015942.762387,54
1766015942.763374,57
1766015942.764383,55
1766015942.7654028,55
1766015942.7663958,56
1766015942.767387,55
1766015942.7683918,54
1766015942.769398,52
1766015942.770399,56
1766015942.7713978,57
1766015942.772397,57
1766015942.773403,54
1766015942.774417,56
1766015942.775415,56
1766015942.776427,56
1766015942.777411,54
1766015942.778409,54
1766015942.779404,56
1766015942.780426,54
