timestamp,emg_value
1766015916.866242,45
1766015916.86626,43
1766015916.866275,45
1766015916.866289,45
1766015916.866302,44
1766015916.866316,44
1766015916.8663292,43
1766015916.8663418,46
1766015916.866357,46
1766015916.866372,42
1766015916.866388,47
1766015916.866403,44
1766015916.8664188,42
1766015916.866432,41
1766015916.866445,45
1766015916.8664582,44
1766015916.8664708,45
1766015916.8664849,46
1766015916.866498,45
1766015916.866511,40
1766015916.8665228,42
1766015916.866536,43
1766015916.866549,46
1766015916.8665621,46
1766015916.866575,43
1766015916.8665879,43
1766015916.866601,43
1766015916.866614,44
1766015916.866627,44
1766015916.8666618,44
1766015916.866677,43
1766015916.866692,45
1766015916.866714,44
1766015916.866729,42
1766015916.8667421,42
1766015916.866755,44
1766015916.866768,46
1766015916.866784,43
1766015916.866797,47
1766015916.86681,47
1766015916.866824,48
1766015916.866839,49
1766015916.866852,46
1766015916.8668659,44
1766015916.866879,47
1766015916.866891,47
1766015916.866904,46
1766015916.8669171,42
1766015916.86693,42
1766015916.866945,48
1766015916.8669598,45
1766015916.866973,48
1766015916.866986,49
1766015916.8669991,47
1766015916.867019,49
1766015916.867032,49
1766015916.8670468,47
1766015916.867069,50
1766015916.8670888,47
1766015916.8671029,46
1766015916.867116,48
1766015916.867129,44
1766015916.867142,43
1766015916.867154,46
1766015916.867171,44
1766015916.867191,45
1766015916.8672042,41
1766015916.8672168,46
1766015916.86723,46
1766015916.867242,44
1766015916.867255,42
1766015916.867268,41
1766015916.867281,44
1766015916.867297,41
1766015916.86731,39
1766015916.867323,39
1766015916.867336,42
1766015916.867352,41
1766015916.8673651,40
1766015916.867378,41
1766015916.8673909,40
1766015916.867404,44
1766015916.867417,40
1766015916.86743,39
1766015916.8674428,39
1766015916.867456,36
1766015916.867469,39
1766015916.867486,38
1766015916.867499,39
1766015916.867512,37
1766015916.867525,39
1766015916.867538,39
1766015916.867551,41
1766015916.8675652,36
1766015916.867578,42
1766015916.86759,43
1766015916.8676028,47
1766015916.8676212,48
1766015916.867635,49
1766015916.867648,52
1766015916.867661,52
1766015916.867674,52
1766015916.867687,50
1766015916.867701,54
1766015916.8677142,55
1766015916.867727,52
1766015916.86774,51
1766015916.867753,52
1766015916.867766,53
1766015916.867792,56
1766015916.867805,52
1766015916.8678179,55
1766015916.867832,53
1766015916.867845,53
1766015916.867858,52
1766015916.867871,50
1766015916.867884,54
1766015916.867897,52
1766015916.86791,52
1766015916.867925,51
1766015916.867987,52
1766015916.868005,49
1766015916.8680189,51
1766015916.868035,50
1766015916.8680499,48
1766015916.868063,49
1766015916.868076,47
1766015916.8680902,45
1766015916.868103,48
1766015916.868124,48
1766015916.86814,48
1766015916.868154,48
1766015916.868167,50
1766015916.86818,48
1766015916.868193,47
1766015916.868206,49
1766015916.8682199,46
1766015916.868232,45
1766015916.868245,49
1766015916.868258,47
1766015916.868271,44
1766015916.868284,47
1766015916.8682969,44
1766015916.86831,47
1766015916.868323,47
1766015916.8683362,44
1766015916.8683488,46
1766015916.868362,43
1766015916.868375,43
1766015916.8683882,44
1766015916.8684008,43
1766015916.868414,45
1766015916.868427,44
1766015916.8684402,45
1766015916.868453,42
1766015916.8684669,46
1766015916.86848,45
1766015916.868493,43
1766015916.8685062,45
1766015916.86852,45
1766015916.868534,42
1766015916.868547,42
1766015916.868562,46
1766015916.86858,46
1766015916.868593,45
1766015916.8686059,43
1766015916.868619,48
1766015916.868632,45
1766015916.8686452,51
1766015916.8686578,48
1766015916.868671,49
1766015916.868684,51
1766015916.868696,50
1766015916.8687098,50
1766015916.868723,51
1766015916.868737,50
1766015916.8687491,51
1766015916.868762,49
1766015916.868775,47
1766015916.868788,48
1766015916.868801,50
1766015916.868814,51
1766015916.8688269,49
1766015916.86884,48
1766015916.868853,44
1766015916.868866,49
1766015916.868879,45
1766015916.868893,45
1766015916.868905,48
1766015916.868918,48
1766015916.868932,45
1766015916.868945,47
1766015916.868958,46
1766015916.868971,44
1766015916.8689861,45
1766015916.868999,45
1766015916.869018,45
1766015916.869032,46
1766015916.869045,45
1766015916.8690581,45
1766015916.869071,46
1766015916.869084,45
1766015916.869097,45
1766015916.86911,45
1766015916.869123,43
1766015916.8691359,47
1766015916.869149,46
1766015916.869162,46
1766015916.869175,44
1766015916.869188,46
1766015916.869205,46
1766015916.869219,45
1766015916.8692322,47
1766015916.8692448,48
1766015916.869258,47
1766015916.869271,47
1766015916.8692842,44
1766015916.8692968,46
1766015916.86931,47
1766015916.869323,47
1766015916.869335,45
1766015916.869348,44
1766015916.869361,45
1766015916.869374,41
1766015916.869388,44
1766015916.869401,45
1766015916.8694131,44
1766015916.869428,42
1766015916.869441,43
1766015916.869455,42
1766015916.869468,44
1766015916.8694808,44
1766015916.869494,43
1766015916.86951,42
1766015916.869525,44
1766015916.8695402,42
1766015916.8695529,42
1766015916.869566,43
1766015916.869579,40
1766015916.869592,39
1766015916.869605,39
1766015916.869618,44
1766015916.869631,40
1766015916.869645,40
1766015916.869658,38
1766015916.8696709,38
1766015916.869684,37
1766015916.869697,37
1766015916.8697112,37
1766015916.8697228,40
1766015916.869737,40
1766015916.869749,38
1766015916.869762,38
1766015916.869775,38
1766015916.869788,36
1766015916.869801,38
1766015916.869814,38
1766015916.869827,36
1766015916.8698409,38
1766015916.869856,37
1766015916.869872,36
1766015916.869885,36
1766015916.869898,36
1766015916.869911,35
1766015916.869924,34
1766015916.869937,33
1766015916.86995,35
1766015916.869963,34
1766015916.8699782,36
1766015916.8699908,38
1766015916.870005,34
1766015916.870018,34
1766015916.870031,37
1766015916.870047,34
1766015916.87006,34
1766015916.870073,36
1766015916.870086,31
1766015916.8700988,31
1766015916.870112,36
1766015916.870125,33
1766015916.8701382,34
1766015916.8701508,33
1766015916.870167,33
1766015916.8701801,32
1766015916.870193,30
1766015916.8702059,30
1766015916.870219,30
1766015916.870232,32
1766015916.8702452,32
1766015916.8702579,32
1766015916.870271,32
1766015916.870284,33
1766015916.8702998,31
1766015916.870315,31
1766015916.870328,29
1766015916.870341,30
1766015916.870354,31
1766015916.870367,29
1766015916.87038,33
1766015916.870393,31
1766015916.870406,35
1766015916.870419,31
1766015916.870434,36
1766015916.8704472,30
1766015916.870462,30
1766015916.870477,31
1766015916.87049,35
1766015916.870503,29
1766015916.870516,30
1766015916.8705301,32
1766015916.870543,31
1766015916.8705559,31
1766015916.870569,30
1766015916.870582,29
1766015916.870595,29
1766015916.8706079,32
1766015916.870621,28
1766015916.870634,28
1766015916.870647,29
1766015916.87066,30
1766015916.870673,29
1766015916.870686,30
1766015916.870699,30
1766015916.870712,29
1766015916.8707268,25
1766015916.87074,27
1766015916.870753,29
1766015916.8707662,27
1766015916.8707788,28
1766015916.870792,27
1766015916.870805,25
1766015916.870819,24
1766015916.8708322,27
1766015916.8708448,28
1766015916.870858,25
1766015916.870871,30
1766015916.8708842,26
1766015916.8708968,27
1766015916.87091,29
1766015916.870923,29
1766015916.8709362,29
1766015916.870949,27
1766015916.870961,29
1766015916.870974,27
1766015916.870987,30
1766015916.871,30
1766015916.8710132,29
1766015916.871031,31
1766015916.8710442,31
1766015916.8710568,26
1766015916.87107,28
1766015916.871083,28
1766015916.8710961,28
1766015916.87111,28
1766015916.8711228,30
1766015916.871136,29
1766015916.871149,31
1766015916.8711638,28
1766015916.871177,27
1766015916.87119,28
1766015916.871202,29
1766015916.871215,29
1766015916.871228,31
1766015916.8712409,25
1766015916.871254,27
1766015916.8712661,28
1766015916.871279,27
1766015916.8712919,29
1766015916.871305,31
1766015916.871318,29
1766015916.87133,31
1766015916.8713431,31
1766015916.871356,30
1766015916.871369,28
1766015916.871382,32
1766015916.871395,28
1766015916.8714082,29
1766015916.8714209,26
1766015916.871434,31
1766015916.871447,28
1766015916.8714602,28
1766015916.8714728,32
1766015916.871486,28
1766015916.8714979,28
1766015916.871511,27
1766015916.871524,27
1766015916.871536,28
1766015916.871549,28
1766015916.871562,30
1766015916.871576,28
1766015916.87159,27
1766015916.871603,28
1766015916.871615,27
1766015916.871628,27
1766015916.8716412,29
1766015916.871653,27
1766015916.871667,28
1766015916.871679,27
1766015916.871692,28
1766015916.871705,25
1766015916.871718,26
1766015916.871731,27
1766015916.871744,26
1766015916.871756,28
1766015916.8717692,30
1766015916.8717818,25
1766015916.871795,26
1766015916.871808,27
1766015916.8718212,24
1766015916.871834,27
1766015916.871846,24
1766015916.8718588,27
1766015916.871872,28
1766015916.871885,26
1766015916.8718982,26
1766015916.8719108,29
1766015916.871924,29
1766015916.871937,26
1766015916.8719501,27
1766015916.8719628,31
1766015916.871975,26
1766015916.871988,24
1766015916.872003,28
1766015916.872016,27
1766015916.872034,27
1766015916.8720472,27
1766015916.8720598,27
1766015916.872073,29
1766015916.872086,26
1766015916.8720992,26
1766015916.872112,26
1766015916.872125,27
1766015916.872138,27
1766015916.87215,27
1766015916.872163,28
1766015916.8721762,25
1766015916.872189,30
1766015916.872202,22
1766015916.872214,24
1766015916.872227,26
1766015916.87224,25
1766015916.872253,26
1766015916.872266,26
1766015916.872279,27
1766015916.872292,24
1766015916.872305,24
1766015916.872318,28
1766015916.872331,29
1766015916.872343,25
1766015916.8723562,24
1766015916.8723688,23
1766015916.872382,28
1766015916.872394,26
1766015916.872407,24
1766015916.872421,27
1766015916.872434,25
1766015916.872447,22
1766015916.872461,23
1766015916.872473,23
1766015916.8724859,24
1766015916.872499,24
1766015916.872511,23
1766015916.872524,26
1766015916.8725371,24
1766015916.8725498,23
1766015916.872562,22
1766015916.872575,29
1766015916.872588,23
1766015916.8726,25
1766015916.8726132,22
1766015916.8726258,23
1766015916.872639,24
1766015916.872652,25
1766015916.8726652,24
1766015916.8726778,24
1766015916.872691,22
1766015916.872704,20
1766015916.8727171,27
1766015916.872729,23
1766015916.872746,25
1766015916.872761,25
1766015916.8727748,23
1766015916.872788,23
1766015916.872801,26
1766015916.8728142,27
1766015916.8728268,27
1766015916.87284,26
1766015916.8728802,25
1766015916.872941,25
1766015916.8729558,25
1766015916.872971,25
1766015916.8729851,22
1766015916.872999,25
1766015916.873013,24
1766015916.873027,26
1766015916.873043,25
1766015916.8730571,26
1766015916.8730712,25
1766015916.8730838,24
1766015916.873098,23
1766015916.873112,26
1766015916.873125,25
1766015916.873139,25
1766015916.873153,21
1766015916.873167,27
1766015916.87318,25
1766015916.873193,25
1766015916.873207,23
1766015916.8732202,23
1766015916.873234,23
1766015916.8732522,22
1766015916.873268,28
1766015916.873282,25
1766015916.8732958,28
1766015916.873309,21
1766015916.873323,23
1766015916.873336,23
1766015916.87335,23
1766015916.873363,23
1766015916.8733802,25
1766015916.873395,27
1766015916.87341,22
1766015916.873423,24
1766015916.873436,22
1766015916.873452,25
1766015916.873465,24
1766015916.873478,25
1766015916.873492,23
1766015916.873505,25
1766015916.873518,26
1766015916.8735318,25
1766015916.873545,25
1766015916.873558,27
1766015916.873572,25
1766015916.873585,26
1766015916.873599,26
1766015916.873612,28
1766015916.873625,28
1766015916.873638,22
1766015916.873652,26
1766015916.873665,24
1766015916.873678,24
1766015916.8736918,27
1766015916.873705,25
1766015916.873718,28
1766015916.8737311,26
1766015916.873745,25
1766015916.8737578,26
1766015916.873771,24
1766015916.873784,26
1766015916.873798,24
1766015916.873811,29
1766015916.8738282,26
1766015916.873843,24
1766015916.873856,28
1766015916.8738701,23
1766015916.873884,24
1766015916.873898,26
1766015916.8739111,25
1766015916.8739269,27
1766015916.873941,22
1766015916.873954,23
1766015916.8739681,29
1766015916.873981,26
1766015916.8739939,26
1766015916.8740082,25
1766015916.874021,28
1766015916.874034,25
1766015916.874048,25
1766015916.874064,28
1766015916.8740768,26
1766015916.87409,30
1766015916.874104,27
1766015916.8741171,26
1766015916.87413,28
1766015916.874143,28
1766015916.874156,27
1766015916.87417,26
1766015916.874183,28
1766015916.874196,26
1766015916.8742101,27
1766015916.874223,26
1766015916.8742368,25
1766015916.874252,29
1766015916.874269,28
1766015916.874283,28
1766015916.8742971,28
1766015916.8743098,25
1766015916.874323,30
1766015916.874336,27
1766015916.87435,26
1766015916.874363,25
1766015916.8743758,27
1766015916.874391,27
1766015916.8744042,27
1766015916.874419,28
1766015916.8744352,26
1766015916.87445,26
1766015916.874464,27
1766015916.874479,28
1766015916.874492,27
1766015916.874505,28
1766015916.874519,28
1766015916.874532,28
1766015916.8745449,25
1766015916.874559,30
1766015916.8745751,28
1766015916.874588,29
1766015916.874602,27
1766015916.874615,28
1766015916.874628,30
1766015916.874641,28
1766015916.874654,28
1766015916.874667,27
1766015916.874681,32
1766015916.8746939,30
1766015916.874707,26
1766015916.8747241,31
1766015916.874739,29
1766015916.874752,29
1766015916.874766,29
1766015916.874778,32
1766015916.8747919,29
1766015916.874805,28
1766015916.874818,30
1766015916.8748338,30
1766015916.874847,32
1766015916.874861,30
1766015916.874877,32
1766015916.87489,31
1766015916.874903,31
1766015916.874916,33
1766015916.874929,32
1766015916.874942,33
1766015916.8749561,31
1766015916.874969,31
1766015916.87499,30
1766015916.8750038,34
1766015916.875017,32
1766015916.87503,30
1766015916.875044,34
1766015916.875058,34
1766015916.875073,30
1766015916.875086,32
1766015916.875099,32
1766015916.8751118,33
1766015916.8751261,29
1766015916.875139,30
1766015916.8751512,33
1766015916.875166,32
1766015916.87518,28
1766015916.875193,30
1766015916.875206,32
1766015916.8752189,29
1766015916.875239,30
1766015916.875252,29
1766015916.8752651,34
1766015916.875278,30
1766015916.8752909,29
1766015916.875304,30
1766015916.875317,31
1766015916.87533,28
1766015916.875343,28
1766015916.875356,33
1766015916.875369,33
1766015916.875382,32
1766015916.875395,31
1766015916.875408,31
1766015916.8754208,31
1766015916.875434,32
1766015916.875447,31
1766015916.8754601,35
1766015916.8754728,32
1766015916.875487,37
1766015916.8755,35
1766015916.875513,35
1766015916.875526,35
1766015916.8755388,33
1766015916.875552,35
1766015916.875565,34
1766015916.8755782,30
1766015916.8755999,33
1766015916.875618,33
1766015916.875633,35
1766015916.875649,32
1766015916.875663,34
1766015916.875676,34
1766015916.875689,35
1766015916.875701,34
1766015916.875715,34
1766015916.8757272,33
1766015916.8757398,33
1766015916.875753,35
1766015916.875766,37
1766015916.8757792,36
1766015916.8757918,37
1766015916.875805,35
1766015916.875818,38
1766015916.8758311,38
1766015916.875844,36
1766015916.8758569,35
1766015916.87587,35
1766015916.875882,35
1766015916.875896,40
1766015916.8759081,36
1766015916.875922,38
1766015916.875934,39
1766015916.875947,38
1766015916.87596,38
1766015916.8759732,38
1766015916.875987,36
1766015916.875998,37
1766015916.876009,38
1766015916.876021,37
1766015916.876033,37
1766015916.876052,37
1766015916.876064,39
1766015916.876075,40
1766015916.876086,36
1766015916.8760982,39
1766015916.8761091,39
1766015916.876132,34
1766015916.8761458,37
1766015916.8761642,39
1766015916.8761768,39
1766015916.876195,39
1766015916.876207,36
1766015916.876218,39
1766015916.876229,40
1766015916.876241,39
1766015916.876252,38
1766015916.8762639,37
1766015916.876275,37
1766015916.876286,37
1766015916.876297,37
1766015916.876309,39
1766015916.87632,36
1766015916.876331,40
1766015916.876343,41
1766015916.876354,41
1766015916.876365,38
1766015916.876377,39
1766015916.876388,39
1766015916.876399,36
1766015916.87641,36
1766015916.876422,37
1766015916.876433,39
1766015916.876447,40
1766015916.8764591,39
1766015916.87647,38
1766015916.876482,39
1766015916.876493,38
1766015916.8765042,43
1766015916.876516,40
1766015916.876527,38
1766015916.876538,40
1766015916.87655,44
1766015916.876561,41
1766015916.876572,42
1766015916.8765829,43
1766015916.8765938,43
1766015916.876607,42
1766015916.876618,39
1766015916.87663,40
1766015916.876641,42
1766015916.876653,40
1766015916.8766642,38
1766015916.8766751,41
1766015916.876687,39
1766015916.876698,41
1766015916.8767092,40
1766015916.8767202,39
1766015916.876731,41
1766015916.8767428,41
1766015916.8767538,41
1766015916.876765,42
1766015916.876776,42
1766015916.876787,44
1766015916.8767989,42
1766015916.876811,44
1766015916.876823,43
1766015916.8768342,45
1766015916.8768451,42
1766015916.876857,46
1766015916.876868,44
1766015916.87688,46
1766015916.876891,43
1766015916.876906,42
1766015916.876918,46
1766015916.87693,44
1766015916.876941,45
1766015916.8769522,44
1766015916.8769631,45
1766015916.876974,48
1766015916.876986,47
1766015916.876998,53
1766015916.877009,53
1766015916.87702,50
1766015916.877032,51
1766015916.877049,51
1766015916.8770611,49
1766015916.8770719,51
1766015916.8770828,51
1766015916.877095,49
1766015916.877106,47
1766015916.8771179,48
1766015916.877129,46
1766015916.87714,47
1766015916.877151,45
1766015916.877162,46
1766015916.877174,49
1766015916.877185,47
1766015916.877198,46
1766015916.8772092,48
1766015916.877221,44
1766015916.877232,45
1766015916.8772428,44
1766015916.8772538,46
1766015916.877265,43
1766015916.877277,43
1766015916.8772879,46
1766015916.8772988,45
1766015916.87731,45
1766015916.877322,44
1766015916.877333,43
1766015916.877344,41
1766015916.877355,46
1766015916.877367,45
1766015916.877378,44
1766015916.877389,46
1766015916.877401,44
1766015916.877412,43
1766015916.877423,47
1766015916.877434,49
1766015916.8774452,48
1766015916.877457,48
1766015916.8774679,49
1766015916.8774788,48
1766015916.8774898,46
1766015916.877502,47
1766015916.877513,48
1766015916.877524,47
1766015916.8775349,51
1766015916.877547,46
1766015916.8775601,49
1766015916.877573,46
1766015916.877584,47
1766015916.877595,48
1766015916.8776069,45
1766015916.8776178,47
1766015916.877629,48
1766015916.877641,45
1766015916.877652,47
1766015916.877664,43
1766015916.877675,44
1766015916.877686,47
1766015916.877698,43
1766015916.8777092,44
1766015916.87772,42
1766015916.877732,44
1766015916.877743,45
1766015916.877755,45
1766015916.877766,42
1766015916.8777769,44
1766015916.877789,41
1766015916.8778,42
1766015916.877811,43
1766015916.877822,43
1766015916.877834,44
1766015916.877847,43
1766015916.877859,44
1766015916.8778722,45
1766015916.877884,43
1766015916.8778958,43
1766015916.877907,41
1766015916.877918,40
1766015916.87793,42
1766015916.877944,42
1766015916.877957,42
1766015916.8779688,42
1766015916.87798,41
1766015916.877992,41
1766015916.878003,41
1766015916.878015,41
1766015916.878026,41
1766015916.878037,41
1766015916.8780491,40
1766015916.878062,36
1766015916.878075,42
1766015916.8780868,40
1766015916.878098,43
1766015916.878109,40
1766015916.878121,40
1766015916.8781319,38
1766015916.878143,38
1766015916.878155,38
1766015916.878166,36
1766015916.878177,39
1766015916.878189,36
1766015916.8782,36
1766015916.878211,37
1766015916.878222,39
1766015916.8782341,37
1766015916.878245,37
1766015916.878256,42
1766015916.878268,35
1766015916.878279,38
1766015916.87829,36
1766015916.878301,36
1766015916.878314,37
1766015916.878328,37
1766015916.8783412,36
1766015916.878352,37
1766015916.878363,37
1766015916.8783748,38
1766015916.878386,33
1766015916.878397,37
1766015916.878409,37
1766015916.8784199,35
1766015916.878431,35
1766015916.878443,37
1766015916.878454,37
1766015916.878465,36
1766015916.878477,35
1766015916.878488,36
1766015916.878499,39
1766015916.8785112,34
1766015916.8785222,34
1766015916.8785331,34
1766015916.8785439,34
1766015916.878556,35
1766015916.878567,32
1766015916.878578,33
1766015916.8785899,33
1766015916.878601,33
1766015916.878612,33
1766015916.878623,33
1766015916.878635,32
1766015916.878646,34
1766015916.878657,35
1766015916.878668,34
1766015916.878679,32
1766015916.878693,31
1766015916.878707,31
1766015916.878718,33
1766015916.87873,33
1766015916.878741,33
1766015916.878752,30
1766015916.878763,33
1766015916.8787751,33
1766015916.878786,30
1766015916.878797,30
1766015916.878809,31
1766015916.8788202,32
1766015916.8788311,33
1766015916.8788428,33
1766015916.8788538,29
1766015916.878865,32
1766015916.878877,31
1766015916.878888,30
1766015916.8788989,31
1766015916.878911,29
1766015916.878922,31
1766015916.878933,29
1766015916.878944,28
1766015916.878956,32
1766015916.878967,31
1766015916.878978,31
1766015916.878989,34
1766015916.8790011,33
1766015916.879019,31
1766015916.879031,30
1766015916.879043,33
1766015916.879055,31
1766015916.87907,30
1766015916.879086,32
1766015916.879097,32
1766015916.8791091,30
1766015916.8791199,30
1766015916.8791308,31
1766015916.879143,25
1766015916.879154,28
1766015916.879165,30
1766015916.8791769,28
1766015916.879188,30
1766015916.879199,31
1766015916.879211,31
1766015916.879222,30
1766015916.8792331,28
1766015916.879245,28
1766015916.879256,31
1766015916.8792691,32
1766015916.879282,29
1766015916.879294,30
1766015916.879305,29
1766015916.8793159,29
1766015916.879328,31
1766015916.8793411,28
1766015916.879352,30
1766015916.879363,30
1766015916.8793752,30
1766015916.8793862,33
1766015916.8793972,30
1766015916.8794081,29
1766015916.8794188,30
1766015916.879431,31
1766015916.879442,31
1766015916.879457,26
1766015916.87947,25
1766015916.879482,32
1766015916.8794932,30
1766015916.879504,28
1766015916.879516,29
1766015916.8795269,28
1766015916.8795378,28
1766015916.879549,29
1766015916.879561,27
1766015916.879572,29
1766015916.879583,27
1766015916.879595,30
1766015916.879606,28
1766015916.879617,28
1766015916.8796291,29
1766015916.87964,29
1766015916.879651,29
1766015916.879662,30
1766015916.8796742,27
1766015916.8796852,29
1766015916.879696,27
1766015916.8797069,27
1766015916.8797178,28
1766015916.87973,27
1766015916.879741,25
1766015916.879752,28
1766015916.879764,27
1766015916.879775,24
1766015916.879786,26
1766015916.879797,28
1766015916.8798091,23
1766015916.879824,28
1766015916.879838,27
1766015916.879851,26
1766015916.879864,26
1766015916.879874,29
1766015916.879884,28
1766015916.879894,26
1766015916.879904,27
1766015916.8799129,26
1766015916.879924,26
1766015916.8799329,24
1766015916.8799438,25
1766015916.8799539,26
1766015916.8799639,27
1766015916.879974,23
1766015916.8799858,26
1766015916.880001,26
1766015916.880013,29
1766015916.8800251,24
1766015916.8800352,25
1766015916.8800461,26
1766015916.880058,27
1766015916.880069,24
1766015916.880079,23
1766015916.880089,25
1766015916.880099,26
1766015916.880109,25
1766015916.880119,29
1766015916.880129,26
1766015916.880139,23
1766015916.880149,24
1766015916.880159,29
1766015916.880169,26
1766015916.880182,23
1766015916.880194,25
1766015916.8802052,26
1766015916.880214,26
1766015916.880224,26
1766015916.880234,26
1766015916.880244,26
1766015916.880254,25
1766015916.880264,25
1766015916.8802738,26
1766015916.8802838,29
1766015916.8802938,25
1766015916.880304,27
1766015916.880314,26
1766015916.8803232,27
1766015916.880333,22
1766015916.880343,26
1766015916.880353,25
1766015916.880363,28
1766015916.880373,25
1766015916.880383,27
1766015916.880393,26
1766015916.880403,29
1766015916.8804128,28
1766015916.8804228,24
1766015916.8804328,26
1766015916.8804429,26
1766015916.880453,25
1766015916.8804631,27
1766015916.880474,26
1766015916.880484,27
1766015916.880494,24
1766015916.880505,24
1766015916.880518,26
1766015916.880529,25
1766015916.880539,26
1766015916.8805492,26
1766015916.8805592,29
1766015916.880569,28
1766015916.880579,28
1766015916.880589,27
1766015916.880599,27
1766015916.880609,29
1766015916.880621,26
1766015916.880633,27
1766015916.880642,27
1766015916.880652,27
1766015916.880664,29
1766015916.880675,28
1766015916.8806841,27
1766015916.880695,25
1766015916.880704,26
1766015916.880715,26
1766015916.880727,28
1766015916.880737,23
1766015916.880747,27
1766015916.880757,26
1766015916.8807669,27
1766015916.880778,28
1766015916.880789,25
1766015916.880799,33
1766015916.880809,27
1766015916.8808188,27
1766015916.8808289,27
1766015916.8808389,28
1766015916.880851,26
1766015916.880861,27
1766015916.8808708,28
1766015916.8808808,24
1766015916.8808908,28
1766015916.880901,30
1766015916.880911,28
1766015916.8809211,27
1766015916.8809311,28
1766015916.8809412,28
1766015916.880951,30
1766015916.880961,27
1766015916.880971,28
1766015916.880981,25
1766015916.880991,28
1766015916.881001,29
1766015916.881011,28
1766015916.881023,27
1766015916.881033,29
1766015916.881043,27
1766015916.881053,31
1766015916.881065,28
1766015916.8810802,27
1766015916.881092,30
1766015916.881103,28
1766015916.881113,29
1766015916.881123,27
1766015916.881133,28
1766015916.881143,27
1766015916.881153,27
1766015916.8811631,31
1766015916.881173,28
1766015916.881185,28
1766015916.881197,26
1766015916.8812082,27
1766015916.88122,28
1766015916.881231,28
1766015916.8812401,28
1766015916.8812501,29
1766015916.88126,27
1766015916.88127,27
1766015916.881282,27
1766015916.881292,26
1766015916.881302,25
1766015916.881312,30
1766015916.881323,27
1766015916.8813329,25
1766015916.881343,28
1766015916.881352,30
1766015916.881362,24
1766015916.881372,28
1766015916.881382,26
1766015916.8813922,26
1766015916.881402,27
1766015916.881412,26
1766015916.881422,29
1766015916.881432,29
1766015916.881442,30
1766015916.881452,28
1766015916.881462,31
1766015916.881472,29
1766015916.881482,27
1766015916.881491,31
1766015916.881501,28
1766015916.881511,30
1766015916.881525,28
1766015916.881536,29
1766015916.881547,23
1766015916.881557,26
1766015916.881567,29
1766015916.881577,29
1766015916.8815858,24
1766015916.8815958,29
1766015916.8816059,25
1766015916.8816159,28
1766015916.8816261,28
1766015916.8816361,30
1766015916.8816462,27
1766015916.8816562,28
1766015916.881666,25
1766015916.881675,28
1766015916.881685,27
1766015916.881695,28
1766015916.881705,28
1766015916.881715,25
1766015916.8817248,27
1766015916.8817348,31
1766015916.8817449,28
1766015916.8817549,28
1766015916.8817651,26
1766015916.8817751,29
1766015916.881786,28
1766015916.8818948,31
1766015916.8819132,31
1766015916.8819258,29
1766015916.881939,28
1766015916.881951,29
1766015916.881969,29
1766015916.881984,27
1766015916.881996,29
1766015916.882009,29
1766015916.8820212,28
1766015916.8820338,28
1766015916.882046,27
1766015916.882069,27
1766015916.882081,29
1766015916.8820941,26
1766015916.8821068,27
1766015916.882126,27
1766015916.882139,29
1766015916.8821518,27
1766015916.882164,32
1766015916.882176,30
1766015916.882189,27
1766015916.8822012,28
1766015916.8822138,31
1766015916.882226,28
1766015916.882238,32
1766015916.882251,31
1766015916.882263,30
1766015916.882276,28
1766015916.882289,26
1766015916.8823009,30
1766015916.882314,29
1766015916.8823261,26
1766015916.882339,29
1766015916.882352,29
1766015916.8823638,32
1766015916.882377,27
1766015916.882389,28
1766015916.88241,29
1766015916.882423,27
1766015916.882435,30
1766015916.882448,28
1766015916.8824599,26
1766015916.882472,29
1766015916.882486,28
1766015916.882499,27
1766015916.8825111,27
1766015916.882524,28
1766015916.882536,29
1766015916.882549,29
1766015916.882561,30
1766015916.882574,31
1766015916.882586,28
1766015916.8825989,28
1766015916.882611,27
1766015916.882624,27
1766015916.882637,28
1766015916.8826492,27
1766015916.8826618,29
1766015916.882674,28
1766015916.882687,29
1766015916.882699,28
1766015916.8827121,30
1766015916.882724,28
1766015916.882737,28
1766015916.8827488,30
1766015916.882762,28
1766015916.882775,29
1766015916.882787,29
1766015916.8828,30
1766015916.882812,31
1766015916.882829,31
1766015916.882842,30
1766015916.882855,30
1766015916.8828669,27
1766015916.88288,31
1766015916.8828921,30
1766015916.882905,30
1766015916.882918,29
1766015916.882931,31
1766015916.882944,31
1766015916.882956,29
1766015916.8829691,30
1766015916.882981,31
1766015916.882994,30
1766015916.883007,29
1766015916.883019,34
1766015916.883032,32
1766015916.883044,31
1766015916.8830678,32
1766015916.883081,30
1766015916.883094,31
1766015916.883106,29
1766015916.883119,28
1766015916.8831308,29
1766015916.883144,29
1766015916.883156,29
1766015916.883169,31
1766015916.883181,29
1766015916.8831942,30
1766015916.883206,32
1766015916.883219,31
1766015916.883231,32
1766015916.883251,33
1766015916.883264,30
1766015916.8832781,31
1766015916.88329,32
1766015916.883302,29
1766015916.8833148,30
1766015916.883327,32
1766015916.8833401,30
1766015916.883352,35
1766015916.8833642,31
1766015916.8833768,30
1766015916.88339,29
1766015916.8834019,29
1766015916.883415,29
1766015916.8834271,32
1766015916.883439,31
1766015916.883452,31
1766015916.8834639,31
1766015916.883477,32
1766015916.8834891,30
1766015916.883502,28
1766015916.8835142,31
1766015916.8835268,30
1766015916.883539,30
1766015916.883552,31
1766015916.883564,32
1766015916.883577,29
1766015916.883589,31
1766015916.883602,33
1766015916.883614,30
1766015916.883627,31
1766015916.883639,31
1766015916.8836522,33
1766015916.883664,32
1766015916.8836758,29
1766015916.883689,30
1766015916.883701,33
1766015916.883714,33
1766015916.8837261,31
1766015916.883739,31
1766015916.883751,30
1766015916.883764,30
1766015916.8837771,31
1766015916.88379,32
1766015916.8838022,31
1766015916.8838148,31
1766015916.883827,31
1766015916.88384,30
1766015916.883852,30
1766015916.883865,30
1766015916.883877,30
1766015916.88389,29
1766015916.883903,30
1766015916.883915,30
1766015916.883928,29
1766015916.884008,32
1766015916.884043,26
1766015916.8841522,31
1766015916.884254,30
1766015916.884265,31
1766015916.884276,25
1766015916.884288,26
1766015916.884298,28
1766015916.88431,32
1766015916.884375,28
1766015916.884394,29
1766015916.884408,25
1766015916.88444,27
1766015916.884464,29
1766015916.884477,30
1766015916.88449,29
1766015916.8845031,28
1766015916.884516,29
1766015916.884532,28
1766015916.884545,28
1766015916.884557,27
1766015916.8845701,26
1766015916.884583,29
1766015916.8845959,27
1766015916.884609,27
1766015916.884622,28
1766015916.884635,26
1766015916.8846478,27
1766015916.884661,28
1766015916.884673,26
1766015916.884686,27
1766015916.8846989,29
1766015916.884712,28
1766015916.884724,25
1766015916.884737,26
1766015916.8847492,26
1766015916.884762,26
1766015916.884775,28
1766015916.8847868,28
1766015916.8848,27
1766015916.884813,25
1766015916.8848262,28
1766015916.8848388,26
1766015916.884851,29
1766015916.884864,26
1766015916.884877,29
1766015916.8848891,25
1766015916.884903,23
1766015916.8849149,26
1766015916.884928,28
1766015916.884941,27
1766015916.884953,24
1766015916.884966,24
1766015916.8849778,27
1766015916.884991,26
1766015916.885004,23
1766015916.885016,25
1766015916.885029,26
1766015916.885042,27
1766015916.8850539,26
1766015916.885067,26
1766015916.88508,24
1766015916.885094,26
1766015916.885107,26
1766015916.885119,27
1766015916.885132,27
1766015916.8851452,25
1766015916.885157,24
1766015916.88517,26
1766015916.8851829,28
1766015916.885195,25
1766015916.8852081,26
1766015916.885221,24
1766015916.885233,24
1766015916.885246,27
1766015916.885258,23
1766015916.885271,25
1766015916.8852842,26
1766015916.885296,26
1766015916.885309,25
1766015916.885322,26
1766015916.885334,27
1766015916.8853471,21
1766015916.885359,22
1766015916.885372,23
1766015916.8853838,28
1766015916.885397,22
1766015916.885409,27
1766015916.885422,21
1766015916.8854349,23
1766015916.885447,26
1766015916.88546,26
1766015916.885473,23
1766015916.8854852,22
1766015916.885498,28
1766015916.88551,23
1766015916.8855228,24
1766015916.885536,22
1766015916.885548,26
1766015916.885561,27
1766015916.8855739,24
1766015916.885586,27
1766015916.885599,24
1766015916.885612,28
1766015916.8856251,23
1766015916.885637,23
1766015916.88565,26
1766015916.885663,22
1766015916.8856761,23
1766015916.885689,25
1766015916.8857012,23
1766015916.8857138,26
1766015916.885727,26
1766015916.88574,20
1766015916.885752,26
1766015916.885765,24
1766015916.885777,23
1766015916.8857868,25
1766015916.885798,24
1766015916.8858082,23
1766015916.885819,23
1766015916.88583,27
1766015916.88584,24
1766015916.885851,21
1766015916.8858612,24
1766015916.8858721,24
1766015916.8858829,27
1766015916.885893,24
1766015916.8859038,21
1766015916.8859148,22
1766015916.885925,21
1766015916.885936,24
1766015916.885946,24
1766015916.885957,24
1766015916.885968,24
1766015916.8859782,21
1766015916.8859892,23
1766015916.8859992,22
1766015916.8860102,24
1766015916.8860211,26
1766015916.8860312,23
1766015916.886042,22
1766015916.8860521,24
1766015916.886063,26
1766015916.886074,25
1766015916.886086,24
1766015916.8860958,25
1766015916.886107,24
1766015916.886118,26
1766015916.8861282,23
1766015916.886139,23
1766015916.88615,25
1766015916.8861609,25
1766015916.88622,21
1766015916.886231,26
1766015916.8862422,24
1766015916.886253,22
1766015916.886264,23
1766015916.886275,26
1766015916.8863301,22
1766015916.886343,25
1766015916.886354,24
1766015916.886364,22
1766015916.886389,22
1766015916.8864,25
1766015916.886411,24
1766015916.886422,23
1766015916.8864331,27
1766015916.886444,21
1766015916.886454,22
1766015916.886465,23
1766015916.886476,22
1766015916.886486,24
1766015916.886497,24
1766015916.886507,22
1766015916.886518,23
1766015916.886529,23
1766015916.886539,21
1766015916.88655,23
1766015916.886561,24
1766015916.886571,25
1766015916.886582,27
1766015916.886592,25
1766015916.886603,22
1766015916.886614,24
1766015916.886625,25
1766015916.886635,25
1766015916.887121,23
1766015916.8881721,23
1766015916.889159,25
1766015916.890162,26
1766015916.8911638,23
1766015916.8921542,20
1766015916.8931682,20
1766015916.894173,23
1766015916.895157,25
1766015916.896176,26
1766015916.897183,23
1766015916.898176,25
1766015916.899192,23
1766015916.9001758,27
1766015916.901189,26
1766015916.902192,24
1766015916.903179,26
1766015916.904198,24
1766015916.9052212,26
1766015916.9062169,25
1766015916.907203,24
1766015916.908234,24
1766015916.909209,24
1766015916.910186,27
1766015916.9111612,25
1766015916.912189,24
1766015916.9132218,24
1766015916.914212,26
1766015916.915232,23
1766015916.916188,22
1766015916.917234,27
1766015916.9182389,26
1766015916.919243,23
1766015916.92021,22
1766015916.92121,23
1766015916.922254,27
1766015916.923202,27
1766015916.924204,24
1766015916.925247,27
1766015916.926284,28
1766015916.927209,28
1766015916.9282272,25
1766015916.9292648,26
1766015916.930254,27
1766015916.931294,29
1766015916.932304,28
1766015916.933237,30
1766015916.934283,32
1766015916.935236,31
1766015916.936244,33
1766015916.937257,32
1766015916.938277,30
1766015916.9392908,30
1766015916.940298,32
1766015916.941298,36
1766015916.942327,38
1766015916.943291,45
1766015916.9443042,49
1766015916.945274,48
1766015916.9463098,54
1766015916.94732,55
1766015916.948332,58
1766015916.949327,55
1766015916.950297,56
1766015916.951333,54
1766015916.952331,55
1766015916.95329,57
1766015916.9543061,56
1766015916.9553401,57
1766015916.956348,58
1766015916.957313,61
1766015916.958324,60
1766015916.959324,60
1766015916.960347,63
1766015916.961323,71
1766015916.9623559,81
1766015916.963331,88
1766015916.9643772,98
1766015916.965436,100
1766015916.9664378,100
1766015916.967492,100
1766015916.9684632,105
1766015916.9694788,105
1766015916.970508,108
1766015916.971483,111
1766015916.9724748,113
1766015916.973495,109
1766015916.974487,108
1766015916.975513,108
1766015916.9765,111
1766015916.977495,115
1766015916.978524,118
1766015916.9795232,124
1766015916.980501,127
1766015916.981524,122
1766015916.982526,123
1766015916.983548,121
1766015916.984538,124
1766015916.9855518,119
1766015916.9865441,121
1766015916.9875379,124
1766015916.988543,123
1766015916.989558,121
1766015916.990598,125
1766015916.9915788,123
1766015916.992573,121
1766015916.9935591,117
1766015916.994593,120
1766015916.995591,121
1766015916.9965508,120
1766015916.9975638,120
1766015916.998563,121
1766015916.9995499,117
1766015917.0005498,117
1766015917.0016289,119
1766015917.002547,123
1766015917.0035682,123
1766015917.0045629,127
1766015917.005589,130
1766015917.006579,137
1766015917.007642,136
1766015917.008629,138
1766015917.0097122,143
1766015917.010628,144
1766015917.011691,140
1766015917.0126421,141
1766015917.013622,142
1766015917.014608,145
1766015917.0156102,151
1766015917.016607,152
1766015917.0176241,156
1766015917.018595,159
1766015917.019614,162
1766015917.020603,166
1766015917.021583,168
1766015917.022589,167
1766015917.0236201,166
1766015917.024616,165
1766015917.025601,163
1766015917.026619,159
1766015917.0276139,161
1766015917.028644,161
1766015917.0296,158
1766015917.0306282,160
1766015917.0316448,159
1766015917.032608,155
1766015917.0336158,155
1766015917.034629,152
1766015917.035615,153
1766015917.036624,156
1766015917.037627,154
1766015917.03868,155
1766015917.039668,156
1766015917.04066,150
1766015917.041661,153
1766015917.042656,152
1766015917.043661,149
1766015917.044651,147
1766015917.045681,145
1766015917.0466702,144
1766015917.04768,144
1766015917.048654,140
1766015917.049668,140
1766015917.050656,135
1766015917.051659,137
1766015917.052665,133
1766015917.05366,133
1766015917.054677,133
1766015917.0556521,130
1766015917.0566678,127
1766015917.0576682,128
1766015917.058722,126
1766015917.059699,126
1766015917.060757,124
1766015917.0617359,122
1766015917.062729,122
1766015917.063702,121
1766015917.064728,123
1766015917.06582,118
1766015917.066768,117
1766015917.067745,118
1766015917.068734,119
1766015917.069721,123
1766015917.0707278,128
1766015917.07173,131
1766015917.072717,137
1766015917.073729,138
1766015917.0747032,135
1766015917.075734,138
1766015917.076737,140
1766015917.077733,137
1766015917.078763,137
1766015917.079755,137
1766015917.080749,135
1766015917.08175,134
1766015917.082748,133
1766015917.083748,132
1766015917.084747,129
1766015917.085762,130
1766015917.0867531,131
1766015917.087748,127
1766015917.0887659,127
1766015917.089765,122
1766015917.0907829,126
1766015917.091824,127
1766015917.092801,126
1766015917.093816,127
1766015917.094798,124
1766015917.095816,124
1766015917.096753,125
1766015917.0978281,127
1766015917.098774,121
1766015917.0997918,124
1766015917.100784,123
1766015917.101832,126
1766015917.102804,125
1766015917.103783,125
1766015917.10481,124
1766015917.105803,125
1766015917.106807,122
1766015917.107818,121
1766015917.108824,119
1766015917.109822,117
1766015917.110822,120
1766015917.1118,117
1766015917.112828,117
1766015917.113842,115
1766015917.114815,113
1766015917.115916,114
1766015917.116865,108
1766015917.117889,110
1766015917.118846,111
1766015917.119859,110
1766015917.120831,106
1766015917.121834,105
1766015917.122866,104
1766015917.123874,102
1766015917.1248798,104
1766015917.125854,104
1766015917.1268532,103
1766015917.12784,100
1766015917.128761,99
1766015917.129784,98
1766015917.13077,98
1766015917.1317918,96
1766015917.1327941,97
1766015917.1338081,95
1766015917.134795,95
1766015917.135818,95
1766015917.1368089,94
1766015917.1378088,94
1766015917.1388319,96
1766015917.139821,93
1766015917.140801,95
1766015917.1417952,95
1766015917.1427898,98
1766015917.1438332,96
1766015917.144802,98
1766015917.14599,100
1766015917.1469572,101
1766015917.1479669,100
1766015917.148832,98
1766015917.1498282,96
1766015917.1508749,97
1766015917.15185,98
1766015917.152852,98
1766015917.153852,96
1766015917.1548579,97
1766015917.155856,93
1766015917.156847,93
1766015917.157834,94
1766015917.158873,93
1766015917.1599529,89
1766015917.160906,94
1766015917.1618822,92
1766015917.162893,90
1766015917.1639738,91
1766015917.164879,88
1766015917.165925,90
1766015917.166868,90
1766015917.167949,89
1766015917.168958,90
1766015917.1699588,90
1766015917.170967,88
1766015917.171967,89
1766015917.172948,90
1766015917.173964,89
1766015917.174956,86
1766015917.17596,85
1766015917.176971,89
1766015917.177966,87
1766015917.178976,83
1766015917.179979,80
1766015917.180973,85
1766015917.182015,82
1766015917.183014,82
1766015917.183956,83
1766015917.184949,86
1766015917.185958,82
1766015917.186997,81
1766015917.187993,83
1766015917.188949,84
1766015917.189952,92
1766015917.190956,93
1766015917.192023,100
1766015917.193045,104
1766015917.194025,105
1766015917.195033,108
1766015917.196073,109
1766015917.197056,111
1766015917.198057,111
1766015917.199073,113
1766015917.200085,114
1766015917.2010639,112
1766015917.20208,110
1766015917.2030752,110
1766015917.204127,109
1766015917.205079,109
1766015917.20607,108
1766015917.207083,103
1766015917.208085,105
1766015917.20908,111
1766015917.2101052,108
1766015917.2110841,111
1766015917.212094,108
1766015917.213104,110
1766015917.214108,113
1766015917.215106,108
1766015917.216104,110
1766015917.2171671,109
1766015917.218118,108
1766015917.219109,107
1766015917.220115,109
1766015917.221117,106
1766015917.22212,103
1766015917.2231061,106
1766015917.224116,108
1766015917.2251148,105
1766015917.226107,106
1766015917.2271192,103
1766015917.228149,103
1766015917.2291892,101
1766015917.230162,100
1766015917.231053,99
1766015917.232147,101
1766015917.233094,97
1766015917.2341619,101
1766015917.2350678,97
1766015917.236066,96
1766015917.237082,97
1766015917.238082,93
1766015917.2390761,96
1766015917.240046,94
1766015917.2411032,95
1766015917.24208,93
1766015917.243078,93
1766015917.244096,93
1766015917.24509,91
1766015917.246089,90
1766015917.247089,89
1766015917.248092,89
1766015917.2491,91
1766015917.2501109,87
1766015917.2511091,86
1766015917.2521138,88
1766015917.253126,85
1766015917.25413,83
1766015917.255122,86
1766015917.256129,84
1766015917.25714,85
1766015917.258129,79
1766015917.2591329,80
1766015917.260135,79
1766015917.2611358,78
1766015917.262135,79
1766015917.263134,80
1766015917.264144,78
1766015917.265151,82
1766015917.266149,82
1766015917.267137,86
1766015917.268149,85
1766015917.2691379,86
1766015917.270144,85
1766015917.271151,86
1766015917.272151,85
1766015917.27316,84
1766015917.2741692,82
1766015917.275163,81
1766015917.276164,81
1766015917.277162,83
1766015917.2781692,82
1766015917.279187,80
1766015917.2802088,82
1766015917.281211,82
1766015917.282242,80
1766015917.283217,80
1766015917.284215,77
1766015917.285213,78
1766015917.286217,78
1766015917.2872121,78
1766015917.288221,76
1766015917.2892318,81
1766015917.290228,79
1766015917.291265,82
1766015917.292256,79
1766015917.293247,80
1766015917.294237,83
1766015917.295242,83
1766015917.296315,81
1766015917.29732,82
1766015917.298316,81
1766015917.2993028,85
1766015917.300288,89
1766015917.3012888,91
1766015917.302321,96
1766015917.3032901,97
1766015917.304281,99
1766015917.3053892,104
1766015917.3063731,103
1766015917.307368,101
1766015917.308382,101
1766015917.3093681,102
1766015917.310265,97
1766015917.311281,98
1766015917.31229,97
1766015917.313375,100
1766015917.314273,98
1766015917.31541,100
1766015917.316486,100
1766015917.317295,99
1766015917.318374,102
1766015917.319396,101
1766015917.320386,102
1766015917.321408,101
1766015917.3223941,104
1766015917.323426,103
1766015917.324464,100
1766015917.3254242,104
1766015917.326421,102
1766015917.327404,100
1766015917.328316,98
1766015917.329317,99
1766015917.330312,95
1766015917.331346,94
1766015917.332352,95
1766015917.333316,94
1766015917.334336,92
1766015917.3353531,91
1766015917.3363671,90
1766015917.337363,91
1766015917.338366,89
1766015917.339346,91
1766015917.3403652,89
1766015917.341377,88
1766015917.342352,85
1766015917.343369,88
1766015917.3443708,86
1766015917.345373,83
1766015917.346365,83
1766015917.347379,84
1766015917.3483672,81
1766015917.349377,80
1766015917.350389,79
1766015917.351383,80
1766015917.3524091,81
1766015917.353396,82
1766015917.354392,77
1766015917.355408,79
1766015917.356411,74
1766015917.3574111,77
1766015917.35841,77
1766015917.359416,80
1766015917.360425,78
1766015917.361424,80
1766015917.362427,78
1766015917.3634272,76
1766015917.364419,81
1766015917.365429,79
1766015917.366435,76
1766015917.367442,80
1766015917.3684402,79
1766015917.369439,77
1766015917.37045,79
1766015917.371434,75
1766015917.372459,74
1766015917.3734558,75
1766015917.374439,75
1766015917.375445,73
1766015917.3764591,71
1766015917.3774662,73
1766015917.378465,70
1766015917.3794718,71
1766015917.380476,69
1766015917.381481,72
1766015917.3824892,67
1766015917.383483,66
1766015917.38448,72
1766015917.3854878,67
1766015917.386532,65
1766015917.387486,67
1766015917.3885,65
1766015917.389502,64
1766015917.3904939,69
1766015917.391513,66
1766015917.3925061,62
1766015917.3935208,63
1766015917.394523,63
1766015917.395518,61
1766015917.3965042,61
1766015917.3975308,65
1766015917.39853,66
1766015917.399534,64
1766015917.400528,68
1766015917.401526,71
1766015917.4025338,71
1766015917.403542,71
1766015917.4045289,70
1766015917.405546,70
1766015917.406541,69
1766015917.407539,71
1766015917.408548,68
1766015917.4095528,67
1766015917.410561,68
1766015917.411548,68
1766015917.412561,69
1766015917.413562,68
1766015917.414568,71
1766015917.415583,71
1766015917.4165702,67
1766015917.417585,67
1766015917.418572,70
1766015917.419591,64
1766015917.420597,70
1766015917.421591,65
1766015917.42259,64
1766015917.4235892,64
1766015917.4245892,62
1766015917.425591,64
1766015917.426644,66
1766015917.4276102,63
1766015917.428612,63
1766015917.429609,62
1766015917.430603,62
1766015917.431624,62
1766015917.4326231,61
1766015917.433631,61
1766015917.4346318,62
1766015917.435599,65
1766015917.4366279,59
1766015917.437691,60
1766015917.438625,59
1766015917.439617,63
1766015917.440643,60
1766015917.441647,58
1766015917.44266,60
1766015917.443636,60
1766015917.444624,60
1766015917.4456441,57
1766015917.446649,59
1766015917.447655,60
1766015917.4486651,60
1766015917.449667,59
1766015917.450662,58
1766015917.451672,60
1766015917.452687,58
1766015917.453682,58
1766015917.454648,58
1766015917.4556658,58
1766015917.456673,56
1766015917.457705,59
1766015917.4586759,55
1766015917.4596858,55
1766015917.460693,57
1766015917.461696,56
1766015917.462692,55
1766015917.463692,57
1766015917.464704,53
1766015917.465708,55
1766015917.466712,56
1766015917.467713,54
1766015917.468714,54
1766015917.469697,56
1766015917.470716,59
1766015917.4717162,62
1766015917.472725,59
1766015917.473737,61
1766015917.474765,59
1766015917.4757602,61
1766015917.4767601,59
1766015917.477729,59
1766015917.478729,59
1766015917.4797509,59
1766015917.480754,60
1766015917.481726,59
1766015917.482738,60
1766015917.483745,55
1766015917.484731,60
1766015917.485752,57
1766015917.486731,56
1766015917.487772,57
1766015917.4887738,57
1766015917.4897542,57
1766015917.490761,57
1766015917.491759,58
1766015917.492776,58
1766015917.493771,57
1766015917.494764,55
1766015917.495795,55
1766015917.496788,56
1766015917.497799,55
1766015917.498781,56
1766015917.4997818,55
1766015917.500782,55
1766015917.501795,56
1766015917.502773,56
1766015917.503812,53
1766015917.5048,54
1766015917.505803,54
1766015917.5067909,55
1766015917.507819,55
1766015917.50881,54
1766015917.509818,54
1766015917.5108008,53
1766015917.511824,56
1766015917.512834,52
1766015917.5138738,52
1766015917.514844,52
1766015917.51584,53
1766015917.51684,53
1766015917.51784,53
1766015917.518836,52
1766015917.519833,53
1766015917.520853,51
1766015917.5218601,52
1766015917.522845,52
1766015917.523859,53
1766015917.524852,51
1766015917.525868,54
1766015917.526856,50
1766015917.527992,51
1766015917.52898,52
1766015917.529873,55
1766015917.5309598,50
1766015917.5318751,51
1766015917.532972,51
1766015917.533966,51
1766015917.534963,49
1766015917.535944,52
1766015917.53697,51
1766015917.5379672,51
1766015917.538965,51
1766015917.539968,50
1766015917.5409641,49
1766015917.54197,51
1766015917.542964,50
1766015917.54396,51
1766015917.5449631,50
1766015917.5459468,50
1766015917.546963,52
1766015917.5479622,52
1766015917.5489652,49
1766015917.550024,53
1766015917.551017,49
1766015917.551979,51
1766015917.5529568,53
1766015917.553963,53
1766015917.5549629,54
1766015917.555979,52
1766015917.556962,52
1766015917.5579689,53
1766015917.558964,53
1766015917.5599601,51
1766015917.560962,53
1766015917.561949,53
1766015917.5629609,54
1766015917.563966,54
1766015917.564965,55
1766015917.565967,55
1766015917.566974,52
1766015917.567984,56
1766015917.568966,53
1766015917.5699599,52
1766015917.570984,53
1766015917.5719738,53
1766015917.572992,51
1766015917.574004,50
1766015917.5749938,50
1766015917.57601,51
1766015917.5770261,51
1766015917.578004,53
1766015917.578996,51
1766015917.579993,52
1766015917.580998,48
1766015917.582017,52
1766015917.583037,48
1766015917.5840662,49
1766015917.585045,49
1766015917.5860322,51
1766015917.587028,46
1766015917.5880268,49
1766015917.589025,48
1766015917.5900118,47
1766015917.591018,48
1766015917.5920472,47
1766015917.593042,45
1766015917.594059,46
1766015917.595019,49
1766015917.596092,47
1766015917.597079,51
1766015917.598062,45
1766015917.599068,48
1766015917.60006,49
1766015917.601063,47
1766015917.6020591,45
1766015917.603041,48
1766015917.604087,45
1766015917.605054,44
1766015917.606085,44
1766015917.607127,45
1766015917.6081018,46
1766015917.609091,46
1766015917.6100721,46
1766015917.611069,47
1766015917.612084,43
1766015917.6131022,45
1766015917.614096,46
1766015917.6150799,42
1766015917.616076,45
1766015917.617082,41
1766015917.618103,45
1766015917.619105,46
1766015917.620095,46
1766015917.6211,46
1766015917.6221309,43
1766015917.623116,43
1766015917.624131,44
1766015917.6251252,40
1766015917.626132,43
1766015917.627126,43
1766015917.628153,43
1766015917.629122,42
1766015917.630146,45
1766015917.631149,45
1766015917.63216,49
1766015917.633166,48
1766015917.634175,45
1766015917.635148,51
1766015917.6361642,52
1766015917.637173,49
1766015917.638197,47
1766015917.639227,47
1766015917.6402051,50
1766015917.6412,50
1766015917.642247,47
1766015917.643248,48
1766015917.6442392,46
1766015917.6452138,52
1766015917.6462111,50
1766015917.6472,46
1766015917.648233,49
1766015917.649206,49
1766015917.650282,48
1766015917.651207,49
1766015917.6522,48
1766015917.653238,49
1766015917.654266,46
1766015917.6552699,51
1766015917.656242,49
1766015917.65727,49
1766015917.6582909,46
1766015917.659282,47
1766015917.66029,44
1766015917.661275,45
1766015917.6622741,45
1766015917.663261,46
1766015917.664274,46
1766015917.665285,48
1766015917.666314,41
1766015917.667298,44
1766015917.66832,45
1766015917.669282,44
1766015917.67032,45
1766015917.671262,45
1766015917.672333,45
1766015917.673295,41
1766015917.674346,44
1766015917.675321,42
1766015917.676343,44
1766015917.6773062,41
1766015917.678297,43
1766015917.679316,44
1766015917.680296,41
1766015917.6813052,44
1766015917.6823559,44
1766015917.683337,41
1766015917.684372,42
1766015917.6853418,40
1766015917.686313,43
1766015917.6873689,39
1766015917.688315,44
1766015917.6893399,39
1766015917.6903849,42
1766015917.691369,44
1766015917.692388,46
1766015917.693362,49
1766015917.6943848,51
1766015917.695366,51
1766015917.6964102,49
1766015917.697356,52
1766015917.698406,51
1766015917.6994119,53
1766015917.700421,49
1766015917.7013829,48
1766015917.7023659,52
1766015917.703362,52
1766015917.7044249,56
1766015917.7054322,54
1766015917.706401,56
1766015917.707409,54
1766015917.708451,56
1766015917.709399,55
1766015917.710428,57
1766015917.7113888,60
1766015917.7123961,57
1766015917.7134469,58
1766015917.714418,56
1766015917.715453,54
1766015917.716467,55
1766015917.7174652,56
1766015917.718442,56
1766015917.719454,54
1766015917.7204502,55
1766015917.721482,52
1766015917.722461,51
1766015917.723486,55
1766015917.724465,56
1766015917.725494,52
1766015917.726462,51
1766015917.727486,50
1766015917.7284648,51
1766015917.7294972,50
1766015917.730477,51
1766015917.731505,50
1766015917.7324932,49
1766015917.733484,47
1766015917.734494,49
1766015917.7355149,48
1766015917.7364779,48
1766015917.737526,47
1766015917.738492,47
1766015917.739498,46
1766015917.7405062,49
1766015917.741527,47
1766015917.742483,48
1766015917.7435288,45
1766015917.7445068,47
1766015917.745536,45
1766015917.7465222,44
1766015917.7475562,43
1766015917.748537,43
1766015917.749564,45
1766015917.750526,46
1766015917.75154,46
1766015917.752542,45
1766015917.753574,46
1766015917.754545,44
1766015917.755599,46
1766015917.756585,43
1766015917.7575822,47
1766015917.7585862,43
1766015917.759572,45
1766015917.760577,45
1766015917.7615502,44
1766015917.7625432,45
1766015917.76354,44
1766015917.764587,46
1766015917.7655602,44
1766015917.766576,45
1766015917.767583,46
1766015917.768589,47
1766015917.769602,47
1766015917.770599,45
1766015917.771606,45
1766015917.772564,47
1766015917.773578,45
1766015917.7746172,45
1766015917.7755861,44
1766015917.776612,45
1766015917.777602,42
1766015917.7786229,43
1766015917.779586,45
1766015917.78064,49
1766015917.781603,44
1766015917.782621,43
1766015917.783626,43
1766015917.78459,45
1766015917.7856069,47
1766015917.786604,44
1766015917.7876391,45
1766015917.788619,44
1766015917.789658,46
1766015917.790663,44
1766015917.7916422,43
1766015917.7926688,42
1766015917.793637,43
1766015917.79466,45
1766015917.795661,44
1766015917.79664,41
1766015917.797653,42
1766015917.798673,41
1766015917.799673,42
1766015917.800684,41
1766015917.801673,43
1766015917.802681,38
1766015917.8036978,43
1766015917.804699,41
1766015917.8056629,41
1766015917.8067148,41
1766015917.807711,39
1766015917.808697,40
1766015917.809705,40
1766015917.810714,40
1766015917.811726,43
1766015917.812706,43
1766015917.813706,39
1766015917.814708,41
1766015917.815715,41
1766015917.816722,41
1766015917.817728,42
1766015917.8187368,46
1766015917.819697,44
1766015917.820767,45
1766015917.821751,48
1766015917.822749,45
1766015917.823736,45
1766015917.824745,46
1766015917.825748,45
1766015917.8267379,48
1766015917.827759,49
1766015917.828757,47
1766015917.82976,47
1766015917.830765,48
1766015917.831748,50
1766015917.832743,49
1766015917.8337522,47
1766015917.834806,48
1766015917.835799,45
1766015917.8367429,47
1766015917.837773,43
1766015917.838743,43
1766015917.8397472,46
1766015917.840776,46
1766015917.8417962,44
1766015917.8427799,45
1766015917.843811,45
1766015917.84478,44
1766015917.845794,45
1766015917.846785,46
1766015917.847798,44
1766015917.8487868,46
1766015917.849805,42
1766015917.8508081,42
1766015917.8518028,44
1766015917.852808,43
1766015917.853853,43
1766015917.854777,42
1766015917.855788,44
1766015917.856823,43
1766015917.857826,41
1766015917.858778,43
1766015917.859821,44
1766015917.860857,45
1766015917.8617861,45
1766015917.862836,44
1766015917.863807,42
1766015917.864841,46
1766015917.865844,43
1766015917.8668349,44
