timestamp,emg_value
1766015946.5334,41
1766015946.533417,45
1766015946.533431,42
1766015946.5334442,43
1766015946.5334568,44
1766015946.53347,44
1766015946.533484,43
1766015946.533497,43
1766015946.53351,46
1766015946.5335228,47
1766015946.533535,44
1766015946.533548,44
1766015946.5335622,44
1766015946.5335748,47
1766015946.533587,43
1766015946.533601,45
1766015946.5336142,46
1766015946.5336268,43
1766015946.53364,44
1766015946.533653,45
1766015946.5336661,43
1766015946.533679,42
1766015946.533692,41
1766015946.533705,42
1766015946.533718,40
1766015946.533731,41
1766015946.533744,40
1766015946.533757,41
1766015946.533769,41
1766015946.533782,42
1766015946.533795,44
1766015946.5338082,43
1766015946.5338292,44
1766015946.5338418,42
1766015946.533855,42
1766015946.533868,37
1766015946.5338812,42
1766015946.5338938,43
1766015946.533907,41
1766015946.53392,40
1766015946.5339332,41
1766015946.533946,38
1766015946.533959,41
1766015946.533972,41
1766015946.5339851,41
1766015946.533997,38
1766015946.5340102,39
1766015946.5340228,39
1766015946.534036,39
1766015946.534048,37
1766015946.534061,39
1766015946.534074,39
1766015946.534087,41
1766015946.5341,40
1766015946.534113,38
1766015946.534126,36
1766015946.534139,38
1766015946.5341508,36
1766015946.534164,35
1766015946.534177,38
1766015946.5341902,37
1766015946.534202,36
1766015946.534215,36
1766015946.534228,36
1766015946.534244,38
1766015946.53426,34
1766015946.534273,37
1766015946.534286,39
1766015946.5342982,34
1766015946.5343108,37
1766015946.534324,38
1766015946.534337,38
1766015946.534349,37
1766015946.534362,35
1766015946.534376,37
1766015946.534389,36
1766015946.5344021,36
1766015946.5344179,37
1766015946.534431,36
1766015946.534444,38
1766015946.5344572,39
1766015946.5344698,40
1766015946.534483,40
1766015946.534496,39
1766015946.534509,37
1766015946.534522,38
1766015946.534535,39
1766015946.5345469,38
1766015946.53456,37
1766015946.534573,38
1766015946.5345862,37
1766015946.5345988,38
1766015946.534612,34
1766015946.534625,39
1766015946.5346382,37
1766015946.5346508,36
1766015946.534664,38
1766015946.5346801,33
1766015946.534693,36
1766015946.5347059,38
1766015946.534719,35
1766015946.534732,39
1766015946.534745,39
1766015946.5347579,38
1766015946.534771,36
1766015946.534784,36
1766015946.534797,34
1766015946.53481,36
1766015946.534823,37
1766015946.53484,34
1766015946.5348532,37
1766015946.5348659,35
1766015946.534879,37
1766015946.534892,35
1766015946.5349052,33
1766015946.5349178,35
1766015946.534931,31
1766015946.5349429,34
1766015946.534956,35
1766015946.534969,36
1766015946.534982,33
1766015946.534994,35
1766015946.535007,36
1766015946.53502,35
1766015946.535033,33
1766015946.5350459,35
1766015946.535059,35
1766015946.535072,33
1766015946.535085,35
1766015946.535106,34
1766015946.535119,33
1766015946.535132,35
1766015946.535145,36
1766015946.535158,34
1766015946.53517,32
1766015946.5351832,32
1766015946.5351958,32
1766015946.535209,35
1766015946.535222,33
1766015946.5352352,32
1766015946.5352478,34
1766015946.535261,34
1766015946.535274,35
1766015946.5352871,31
1766015946.5353,32
1766015946.535313,33
1766015946.535326,31
1766015946.535339,32
1766015946.535352,32
1766015946.535365,32
1766015946.535378,33
1766015946.535391,32
1766015946.535404,30
1766015946.535417,31
1766015946.53543,30
1766015946.5354419,33
1766015946.535455,32
1766015946.535468,31
1766015946.535481,30
1766015946.5354939,31
1766015946.535507,31
1766015946.535521,33
1766015946.535535,31
1766015946.535548,32
1766015946.5355608,31
1766015946.535574,28
1766015946.535587,28
1766015946.5356002,32
1766015946.5356128,33
1766015946.535626,34
1766015946.535639,31
1766015946.5356522,31
1766015946.5356648,33
1766015946.5356789,31
1766015946.535692,33
1766015946.535705,31
1766015946.535718,32
1766015946.5357308,30
1766015946.535744,32
1766015946.535757,30
1766015946.5357702,33
1766015946.5357828,35
1766015946.535796,30
1766015946.535809,33
1766015946.5358222,29
1766015946.5358348,31
1766015946.535848,31
1766015946.535861,30
1766015946.5358741,30
1766015946.535887,36
1766015946.5358999,30
1766015946.535914,32
1766015946.535927,29
1766015946.5359402,32
1766015946.535957,30
1766015946.53597,30
1766015946.535983,29
1766015946.535996,30
1766015946.536009,30
1766015946.536022,33
1766015946.536035,33
1766015946.5360482,29
1766015946.536062,30
1766015946.536074,29
1766015946.536087,29
1766015946.5361001,34
1766015946.5361128,29
1766015946.536127,31
1766015946.53614,30
1766015946.536153,27
1766015946.5361652,30
1766015946.5361779,28
1766015946.536191,30
1766015946.536204,31
1766015946.5362182,30
1766015946.5362298,31
1766015946.536243,31
1766015946.536256,29
1766015946.5362701,28
1766015946.536282,29
1766015946.536295,26
1766015946.536308,28
1766015946.536321,28
1766015946.536334,27
1766015946.536347,27
1766015946.53636,27
1766015946.536376,28
1766015946.5363898,33
1766015946.536402,32
1766015946.5364149,26
1766015946.536428,29
1766015946.536441,28
1766015946.536454,26
1766015946.536468,26
1766015946.5364811,26
1766015946.536494,25
1766015946.5365078,28
1766015946.536521,24
1766015946.536534,27
1766015946.5365472,27
1766015946.53656,27
1766015946.536573,29
1766015946.536586,28
1766015946.536599,30
1766015946.536612,29
1766015946.536625,30
1766015946.536638,28
1766015946.536651,29
1766015946.536664,26
1766015946.5366771,29
1766015946.5366888,26
1766015946.536702,23
1766015946.536715,25
1766015946.5367281,23
1766015946.536741,27
1766015946.536754,26
1766015946.536767,26
1766015946.53678,26
1766015946.536793,26
1766015946.536809,28
1766015946.536822,26
1766015946.536835,26
1766015946.5368478,27
1766015946.536861,26
1766015946.536874,26
1766015946.536886,29
1766015946.536899,27
1766015946.536912,27
1766015946.5369248,26
1766015946.536938,25
1766015946.536951,26
1766015946.5369642,24
1766015946.5369768,25
1766015946.53699,25
1766015946.537003,28
1766015946.5370162,27
1766015946.537029,25
1766015946.537042,28
1766015946.537055,27
1766015946.5370681,28
1766015946.537081,26
1766015946.5370932,27
1766015946.537106,25
1766015946.537119,26
1766015946.537132,27
1766015946.5371451,27
1766015946.5371578,25
1766015946.537171,23
1766015946.537184,28
1766015946.537197,24
1766015946.5372102,26
1766015946.537225,26
1766015946.5372381,28
1766015946.537251,25
1766015946.537264,24
1766015946.537277,27
1766015946.53729,25
1766015946.537303,26
1766015946.537316,24
1766015946.537329,28
1766015946.5373418,27
1766015946.537354,23
1766015946.537367,25
1766015946.53738,23
1766015946.5373929,24
1766015946.537406,23
1766015946.537418,26
1766015946.537431,25
1766015946.537444,24
1766015946.537458,25
1766015946.537471,27
1766015946.537484,25
1766015946.537497,23
1766015946.53751,26
1766015946.537523,25
1766015946.537536,23
1766015946.537549,23
1766015946.5375621,25
1766015946.537575,24
1766015946.537588,26
1766015946.537601,23
1766015946.537614,26
1766015946.537626,24
1766015946.537639,23
1766015946.537656,26
1766015946.5376692,23
1766015946.5376818,24
1766015946.537694,26
1766015946.537708,23
1766015946.5377212,22
1766015946.5377338,25
1766015946.537747,24
1766015946.53776,27
1766015946.537772,22
1766015946.537786,24
1766015946.537798,22
1766015946.537811,25
1766015946.537824,25
1766015946.537837,25
1766015946.5378492,27
1766015946.5378618,20
1766015946.537875,22
1766015946.537888,23
1766015946.5379012,25
1766015946.537914,23
1766015946.537927,27
1766015946.53794,23
1766015946.5379531,25
1766015946.537966,22
1766015946.5379798,23
1766015946.537992,25
1766015946.538006,26
1766015946.538018,24
1766015946.538035,24
1766015946.538048,23
1766015946.5380611,24
1766015946.538076,25
1766015946.53809,22
1766015946.538103,24
1766015946.538115,24
1766015946.538128,25
1766015946.538141,24
1766015946.538154,25
1766015946.538167,24
1766015946.5381792,26
1766015946.5381918,23
1766015946.538205,23
1766015946.538218,22
1766015946.5382311,23
1766015946.538244,26
1766015946.538256,23
1766015946.538269,22
1766015946.538282,20
1766015946.538295,22
1766015946.5383081,23
1766015946.5383208,24
1766015946.538334,25
1766015946.538347,22
1766015946.53836,25
1766015946.5383732,27
1766015946.5383859,23
1766015946.538399,25
1766015946.538412,24
1766015946.5384252,25
1766015946.5384378,23
1766015946.538451,21
1766015946.5384629,24
1766015946.538476,24
1766015946.538492,24
1766015946.538505,23
1766015946.538518,24
1766015946.538531,24
1766015946.5385442,25
1766015946.5385568,23
1766015946.538569,22
1766015946.538582,24
1766015946.538595,24
1766015946.538608,22
1766015946.538621,24
1766015946.538634,24
1766015946.538647,25
1766015946.538661,25
1766015946.5386739,20
1766015946.538687,23
1766015946.5387,21
1766015946.538713,24
1766015946.5387259,23
1766015946.538739,22
1766015946.538752,24
1766015946.538765,23
1766015946.538778,20
1766015946.53879,23
1766015946.538804,23
1766015946.538816,20
1766015946.538829,24
1766015946.5388422,26
1766015946.5388548,23
1766015946.538868,20
1766015946.538881,22
1766015946.538957,22
1766015946.539005,22
1766015946.539022,23
1766015946.5390348,21
1766015946.539049,22
1766015946.539062,23
1766015946.5390751,25
1766015946.5390878,21
1766015946.539101,23
1766015946.539114,23
1766015946.539127,23
1766015946.53914,21
1766015946.5391529,24
1766015946.539166,23
1766015946.539179,25
1766015946.539192,23
1766015946.539205,22
1766015946.539218,22
1766015946.539231,23
1766015946.5392451,22
1766015946.539258,22
1766015946.5392709,24
1766015946.539284,23
1766015946.539297,24
1766015946.53931,22
1766015946.5393229,23
1766015946.539336,23
1766015946.539349,21
1766015946.5393631,20
1766015946.539376,24
1766015946.539389,23
1766015946.539402,20
1766015946.5394151,21
1766015946.539428,21
1766015946.539447,23
1766015946.5394602,22
1766015946.539474,26
1766015946.539487,23
1766015946.539504,20
1766015946.539517,23
1766015946.539532,24
1766015946.539582,23
1766015946.539598,22
1766015946.5396118,22
1766015946.539625,22
1766015946.539638,25
1766015946.539652,22
1766015946.539665,24
1766015946.5396779,22
1766015946.539691,24
1766015946.539704,23
1766015946.5397172,22
1766015946.539731,22
1766015946.539744,22
1766015946.539757,20
1766015946.5397701,26
1766015946.539783,20
1766015946.5397959,23
1766015946.53981,21
1766015946.539823,22
1766015946.539836,21
1766015946.539849,21
1766015946.539862,24
1766015946.539875,22
1766015946.5398881,23
1766015946.539901,21
1766015946.5399182,24
1766015946.539932,24
1766015946.539945,21
1766015946.539958,23
1766015946.539971,20
1766015946.539985,20
1766015946.539998,23
1766015946.540011,21
1766015946.540024,24
1766015946.5400372,20
1766015946.540051,23
1766015946.540064,24
1766015946.540077,23
1766015946.54009,24
1766015946.540104,23
1766015946.540117,23
1766015946.5401301,19
1766015946.540141,21
1766015946.540153,24
1766015946.540164,23
1766015946.540176,22
1766015946.540187,20
1766015946.5401988,22
1766015946.54021,20
1766015946.540222,22
1766015946.540234,25
1766015946.540245,22
1766015946.540257,23
1766015946.540268,24
1766015946.5402792,22
1766015946.540291,20
1766015946.540302,22
1766015946.540313,20
1766015946.540328,23
1766015946.54034,27
1766015946.540351,27
1766015946.5403662,25
1766015946.5403771,22
1766015946.540389,26
1766015946.5404,26
1766015946.540411,22
1766015946.540423,24
1766015946.540434,25
1766015946.5404449,26
1766015946.540457,27
1766015946.540468,27
1766015946.540479,27
1766015946.540491,25
1766015946.540502,25
1766015946.540513,30
1766015946.540525,28
1766015946.5405362,29
1766015946.5405471,29
1766015946.540558,28
1766015946.540569,30
1766015946.5405812,30
1766015946.5405922,27
1766015946.540603,32
1766015946.540614,30
1766015946.5406249,31
1766015946.540637,31
1766015946.540648,29
1766015946.540659,29
1766015946.54067,31
1766015946.540682,30
1766015946.540695,31
1766015946.540709,31
1766015946.5407202,31
1766015946.540731,29
1766015946.540745,28
1766015946.540756,30
1766015946.540768,28
1766015946.540779,30
1766015946.540791,30
1766015946.540802,27
1766015946.5408142,31
1766015946.5408251,31
1766015946.540837,29
1766015946.540848,28
1766015946.540859,30
1766015946.54087,31
1766015946.5408819,32
1766015946.5408928,33
1766015946.540905,32
1766015946.540916,32
1766015946.540927,34
1766015946.540938,38
1766015946.54095,37
1766015946.540961,34
1766015946.540973,34
1766015946.5409842,36
1766015946.5409951,38
1766015946.541006,36
1766015946.541017,33
1766015946.541028,39
1766015946.5410402,35
1766015946.541051,35
1766015946.5410628,37
1766015946.541077,39
1766015946.541091,37
1766015946.5411022,36
1766015946.5411131,35
1766015946.541125,37
1766015946.5411358,35
1766015946.541147,35
1766015946.541159,36
1766015946.54117,36
1766015946.5411808,35
1766015946.541193,38
1766015946.541205,40
1766015946.541216,39
1766015946.541228,41
1766015946.541239,37
1766015946.54125,41
1766015946.541261,39
1766015946.541273,40
1766015946.541284,39
1766015946.541295,41
1766015946.541306,39
1766015946.541318,37
1766015946.541329,40
1766015946.5413408,38
1766015946.541352,37
1766015946.541363,38
1766015946.541375,39
1766015946.541386,37
1766015946.541397,38
1766015946.541408,37
1766015946.541419,38
1766015946.541431,39
1766015946.541443,37
1766015946.541457,37
1766015946.54147,38
1766015946.541481,38
1766015946.541492,36
1766015946.541504,37
1766015946.541515,36
1766015946.541526,37
1766015946.541537,35
1766015946.541548,38
1766015946.541562,36
1766015946.541574,37
1766015946.541585,35
1766015946.541597,42
1766015946.5416079,41
1766015946.541619,40
1766015946.54163,41
1766015946.541642,38
1766015946.541653,40
1766015946.541665,40
1766015946.541676,39
1766015946.541687,40
1766015946.5416992,39
1766015946.5417101,39
1766015946.541721,42
1766015946.541733,39
1766015946.5417442,42
1766015946.5417569,39
1766015946.541769,41
1766015946.54178,42
1766015946.541791,39
1766015946.5418031,42
1766015946.541814,40
1766015946.541829,40
1766015946.541842,40
1766015946.541853,38
1766015946.5418649,37
1766015946.541876,40
1766015946.541887,39
1766015946.541898,39
1766015946.54191,40
1766015946.5419211,37
1766015946.541932,38
1766015946.541943,39
1766015946.541954,41
1766015946.541966,37
1766015946.5419772,42
1766015946.5419881,39
1766015946.542001,40
1766015946.542012,39
1766015946.542024,40
1766015946.5420349,41
1766015946.542047,39
1766015946.542058,41
1766015946.542069,38
1766015946.54208,38
1766015946.542092,38
1766015946.542103,39
1766015946.5421162,38
1766015946.5421271,39
1766015946.542138,41
1766015946.542149,36
1766015946.542161,40
1766015946.542172,39
1766015946.542183,39
1766015946.542196,39
1766015946.542208,40
1766015946.542219,40
1766015946.542231,40
1766015946.542242,38
1766015946.542253,40
1766015946.542264,37
1766015946.542277,40
1766015946.5422888,36
1766015946.5423,38
1766015946.542311,39
1766015946.5423229,41
1766015946.5423338,41
1766015946.542345,41
1766015946.542356,38
1766015946.542368,41
1766015946.542381,38
1766015946.542393,38
1766015946.5424042,40
1766015946.5424159,40
1766015946.5424268,42
1766015946.5424378,44
1766015946.54245,44
1766015946.5424619,48
1766015946.542473,45
1766015946.542484,42
1766015946.542495,43
1766015946.542507,48
1766015946.542518,47
1766015946.542529,49
1766015946.54254,48
1766015946.542552,46
1766015946.542563,47
1766015946.5425768,48
1766015946.542591,49
1766015946.542602,50
1766015946.542614,47
1766015946.542625,46
1766015946.542636,48
1766015946.5426471,48
1766015946.542658,47
1766015946.542669,46
1766015946.54268,49
1766015946.5426922,46
1766015946.5427032,45
1766015946.542714,45
1766015946.542725,43
1766015946.5427358,49
1766015946.5427468,45
1766015946.54276,45
1766015946.542772,45
1766015946.542783,46
1766015946.542794,44
1766015946.542805,43
1766015946.542816,42
1766015946.542827,48
1766015946.542839,42
1766015946.54285,43
1766015946.542861,45
1766015946.542872,45
1766015946.5428832,43
1766015946.5428941,42
1766015946.542905,43
1766015946.542917,41
1766015946.542928,42
1766015946.54294,40
1766015946.542954,40
1766015946.542967,40
1766015946.542978,41
1766015946.5429912,43
1766015946.5430028,40
1766015946.5430138,38
1766015946.5430248,41
1766015946.543037,41
1766015946.543048,42
1766015946.54306,45
1766015946.543071,42
1766015946.543082,44
1766015946.543093,45
1766015946.543104,41
1766015946.543116,42
1766015946.543128,44
1766015946.543139,44
1766015946.5431511,43
1766015946.543162,41
1766015946.543173,43
1766015946.543185,41
1766015946.543196,40
1766015946.543208,42
1766015946.5432189,41
1766015946.54323,41
1766015946.543242,40
1766015946.543253,41
1766015946.543264,39
1766015946.543276,43
1766015946.543294,41
1766015946.543305,39
1766015946.543317,43
1766015946.54333,42
1766015946.543342,40
1766015946.543353,39
1766015946.543364,39
1766015946.543376,41
1766015946.543387,39
1766015946.5433989,39
1766015946.543412,39
1766015946.543423,38
1766015946.543434,41
1766015946.543445,40
1766015946.543457,38
1766015946.543468,39
1766015946.543479,40
1766015946.54349,43
1766015946.543502,39
1766015946.543515,40
1766015946.543526,38
1766015946.5435379,38
1766015946.5435488,38
1766015946.54356,40
1766015946.543572,39
1766015946.543583,37
1766015946.543595,34
1766015946.543606,35
1766015946.543618,37
1766015946.5436292,38
1766015946.5436401,37
1766015946.543651,37
1766015946.543663,39
1766015946.5436742,37
1766015946.5436852,35
1766015946.543696,39
1766015946.543711,36
1766015946.543724,36
1766015946.543735,36
1766015946.543749,37
1766015946.5437598,35
1766015946.5437708,36
1766015946.543783,39
1766015946.543794,38
1766015946.5438058,36
1766015946.543817,35
1766015946.543829,37
1766015946.54384,37
1766015946.543851,35
1766015946.543863,35
1766015946.543874,36
1766015946.543885,36
1766015946.5438972,36
1766015946.543908,35
1766015946.543919,39
1766015946.54393,34
1766015946.543941,37
1766015946.543953,36
1766015946.543966,35
1766015946.543977,38
1766015946.543988,35
1766015946.544,37
1766015946.544011,36
1766015946.544023,36
1766015946.544034,34
1766015946.544045,34
1766015946.5440562,36
1766015946.544068,34
1766015946.544081,37
1766015946.544091,38
1766015946.5441012,36
1766015946.544111,38
1766015946.544123,36
1766015946.5441332,34
1766015946.5441432,36
1766015946.544153,37
1766015946.544163,35
1766015946.544173,32
1766015946.544183,35
1766015946.544193,34
1766015946.544203,34
1766015946.544213,36
1766015946.544223,36
1766015946.5442328,36
1766015946.5442429,35
1766015946.544252,36
1766015946.5442638,36
1766015946.544276,36
1766015946.544286,35
1766015946.544296,35
1766015946.5443058,31
1766015946.5443158,35
1766015946.5443258,34
1766015946.5443358,33
1766015946.544346,37
1766015946.544356,35
1766015946.5443661,32
1766015946.5443761,33
1766015946.5443861,33
1766015946.544396,38
1766015946.544406,33
1766015946.544419,30
1766015946.5444322,35
1766015946.544443,33
1766015946.5444548,33
1766015946.5444648,31
1766015946.5444748,33
1766015946.544485,31
1766015946.544495,30
1766015946.5445051,33
1766015946.5445151,31
1766015946.544526,31
1766015946.544537,32
1766015946.544547,32
1766015946.544557,30
1766015946.544567,34
1766015946.5445771,33
1766015946.544587,33
1766015946.544597,31
1766015946.544607,32
1766015946.544617,31
1766015946.544627,30
1766015946.544637,32
1766015946.544647,30
1766015946.5446558,32
1766015946.544666,31
1766015946.544676,31
1766015946.544686,28
1766015946.544696,30
1766015946.544706,33
1766015946.5447161,32
1766015946.5447261,30
1766015946.544738,30
1766015946.54475,29
1766015946.54476,29
1766015946.544771,30
1766015946.54478,29
1766015946.54479,31
1766015946.544801,29
1766015946.5448132,30
1766015946.544823,29
1766015946.544833,28
1766015946.544843,31
1766015946.544853,29
1766015946.544863,27
1766015946.544873,30
1766015946.544883,28
1766015946.544893,27
1766015946.544904,28
1766015946.544914,28
1766015946.544924,29
1766015946.5449338,27
1766015946.544944,30
1766015946.544954,29
1766015946.544964,27
1766015946.544974,29
1766015946.544984,28
1766015946.544994,29
1766015946.5450041,27
1766015946.545015,28
1766015946.545024,28
1766015946.545034,29
1766015946.545044,31
1766015946.545054,27
1766015946.545064,28
1766015946.545074,28
1766015946.545088,29
1766015946.5451,30
1766015946.54511,28
1766015946.54512,25
1766015946.54513,27
1766015946.5451388,27
1766015946.5451488,26
1766015946.5451589,30
1766015946.5451689,29
1766015946.545179,28
1766015946.5451891,26
1766015946.5451992,27
1766015946.5452092,26
1766015946.5452192,27
1766015946.545229,27
1766015946.545239,27
1766015946.545249,26
1766015946.545259,26
1766015946.545269,26
1766015946.54528,27
1766015946.54529,30
1766015946.5453,26
1766015946.54531,25
1766015946.54532,24
1766015946.5453298,28
1766015946.5453398,24
1766015946.5453498,28
1766015946.5453591,27
1766015946.5453691,26
1766015946.54538,27
1766015946.545391,25
1766015946.545401,25
1766015946.545414,24
1766015946.5454268,23
1766015946.545438,25
1766015946.5454478,27
1766015946.545457,23
1766015946.545467,27
1766015946.5454772,24
1766015946.5454872,24
1766015946.5454972,28
1766015946.545507,24
1766015946.545517,24
1766015946.545527,25
1766015946.545537,26
1766015946.545547,21
1766015946.545557,25
1766015946.545567,24
1766015946.545577,28
1766015946.545587,27
1766015946.5455968,25
1766015946.5456069,23
1766015946.5456169,26
1766015946.5456269,27
1766015946.5456371,25
1766015946.5456471,23
1766015946.5456572,26
1766015946.5456672,24
1766015946.545677,27
1766015946.545687,25
1766015946.545697,24
1766015946.545707,25
1766015946.545718,22
1766015946.545728,23
1766015946.545738,24
1766015946.545751,25
1766015946.545762,24
1766015946.545772,25
1766015946.545782,25
1766015946.545792,22
1766015946.5458019,23
1766015946.545812,23
1766015946.545822,24
1766015946.545832,24
1766015946.545842,21
1766015946.545852,26
1766015946.545862,25
1766015946.545872,25
1766015946.5458822,23
1766015946.545892,26
1766015946.545902,22
1766015946.545912,26
1766015946.545922,25
1766015946.545932,23
1766015946.545944,25
1766015946.545954,25
1766015946.545964,24
1766015946.545974,26
1766015946.545984,23
1766015946.5460749,25
1766015946.546093,26
1766015946.5461068,25
1766015946.54612,23
1766015946.546133,22
1766015946.5461462,24
1766015946.546159,24
1766015946.546172,22
1766015946.546188,20
1766015946.546203,22
1766015946.546216,24
1766015946.546229,20
1766015946.546242,23
1766015946.546255,22
1766015946.546268,23
1766015946.5462809,21
1766015946.546293,23
1766015946.5463061,21
1766015946.546319,24
1766015946.546331,22
1766015946.546344,25
1766015946.546357,22
1766015946.546369,23
1766015946.546477,24
1766015946.5464902,22
1766015946.5465229,24
1766015946.5466392,22
1766015946.546718,23
1766015946.546765,23
1766015946.546797,26
1766015946.5468102,25
1766015946.5468218,26
1766015946.5468328,24
1766015946.546844,25
1766015946.546876,28
1766015946.546965,22
1766015946.5469801,22
1766015946.5469928,24
1766015946.547006,25
1766015946.547019,21
1766015946.547031,24
1766015946.547049,24
1766015946.547062,25
1766015946.547075,21
1766015946.547088,24
1766015946.547101,25
1766015946.547114,25
1766015946.547126,24
1766015946.5471392,27
1766015946.5471518,26
1766015946.547165,24
1766015946.547178,25
1766015946.54719,25
1766015946.547203,22
1766015946.547216,22
1766015946.5472288,25
1766015946.547242,23
1766015946.547255,26
1766015946.547267,24
1766015946.5472798,24
1766015946.547293,24
1766015946.547306,22
1766015946.547319,26
1766015946.547332,25
1766015946.547344,25
1766015946.5473568,26
1766015946.54737,23
1766015946.547383,22
1766015946.5473962,24
1766015946.5474088,27
1766015946.547421,25
1766015946.5474381,26
1766015946.5474508,27
1766015946.547464,24
1766015946.547482,22
1766015946.547495,26
1766015946.547508,24
1766015946.54752,23
1766015946.547533,26
1766015946.5475461,25
1766015946.547559,26
1766015946.547572,23
1766015946.547585,25
1766015946.5475972,23
1766015946.54761,24
1766015946.547623,23
1766015946.547636,25
1766015946.547649,25
1766015946.547662,24
1766015946.5476742,23
1766015946.5476868,23
1766015946.547701,26
1766015946.5477152,24
1766015946.5477278,27
1766015946.547741,25
1766015946.547754,22
1766015946.547768,25
1766015946.54778,26
1766015946.5477939,22
1766015946.547806,25
1766015946.547819,24
1766015946.547832,25
1766015946.5478451,19
1766015946.5478568,25
1766015946.54787,24
1766015946.547883,24
1766015946.547895,23
1766015946.547908,23
1766015946.547921,24
1766015946.547934,26
1766015946.547946,21
1766015946.54796,23
1766015946.5479722,24
1766015946.547986,25
1766015946.547998,24
1766015946.548011,25
1766015946.5480242,22
1766015946.548037,27
1766015946.54805,24
1766015946.5480618,27
1766015946.548075,27
1766015946.548088,24
1766015946.5481,23
1766015946.5481129,26
1766015946.548126,23
1766015946.548139,25
1766015946.548152,24
1766015946.548165,22
1766015946.548178,24
1766015946.5481899,24
1766015946.548203,24
1766015946.548216,25
1766015946.5482292,23
1766015946.5482419,22
1766015946.548256,24
1766015946.548269,27
1766015946.5482829,25
1766015946.548296,22
1766015946.548309,23
1766015946.5483232,25
1766015946.548338,25
1766015946.548351,24
1766015946.548365,25
1766015946.548379,26
1766015946.548393,24
1766015946.5484061,28
1766015946.5484211,26
1766015946.548434,26
1766015946.548447,24
1766015946.548461,24
1766015946.5484748,24
1766015946.5484889,26
1766015946.548502,25
1766015946.548515,26
1766015946.548529,25
1766015946.548543,23
1766015946.548556,24
1766015946.5485692,22
1766015946.5485818,26
1766015946.548594,27
1766015946.5486069,25
1766015946.54862,25
1766015946.548633,26
1766015946.548646,24
1766015946.5486588,21
1766015946.548672,27
1766015946.548685,26
1766015946.5486982,23
1766015946.5487099,26
1766015946.548723,25
1766015946.548736,21
1766015946.548749,23
1766015946.548762,26
1766015946.548775,24
1766015946.5487869,24
1766015946.5488,21
1766015946.548815,26
1766015946.548828,26
1766015946.548841,25
1766015946.548853,25
1766015946.548866,24
1766015946.5488791,25
1766015946.548892,28
1766015946.548905,23
1766015946.548917,26
1766015946.54893,24
1766015946.548943,24
1766015946.548956,24
1766015946.548969,25
1766015946.548982,22
1766015946.548995,21
1766015946.5490072,26
1766015946.5490198,25
1766015946.549033,27
1766015946.549046,25
1766015946.5490592,26
1766015946.5490718,24
1766015946.549084,26
1766015946.549097,26
1766015946.54911,23
1766015946.549123,25
1766015946.5491352,21
1766015946.5491478,21
1766015946.549161,24
1766015946.549175,22
1766015946.5491872,26
1766015946.5491998,25
1766015946.549213,22
1766015946.549226,25
1766015946.5492392,25
1766015946.549252,25
1766015946.549264,23
1766015946.5492768,25
1766015946.54929,26
1766015946.549303,25
1766015946.5493162,25
1766015946.54933,26
1766015946.549342,24
1766015946.549356,22
1766015946.5493681,24
1766015946.549381,24
1766015946.549394,25
1766015946.549407,24
1766015946.54942,22
1766015946.549433,24
1766015946.5494459,26
1766015946.549459,27
1766015946.549472,23
1766015946.549485,23
1766015946.549498,25
1766015946.54951,24
1766015946.5495229,26
1766015946.549536,21
1766015946.549549,23
1766015946.549563,26
1766015946.5495749,22
1766015946.549588,23
1766015946.549601,23
1766015946.5496142,24
1766015946.549628,23
1766015946.54964,24
1766015946.549653,23
1766015946.5496662,23
1766015946.549679,23
1766015946.549692,25
1766015946.549705,22
1766015946.549718,23
1766015946.5497322,23
1766015946.549746,23
1766015946.549758,24
1766015946.549772,21
1766015946.5497851,25
1766015946.5497978,23
1766015946.549811,23
1766015946.549824,24
1766015946.549837,23
1766015946.5498502,20
1766015946.5498629,23
1766015946.549875,22
1766015946.549886,26
1766015946.549897,26
1766015946.549908,24
1766015946.549919,25
1766015946.54993,20
1766015946.549941,25
1766015946.549951,25
1766015946.549962,25
1766015946.549973,24
1766015946.549984,23
1766015946.549995,26
1766015946.550006,25
1766015946.550017,23
1766015946.550028,23
1766015946.55004,25
1766015946.55005,26
1766015946.550061,23
1766015946.550072,24
1766015946.550082,24
1766015946.5500932,27
1766015946.5501041,22
1766015946.550115,23
1766015946.550126,25
1766015946.550136,24
1766015946.550147,24
1766015946.550158,22
1766015946.550169,22
1766015946.550179,25
1766015946.55019,22
1766015946.5502012,22
1766015946.5502121,23
1766015946.5502222,27
1766015946.5502331,23
1766015946.550244,27
1766015946.550254,22
1766015946.550265,21
1766015946.550276,26
1766015946.550287,26
1766015946.550297,25
1766015946.5503092,23
1766015946.5503192,25
1766015946.5503302,28
1766015946.5503411,24
1766015946.5503519,24
1766015946.5503628,24
1766015946.550373,26
1766015946.550384,22
1766015946.550394,24
1766015946.5509388,23
1766015946.551924,25
1766015946.5529249,22
1766015946.553922,25
1766015946.554956,23
1766015946.555855,25
1766015946.5569391,23
1766015946.557931,24
1766015946.558943,23
1766015946.559946,23
1766015946.560935,26
1766015946.5619268,25
1766015946.562931,21
1766015946.563927,24
1766015946.564935,23
1766015946.565944,24
1766015946.566945,23
1766015946.5679538,22
1766015946.568935,22
1766015946.569932,24
1766015946.570935,23
1766015946.571939,23
1766015946.5729349,22
1766015946.573929,24
1766015946.5749812,25
1766015946.5759418,21
1766015946.576936,23
1766015946.577937,23
1766015946.578946,24
1766015946.5799549,23
1766015946.58091,24
1766015946.5819168,23
1766015946.582937,27
1766015946.583937,24
1766015946.5849228,25
1766015946.585922,24
1766015946.586997,24
1766015946.587976,25
1766015946.5889652,23
1766015946.590014,24
1766015946.590967,22
1766015946.5919738,21
1766015946.592988,26
1766015946.5939178,23
1766015946.5949922,22
1766015946.595986,24
1766015946.596983,25
1766015946.597964,20
1766015946.5989351,21
1766015946.599964,23
1766015946.600951,25
1766015946.60196,25
1766015946.6030028,24
1766015946.6039848,21
1766015946.605006,21
1766015946.606024,24
1766015946.606966,21
1766015946.608017,26
1766015946.6089642,23
1766015946.610006,25
1766015946.610976,23
1766015946.6120121,24
1766015946.613041,26
1766015946.614036,24
1766015946.615028,28
1766015946.616033,24
1766015946.6170309,27
1766015946.618027,24
1766015946.618986,29
1766015946.6200168,24
1766015946.6210518,26
1766015946.6220531,27
1766015946.6230521,26
1766015946.624063,25
1766015946.6250648,28
1766015946.6260622,28
1766015946.6270359,26
1766015946.628033,31
1766015946.629073,29
1766015946.630071,33
1766015946.631108,36
1766015946.632088,34
1766015946.6331232,35
1766015946.6341052,35
1766015946.6351008,32
1766015946.636079,36
1766015946.6370869,35
1766015946.638102,35
1766015946.6391108,35
1766015946.6401348,34
1766015946.641116,35
1766015946.642111,33
1766015946.643115,35
1766015946.6441321,34
1766015946.645188,35
1766015946.646158,34
1766015946.6471481,34
1766015946.648132,36
1766015946.649139,34
1766015946.650141,32
1766015946.651145,33
1766015946.652123,41
1766015946.653141,46
1766015946.654161,53
1766015946.65512,58
1766015946.656173,66
1766015946.657176,71
1766015946.658178,71
1766015946.659165,73
1766015946.660164,75
1766015946.6611688,77
1766015946.6621902,77
1766015946.6631749,72
1766015946.664188,75
1766015946.665211,72
1766015946.6662002,74
1766015946.667212,76
1766015946.668173,75
1766015946.669208,73
1766015946.670194,76
1766015946.671191,77
1766015946.672178,74
1766015946.673205,76
1766015946.6742132,73
1766015946.675207,75
1766015946.676231,72
1766015946.677223,76
1766015946.678218,73
1766015946.67924,75
1766015946.680253,82
1766015946.6812449,85
1766015946.682234,88
1766015946.683234,91
1766015946.684244,94
1766015946.685247,98
1766015946.686343,100
1766015946.687347,105
1766015946.688339,107
1766015946.6893451,111
1766015946.690371,112
1766015946.69136,109
1766015946.6923678,114
1766015946.693363,112
1766015946.694369,112
1766015946.695389,111
1766015946.696369,111
1766015946.6973598,109
1766015946.698376,111
1766015946.69936,114
1766015946.7003782,117
1766015946.701379,119
1766015946.702375,120
1766015946.703375,124
1766015946.704381,121
1766015946.705377,123
1766015946.706388,120
1766015946.707386,119
1766015946.708409,120
1766015946.709408,119
1766015946.710408,119
1766015946.711422,120
1766015946.712409,122
1766015946.7134101,117
1766015946.714439,119
1766015946.715434,117
1766015946.7164428,117
1766015946.7174091,116
1766015946.7184289,115
1766015946.719457,115
1766015946.7204359,111
1766015946.721411,109
1766015946.722464,108
1766015946.723444,107
1766015946.72444,105
1766015946.7254558,105
1766015946.726461,104
1766015946.7274728,105
1766015946.72843,102
1766015946.729462,102
1766015946.73045,100
1766015946.731463,100
1766015946.732459,100
1766015946.733354,98
1766015946.7344599,100
1766015946.735384,97
1766015946.736393,96
1766015946.737372,95
1766015946.7383838,94
1766015946.7393842,93
1766015946.7403798,91
1766015946.7413828,92
1766015946.742424,92
1766015946.743419,90
1766015946.744406,90
1766015946.745408,90
1766015946.7464051,90
1766015946.747414,89
1766015946.748419,91
1766015946.749439,89
1766015946.750431,93
1766015946.751425,92
1766015946.752424,92
1766015946.753438,93
1766015946.7544289,95
1766015946.75543,91
1766015946.756434,92
1766015946.7574558,91
1766015946.758443,93
1766015946.7594519,94
1766015946.7604659,96
1766015946.761546,101
1766015946.7625651,109
1766015946.7635531,119
1766015946.764553,130
1766015946.765551,131
1766015946.766565,137
1766015946.7675571,138
1766015946.7685702,137
1766015946.769583,141
1766015946.770598,142
1766015946.771553,144
1766015946.772573,142
1766015946.773586,143
1766015946.774581,143
1766015946.7755551,141
1766015946.776567,142
1766015946.777569,142
1766015946.778571,143
1766015946.7795541,140
1766015946.780586,138
1766015946.7815669,137
1766015946.782559,137
1766015946.783581,134
1766015946.784582,133
1766015946.7855859,128
1766015946.7865741,130
1766015946.787603,129
1766015946.7885902,127
1766015946.78958,125
1766015946.79059,123
1766015946.79159,125
1766015946.792605,121
1766015946.7935832,121
1766015946.794594,120
1766015946.795628,119
1766015946.796597,117
1766015946.797589,118
1766015946.7986612,115
1766015946.799637,111
1766015946.8006349,110
1766015946.8016498,112
1766015946.802687,113
1766015946.803628,110
1766015946.804641,107
1766015946.8056262,108
1766015946.806648,106
1766015946.8076391,105
1766015946.808653,105
1766015946.809647,101
1766015946.8106492,102
1766015946.81166,103
1766015946.812642,100
1766015946.813657,101
1766015946.8145611,98
1766015946.815558,96
1766015946.816585,97
1766015946.817568,95
1766015946.81855,97
1766015946.8195798,99
1766015946.8205922,97
1766015946.8215969,95
1766015946.822647,95
1766015946.8236291,92
1766015946.824617,94
1766015946.8256798,92
1766015946.826752,94
1766015946.827648,94
1766015946.828659,92
1766015946.829637,90
1766015946.830613,89
1766015946.831648,89
1766015946.832622,89
1766015946.833625,87
1766015946.8346329,90
1766015946.835648,86
1766015946.8366468,87
1766015946.837628,88
1766015946.838623,84
1766015946.839624,85
1766015946.840632,87
1766015946.841642,86
1766015946.842616,83
1766015946.843642,84
1766015946.844634,83
1766015946.84564,85
1766015946.8466392,83
1766015946.847648,84
1766015946.848659,82
1766015946.849646,83
1766015946.850643,80
1766015946.851659,78
1766015946.852669,76
1766015946.853676,80
1766015946.8546538,80
1766015946.855668,81
1766015946.856669,80
1766015946.8576791,82
1766015946.858699,77
1766015946.859701,79
1766015946.860668,81
1766015946.861705,80
1766015946.8627021,81
1766015946.863702,78
1766015946.864699,81
1766015946.865715,78
1766015946.866702,79
1766015946.867699,77
1766015946.8686998,77
1766015946.869697,80
1766015946.870702,76
1766015946.8716989,74
1766015946.8727129,74
1766015946.873722,71
1766015946.874739,75
1766015946.875768,74
1766015946.876721,71
1766015946.8777359,71
1766015946.878808,71
1766015946.879752,69
1766015946.880778,70
1766015946.881836,70
1766015946.8828318,68
1766015946.883759,68
1766015946.8848388,69
1766015946.8858292,68
1766015946.886775,67
1766015946.887775,72
1766015946.8887758,66
1766015946.889777,69
1766015946.8907762,68
1766015946.891774,63
1766015946.892792,68
1766015946.8937862,65
1766015946.894776,63
1766015946.895788,65
1766015946.896781,68
1766015946.8977768,65
1766015946.8987782,66
1766015946.899793,64
1766015946.900862,67
1766015946.901796,64
1766015946.902793,63
1766015946.903807,61
1766015946.904799,64
1766015946.9057999,62
1766015946.90681,66
1766015946.9078069,64
1766015946.9088252,61
1766015946.909811,62
1766015946.9108129,60
1766015946.911919,60
1766015946.912915,63
1766015946.913897,62
1766015946.9148932,59
1766015946.9158971,60
1766015946.916905,64
1766015946.9178839,61
1766015946.918893,64
1766015946.919903,65
1766015946.920911,62
1766015946.921904,60
1766015946.922911,63
1766015946.9239192,67
1766015946.9249358,64
1766015946.925982,65
1766015946.926954,63
1766015946.9279559,63
1766015946.92895,65
1766015946.929934,61
1766015946.930921,63
1766015946.931938,60
1766015946.932929,62
1766015946.933974,62
1766015946.9349189,60
1766015946.935916,62
1766015946.936918,57
1766015946.9379148,61
1766015946.938922,58
1766015946.939927,58
1766015946.9409258,58
1766015946.94192,59
1766015946.9429371,57
1766015946.943913,56
1766015946.944932,54
1766015946.945924,56
1766015946.9469109,59
1766015946.947894,57
1766015946.9489138,55
1766015946.949922,54
1766015946.950987,56
1766015946.9519858,56
1766015946.952974,55
1766015946.953952,54
1766015946.954986,51
1766015946.955965,50
1766015946.956969,53
1766015946.9579651,51
1766015946.958983,54
1766015946.959998,52
1766015946.960991,52
1766015946.9619899,51
1766015946.963003,53
1766015946.963992,50
1766015946.964999,49
1766015946.965943,50
1766015946.9670122,51
1766015946.968002,51
1766015946.968989,48
1766015946.9699898,49
1766015946.9710238,49
1766015946.972013,47
1766015946.9730198,49
1766015946.9740229,48
1766015946.975014,47
1766015946.976035,47
1766015946.977042,49
1766015946.978024,45
1766015946.979031,46
1766015946.980045,45
1766015946.981048,48
1766015946.98205,52
1766015946.983039,51
1766015946.984023,54
1766015946.985066,54
1766015946.986055,53
1766015946.9870489,52
1766015946.988066,55
1766015946.989057,52
1766015946.990072,54
1766015946.991062,56
1766015946.992054,55
1766015946.993076,54
1766015946.994028,52
1766015946.995081,54
1766015946.9960809,53
1766015946.997083,52
1766015946.9980721,52
1766015946.999077,52
1766015947.0000331,53
1766015947.00111,51
1766015947.002081,51
1766015947.003108,50
1766015947.004095,51
1766015947.005104,53
1766015947.006103,49
1766015947.007066,50
1766015947.008069,49
1766015947.009082,50
1766015947.0100741,52
1766015947.01113,48
1766015947.0121222,50
1766015947.013116,45
1766015947.0141308,49
1766015947.01514,48
1766015947.0161269,49
1766015947.017128,45
1766015947.018137,48
1766015947.019137,44
1766015947.020129,48
1766015947.02116,47
1766015947.0221498,45
1766015947.0231428,45
1766015947.024138,43
1766015947.0251362,47
1766015947.026144,45
1766015947.027117,43
1766015947.028123,46
1766015947.0291781,49
1766015947.030159,49
1766015947.031171,48
1766015947.032168,53
1766015947.0331678,49
1766015947.034185,54
1766015947.035174,50
1766015947.0361521,51
1766015947.0371609,53
1766015947.038178,53
1766015947.039176,51
1766015947.040171,51
1766015947.04117,53
1766015947.042181,50
1766015947.043166,51
1766015947.04417,48
1766015947.0451882,53
1766015947.046188,51
1766015947.047195,52
1766015947.048191,52
1766015947.0491772,51
1766015947.050194,57
1766015947.051191,55
1766015947.05219,55
1766015947.0532072,56
1766015947.0542238,52
1766015947.055207,55
1766015947.056205,55
1766015947.057214,55
1766015947.058233,56
1766015947.059238,54
1766015947.0602372,57
1766015947.061226,56
1766015947.062239,52
1766015947.063243,53
1766015947.0642428,51
1766015947.065226,51
1766015947.066247,48
1766015947.0672672,50
1766015947.0683038,49
1766015947.069271,49
1766015947.070265,49
1766015947.071268,48
1766015947.072274,51
1766015947.073291,50
1766015947.0742888,46
1766015947.0752819,47
1766015947.076297,49
1766015947.0773,46
1766015947.078291,47
1766015947.0793002,47
1766015947.080296,47
1766015947.081287,46
1766015947.082294,47
1766015947.0832949,49
1766015947.084287,46
1766015947.085279,43
1766015947.0862908,47
1766015947.0873,48
1766015947.088305,44
1766015947.089345,46
1766015947.090317,47
1766015947.091327,46
1766015947.092351,43
1766015947.093343,45
1766015947.094337,44
1766015947.095349,45
1766015947.096355,45
1766015947.0973032,46
1766015947.098361,47
1766015947.0993469,48
1766015947.1003578,48
1766015947.1013591,45
1766015947.1023629,45
1766015947.103342,50
1766015947.104346,47
1766015947.105377,50
1766015947.106373,47
1766015947.107378,46
1766015947.108381,46
1766015947.109431,47
1766015947.110425,46
1766015947.111373,48
1766015947.112384,46
1766015947.113389,45
1766015947.1143901,47
1766015947.11536,49
1766015947.116406,46
1766015947.117394,44
1766015947.1184268,46
1766015947.11939,47
1766015947.12042,45
1766015947.121404,45
1766015947.1224189,44
1766015947.1234171,41
1766015947.124423,45
1766015947.1254232,42
1766015947.12643,41
1766015947.127433,39
1766015947.128437,43
1766015947.12944,42
1766015947.130453,41
1766015947.131447,38
1766015947.132442,42
1766015947.133446,39
1766015947.134448,40
1766015947.135448,41
1766015947.136462,39
1766015947.137467,39
1766015947.138459,39
1766015947.1394958,39
1766015947.140446,40
1766015947.14143,39
1766015947.142443,37
1766015947.1434932,38
1766015947.144486,37
1766015947.145497,36
1766015947.146483,40
1766015947.147498,36
1766015947.1485,36
1766015947.1495051,38
1766015947.1505358,37
1766015947.151556,36
1766015947.15253,38
1766015947.153516,36
1766015947.15453,34
1766015947.1555269,34
1766015947.156526,34
1766015947.157534,35
1766015947.158514,33
1766015947.1595252,36
1766015947.160518,36
1766015947.1615648,33
1766015947.162519,33
1766015947.1635358,33
1766015947.164507,36
1766015947.1655512,36
1766015947.166563,34
1766015947.1675599,35
1766015947.168524,32
1766015947.1695611,36
1766015947.1705558,35
1766015947.171558,33
1766015947.172561,34
1766015947.1735308,38
1766015947.174565,39
1766015947.175574,45
1766015947.176574,45
1766015947.1775649,45
1766015947.178574,44
1766015947.179578,45
1766015947.180578,47
1766015947.181584,46
1766015947.182584,45
1766015947.183577,47
1766015947.184591,47
1766015947.1855721,51
1766015947.1866071,50
1766015947.187615,48
1766015947.188611,50
1766015947.18958,51
1766015947.190606,51
1766015947.1915982,48
1766015947.192608,49
1766015947.193592,47
1766015947.194624,48
1766015947.19562,49
1766015947.196616,47
1766015947.1976378,48
1766015947.198638,47
1766015947.199646,45
1766015947.2006469,48
1766015947.201652,46
1766015947.202645,44
1766015947.20366,47
1766015947.2046552,47
1766015947.205667,46
1766015947.206635,47
1766015947.207665,45
1766015947.2086651,45
1766015947.2096598,45
1766015947.2106571,44
1766015947.211663,46
1766015947.212658,45
1766015947.2136881,45
1766015947.214695,47
1766015947.2156959,43
1766015947.216702,44
1766015947.2177012,44
1766015947.218697,45
1766015947.219705,44
1766015947.2207081,44
1766015947.2217321,44
1766015947.222732,42
1766015947.223723,43
1766015947.224708,44
1766015947.2257102,45
1766015947.226723,43
1766015947.2277079,42
1766015947.2287328,40
1766015947.2297668,41
1766015947.2307122,41
1766015947.2317178,44
1766015947.232713,44
1766015947.233728,44
1766015947.234714,44
1766015947.2357461,41
1766015947.23674,44
1766015947.237767,45
1766015947.238805,47
1766015947.239785,50
1766015947.240784,50
1766015947.241791,50
1766015947.242746,54
1766015947.243747,51
1766015947.2448058,53
1766015947.245755,54
1766015947.2467358,56
1766015947.2477472,56
1766015947.248758,54
1766015947.2497401,55
1766015947.250755,55
1766015947.251761,55
1766015947.252765,55
1766015947.253762,51
1766015947.2547588,54
1766015947.2557702,53
1766015947.2567942,54
1766015947.257786,51
1766015947.2587972,52
1766015947.2597718,53
1766015947.260777,53
1766015947.2618,52
1766015947.26279,53
1766015947.263795,51
1766015947.264805,52
1766015947.265829,53
1766015947.2668018,49
1766015947.2678,51
1766015947.268799,51
1766015947.269925,50
1766015947.270862,48
1766015947.271925,49
1766015947.2729018,48
1766015947.273898,51
1766015947.274888,46
1766015947.275892,46
1766015947.2768881,45
1766015947.27789,44
1766015947.2789109,46
1766015947.279895,45
1766015947.2809,47
1766015947.281898,45
1766015947.2828832,42
1766015947.28388,44
1766015947.2848792,45
1766015947.28588,43
1766015947.286881,44
1766015947.287934,41
1766015947.28888,43
1766015947.2898781,42
1766015947.2908878,42
1766015947.291883,40
1766015947.292887,42
1766015947.29389,42
1766015947.29489,43
1766015947.295899,45
1766015947.2969449,42
1766015947.297917,43
1766015947.298911,43
1766015947.299914,42
1766015947.300918,40
1766015947.301904,40
1766015947.3028932,45
1766015947.30388,45
1766015947.304884,44
1766015947.305898,43
1766015947.3068979,45
1766015947.307895,41
1766015947.30889,44
1766015947.309927,44
1766015947.310905,43
1766015947.3119261,44
1766015947.3129768,42
1766015947.31394,41
1766015947.3149388,41
1766015947.3159559,41
1766015947.3169532,43
1766015947.317927,39
1766015947.318929,42
1766015947.319938,43
1766015947.32094,41
1766015947.321952,42
1766015947.3229492,42
1766015947.323946,41
1766015947.32496,43
1766015947.325944,44
1766015947.326966,43
1766015947.32796,41
1766015947.328969,43
1766015947.3299499,42
1766015947.330975,41
1766015947.331964,43
1766015947.3329642,40
1766015947.333958,40
1766015947.334965,40
1766015947.335985,41
1766015947.336993,41
1766015947.338001,42
1766015947.339013,41
1766015947.340003,40
1766015947.341019,40
1766015947.342023,40
1766015947.343002,40
1766015947.344018,41
1766015947.345011,38
1766015947.3460321,39
1766015947.347031,42
1766015947.348012,38
1766015947.349013,40
1766015947.350052,40
1766015947.3510559,44
1766015947.352043,42
1766015947.353051,39
1766015947.3540459,41
1766015947.355063,43
1766015947.3560572,41
1766015947.357058,42
1766015947.3580558,44
1766015947.3590558,42
1766015947.36011,42
1766015947.361137,42
1766015947.3620758,45
1766015947.363064,40
1766015947.364054,45
1766015947.365064,41
1766015947.366069,42
1766015947.367062,40
1766015947.368066,41
1766015947.369078,42
1766015947.3700778,41
1766015947.371074,42
1766015947.3721018,40
1766015947.37308,39
1766015947.374101,42
1766015947.3751118,43
1766015947.3760939,44
1766015947.377096,42
1766015947.3780951,43
1766015947.379081,43
1766015947.380088,41
1766015947.381089,42
1766015947.382091,43
1766015947.383127,42
1766015947.3840919,40
1766015947.38511,39
1766015947.386115,43
1766015947.3871202,41
1766015947.3881228,41
1766015947.389121,41
1766015947.390121,38
1766015947.391119,40
1766015947.392122,40
1766015947.3931189,38
1766015947.394145,42
1766015947.3951428,41
1766015947.3961349,39
1766015947.3971279,43
1766015947.398141,45
1766015947.3991401,42
1766015947.400138,41
1766015947.401147,43
1766015947.402161,42
1766015947.403167,43
1766015947.404149,42
1766015947.405153,42
1766015947.406177,41
1766015947.407155,41
1766015947.408179,44
1766015947.4091818,41
1766015947.410193,43
1766015947.4111722,42
1766015947.412179,40
1766015947.413183,42
1766015947.414191,37
1766015947.4152,40
1766015947.4162009,43
1766015947.417216,40
1766015947.418195,37
1766015947.4192069,39
1766015947.420203,37
1766015947.421217,40
1766015947.422215,39
1766015947.423195,39
1766015947.424233,39
1766015947.425228,40
1766015947.4262369,37
1766015947.4272451,38
1766015947.428246,37
1766015947.4292438,39
1766015947.4302452,36
1766015947.431241,33
1766015947.432238,35
1766015947.433244,35
1766015947.434241,36
1766015947.43524,36
1766015947.4362502,40
1766015947.437247,37
1766015947.438285,36
1766015947.439241,37
1766015947.440265,38
1766015947.441259,36
1766015947.4422688,37
1766015947.443267,36
1766015947.444264,39
1766015947.445285,42
1766015947.446275,43
1766015947.447274,42
1766015947.448289,44
1766015947.449282,43
1766015947.4502761,41
1766015947.4512792,41
1766015947.452296,43
1766015947.453279,43
1766015947.454304,40
1766015947.455287,45
1766015947.4563122,43
1766015947.4573069,42
1766015947.458307,43
1766015947.459303,42
1766015947.460311,40
1766015947.461302,45
1766015947.4623349,41
1766015947.4633331,41
1766015947.464339,45
1766015947.465329,42
1766015947.466342,42
1766015947.46733,41
1766015947.468342,40
1766015947.4693491,45
1766015947.470336,45
1766015947.471342,43
1766015947.472349,41
1766015947.473344,42
1766015947.47436,41
1766015947.475368,42
1766015947.476362,44
1766015947.477389,45
1766015947.47839,42
1766015947.479397,43
1766015947.4803982,43
1766015947.4814389,43
1766015947.482403,43
1766015947.483405,44
1766015947.484402,40
1766015947.485397,41
1766015947.48639,38
1766015947.4873831,40
1766015947.488408,43
1766015947.489409,42
1766015947.490394,41
1766015947.491411,38
1766015947.492418,40
1766015947.493422,40
1766015947.494422,44
1766015947.495426,39
1766015947.496418,39
1766015947.497407,38
1766015947.4983969,39
1766015947.499404,40
1766015947.5004082,38
1766015947.501434,41
1766015947.502424,38
1766015947.503423,40
1766015947.504429,40
1766015947.5054321,41
1766015947.5064461,41
1766015947.507416,40
1766015947.5084171,39
1766015947.509428,39
1766015947.510427,38
1766015947.5114272,37
1766015947.512437,38
1766015947.513443,40
1766015947.514443,43
1766015947.515446,43
1766015947.516453,44
1766015947.5174341,47
1766015947.518456,43
1766015947.519457,42
1766015947.520483,46
1766015947.521517,45
1766015947.52251,44
1766015947.5235178,46
1766015947.5244968,46
1766015947.5255308,47
1766015947.526519,47
1766015947.527509,49
1766015947.528503,45
1766015947.529513,49
1766015947.5304809,50
1766015947.531513,45
1766015947.532512,45
1766015947.533532,44
