timestamp,emg_value
1766015951.291053,43
1766015951.291062,46
1766015951.291069,44
1766015951.2910762,47
1766015951.291083,49
1766015951.29109,49
1766015951.291096,48
1766015951.291103,49
1766015951.2911098,52
1766015951.291117,51
1766015951.291123,51
1766015951.29113,53
1766015951.291137,51
1766015951.291143,54
1766015951.29115,53
1766015951.291157,52
1766015951.291163,50
1766015951.2911701,51
1766015951.291177,51
1766015951.2911842,49
1766015951.29119,51
1766015951.2911968,51
1766015951.2912042,50
1766015951.29121,51
1766015951.2912169,47
1766015951.291224,50
1766015951.291231,48
1766015951.291237,49
1766015951.291244,51
1766015951.291251,49
1766015951.291258,46
1766015951.291264,48
1766015951.291275,45
1766015951.291282,46
1766015951.291289,46
1766015951.291296,47
1766015951.291303,47
1766015951.291309,46
1766015951.291316,44
1766015951.291323,47
1766015951.291329,47
1766015951.2913358,46
1766015951.2913432,46
1766015951.291349,44
1766015951.2913558,43
1766015951.291363,46
1766015951.291369,44
1766015951.291376,45
1766015951.291383,45
1766015951.291389,44
1766015951.2913961,43
1766015951.291403,43
1766015951.2914088,46
1766015951.2914162,45
1766015951.291423,42
1766015951.29143,43
1766015951.2914371,43
1766015951.2914429,43
1766015951.29145,45
1766015951.291456,44
1766015951.291463,45
1766015951.29147,44
1766015951.291476,43
1766015951.291483,45
1766015951.2914891,42
1766015951.2915,44
1766015951.291508,43
1766015951.2915142,42
1766015951.291521,44
1766015951.2915268,41
1766015951.2915342,42
1766015951.291541,43
1766015951.2915468,41
1766015951.291554,43
1766015951.291561,43
1766015951.291568,43
1766015951.291574,43
1766015951.291584,40
1766015951.29159,42
1766015951.2915971,44
1766015951.2916028,40
1766015951.29161,41
1766015951.291617,41
1766015951.2916238,41
1766015951.29163,40
1766015951.291637,41
1766015951.291643,42
1766015951.29165,39
1766015951.291657,39
1766015951.2916632,39
1766015951.29167,41
1766015951.2916758,39
1766015951.291683,37
1766015951.2916899,40
1766015951.2916968,38
1766015951.291703,39
1766015951.29171,37
1766015951.291717,38
1766015951.2917252,40
1766015951.291733,40
1766015951.291739,38
1766015951.2917461,38
1766015951.291753,39
1766015951.291759,38
1766015951.291766,37
1766015951.2917728,38
1766015951.291779,38
1766015951.291786,38
1766015951.291792,40
1766015951.291801,38
1766015951.291807,36
1766015951.2918139,35
1766015951.29182,37
1766015951.291827,38
1766015951.291834,37
1766015951.291841,36
1766015951.291848,36
1766015951.2918541,39
1766015951.291866,42
1766015951.291872,43
1766015951.291879,44
1766015951.2918851,44
1766015951.291892,45
1766015951.291899,44
1766015951.291905,44
1766015951.2919118,46
1766015951.291918,50
1766015951.291925,49
1766015951.291931,46
1766015951.291939,48
1766015951.291946,49
1766015951.2919538,48
1766015951.2919612,49
1766015951.291968,46
1766015951.291975,48
1766015951.291981,44
1766015951.291988,48
1766015951.291994,47
1766015951.292001,47
1766015951.292007,50
1766015951.2920141,47
1766015951.29202,47
1766015951.292027,44
1766015951.2920341,45
1766015951.2920399,46
1766015951.292047,47
1766015951.292053,44
1766015951.29206,45
1766015951.292066,45
1766015951.292073,44
1766015951.2920802,44
1766015951.2920861,45
1766015951.292093,44
1766015951.292099,44
1766015951.292106,42
1766015951.2921128,41
1766015951.292119,44
1766015951.292126,46
1766015951.2921321,45
1766015951.292139,46
1766015951.292145,43
1766015951.2921522,44
1766015951.292158,44
1766015951.292165,43
1766015951.292174,41
1766015951.292181,43
1766015951.292187,43
1766015951.2921941,40
1766015951.2921999,43
1766015951.292207,45
1766015951.292213,41
1766015951.2922199,44
1766015951.292227,42
1766015951.292234,42
1766015951.29224,42
1766015951.292247,38
1766015951.292253,41
1766015951.2922602,41
1766015951.292266,41
1766015951.2922728,37
1766015951.292279,40
1766015951.292286,41
1766015951.292293,40
1766015951.292299,42
1766015951.292306,39
1766015951.2923121,39
1766015951.292319,41
1766015951.292325,41
1766015951.292332,40
1766015951.2923388,39
1766015951.292345,41
1766015951.292352,40
1766015951.292358,39
1766015951.292365,40
1766015951.292372,41
1766015951.2923782,37
1766015951.292384,40
1766015951.292392,40
1766015951.292398,39
1766015951.292404,40
1766015951.2924101,40
1766015951.292419,35
1766015951.292425,39
1766015951.292431,40
1766015951.292438,40
1766015951.292444,37
1766015951.29245,37
1766015951.292456,39
1766015951.292462,40
1766015951.292468,42
1766015951.292474,36
1766015951.29248,39
1766015951.292486,35
1766015951.292492,39
1766015951.2924979,41
1766015951.292504,39
1766015951.29251,39
1766015951.292516,40
1766015951.292523,39
1766015951.2925289,39
1766015951.292535,40
1766015951.292541,36
1766015951.292547,36
1766015951.292553,38
1766015951.2925591,40
1766015951.292565,38
1766015951.2925708,41
1766015951.292577,38
1766015951.292583,39
1766015951.292589,40
1766015951.292595,38
1766015951.292601,38
1766015951.292607,37
1766015951.292616,39
1766015951.292622,38
1766015951.2926311,37
1766015951.2926369,39
1766015951.292643,39
1766015951.292649,37
1766015951.292655,39
1766015951.292661,38
1766015951.292667,40
1766015951.292673,41
1766015951.2926788,40
1766015951.292685,40
1766015951.292692,38
1766015951.2926981,38
1766015951.292704,39
1766015951.2927098,36
1766015951.292716,40
1766015951.292722,38
1766015951.292728,36
1766015951.292734,38
1766015951.29274,37
1766015951.292746,37
1766015951.2927518,35
1766015951.292758,36
1766015951.292764,37
1766015951.2927701,36
1766015951.292777,35
1766015951.292783,36
1766015951.292789,36
1766015951.292795,35
1766015951.2928011,39
1766015951.2928069,35
1766015951.292813,37
1766015951.292819,37
1766015951.2928278,37
1766015951.292834,37
1766015951.292842,37
1766015951.292848,37
1766015951.2928598,37
1766015951.292866,33
1766015951.292872,35
1766015951.2928782,35
1766015951.2928839,35
1766015951.29289,36
1766015951.292896,36
1766015951.292902,35
1766015951.292908,35
1766015951.292914,36
1766015951.29292,33
1766015951.2929258,33
1766015951.292932,35
1766015951.292938,34
1766015951.292944,33
1766015951.29295,35
1766015951.2929559,31
1766015951.292962,34
1766015951.292968,32
1766015951.292974,32
1766015951.292981,32
1766015951.2929862,33
1766015951.292992,34
1766015951.2929978,31
1766015951.293004,32
1766015951.293011,30
1766015951.2930171,33
1766015951.2930229,32
1766015951.293029,32
1766015951.293035,33
1766015951.293043,33
1766015951.293049,32
1766015951.293057,32
1766015951.2930639,33
1766015951.2930691,31
1766015951.293076,32
1766015951.293082,35
1766015951.293088,29
1766015951.293094,28
1766015951.2931,30
1766015951.2931058,32
1766015951.293112,33
1766015951.293118,31
1766015951.2931242,29
1766015951.293131,33
1766015951.2931368,31
1766015951.293143,30
1766015951.293149,29
1766015951.293155,32
1766015951.293161,30
1766015951.293167,33
1766015951.293173,31
1766015951.2931788,31
1766015951.293185,29
1766015951.293191,32
1766015951.2931972,29
1766015951.293204,31
1766015951.29321,29
1766015951.293216,30
1766015951.293222,32
1766015951.2932281,30
1766015951.2932339,30
1766015951.29324,29
1766015951.293246,31
1766015951.293254,30
1766015951.293261,30
1766015951.293267,32
1766015951.293273,29
1766015951.293279,30
1766015951.2932851,28
1766015951.293291,28
1766015951.2932968,28
1766015951.293304,27
1766015951.29331,31
1766015951.2933161,30
1766015951.293322,30
1766015951.2933278,28
1766015951.293334,30
1766015951.29334,29
1766015951.2933462,30
1766015951.293352,28
1766015951.293358,31
1766015951.293365,30
1766015951.293371,31
1766015951.293377,31
1766015951.293383,28
1766015951.293389,29
1766015951.293395,30
1766015951.293401,25
1766015951.293407,30
1766015951.2934132,30
1766015951.2934191,31
1766015951.293426,30
1766015951.293432,30
1766015951.293438,32
1766015951.2934442,31
1766015951.2934499,32
1766015951.2934558,29
1766015951.293462,30
1766015951.293472,27
1766015951.293479,28
1766015951.2934852,27
1766015951.293491,32
1766015951.293497,28
1766015951.293503,28
1766015951.29351,29
1766015951.293516,27
1766015951.293522,30
1766015951.293528,29
1766015951.293534,28
1766015951.29354,31
1766015951.293546,28
1766015951.2935522,30
1766015951.2935581,29
1766015951.2935638,30
1766015951.29357,32
1766015951.293576,31
1766015951.293582,28
1766015951.293588,32
1766015951.2935941,31
1766015951.2936,31
1766015951.2936058,28
1766015951.293612,29
1766015951.293618,29
1766015951.2936242,34
1766015951.29363,30
1766015951.293636,31
1766015951.293642,32
1766015951.2936478,30
1766015951.293654,31
1766015951.29366,31
1766015951.2936661,28
1766015951.293674,29
1766015951.293681,29
1766015951.293687,29
1766015951.2936928,33
1766015951.293699,27
1766015951.293705,27
1766015951.2937112,27
1766015951.293717,30
1766015951.2937229,29
1766015951.29373,30
1766015951.293736,28
1766015951.2937422,31
1766015951.293748,31
1766015951.293754,28
1766015951.29376,29
1766015951.2937658,31
1766015951.293772,29
1766015951.293778,31
1766015951.2937841,32
1766015951.2937899,30
1766015951.293796,29
1766015951.293802,27
1766015951.2938082,29
1766015951.293814,29
1766015951.29382,32
1766015951.293826,27
1766015951.2938318,32
1766015951.293838,25
1766015951.293844,28
1766015951.2938502,30
1766015951.293856,29
1766015951.2938619,29
1766015951.293868,28
1766015951.29388,30
1766015951.293886,28
1766015951.2938921,27
1766015951.2938979,31
1766015951.2939038,27
1766015951.29391,30
1766015951.293916,26
1766015951.2939231,33
1766015951.2939289,30
1766015951.293935,32
1766015951.293941,28
1766015951.293947,27
1766015951.293953,30
1766015951.293959,26
1766015951.293965,28
1766015951.293971,27
1766015951.293977,30
1766015951.293983,28
1766015951.2939892,31
1766015951.293995,29
1766015951.2940009,31
1766015951.294008,29
1766015951.294014,30
1766015951.2940202,30
1766015951.294026,27
1766015951.2940319,29
1766015951.294038,30
1766015951.294044,28
1766015951.29405,27
1766015951.294057,28
1766015951.294063,30
1766015951.294069,31
1766015951.2940748,27
1766015951.294083,27
1766015951.294089,28
1766015951.294095,28
1766015951.294101,30
1766015951.294107,25
1766015951.294113,29
1766015951.294119,30
1766015951.294125,29
1766015951.294131,28
1766015951.294137,27
1766015951.294144,27
1766015951.2941499,29
1766015951.294156,30
1766015951.294162,29
1766015951.294168,29
1766015951.294174,27
1766015951.2941802,27
1766015951.2941859,28
1766015951.294192,26
1766015951.294198,27
1766015951.294204,28
1766015951.29421,30
1766015951.294216,28
1766015951.294222,28
1766015951.294228,26
1766015951.294234,26
1766015951.294241,27
1766015951.294247,27
1766015951.294253,27
1766015951.2942588,28
1766015951.294265,28
1766015951.294271,25
1766015951.2942772,27
1766015951.294285,26
1766015951.294292,26
1766015951.2942982,27
1766015951.294304,25
1766015951.2943099,25
1766015951.294316,29
1766015951.294322,28
1766015951.294328,27
1766015951.294334,26
1766015951.2943401,26
1766015951.294346,23
1766015951.2943518,28
1766015951.294358,28
1766015951.294365,28
1766015951.2943711,26
1766015951.2943769,29
1766015951.294383,26
1766015951.294389,28
1766015951.294395,25
1766015951.294401,24
1766015951.294407,27
1766015951.294413,27
1766015951.294419,27
1766015951.2944262,25
1766015951.294432,24
1766015951.294438,26
1766015951.294444,27
1766015951.2944498,26
1766015951.294456,26
1766015951.294462,25
1766015951.2944682,28
1766015951.294474,25
1766015951.2944798,25
1766015951.294488,27
1766015951.294496,25
1766015951.2945018,25
1766015951.294508,25
1766015951.294514,25
1766015951.2945201,24
1766015951.2945259,25
1766015951.294532,25
1766015951.294538,23
1766015951.294544,26
1766015951.29455,25
1766015951.294556,24
1766015951.294562,26
1766015951.294569,24
1766015951.2945752,28
1766015951.294581,26
1766015951.294587,22
1766015951.294593,25
1766015951.2945988,26
1766015951.294605,25
1766015951.294611,25
1766015951.2946172,25
1766015951.294623,26
1766015951.2946298,27
1766015951.294636,22
1766015951.294642,24
1766015951.2946482,22
1766015951.294654,22
1766015951.29466,25
1766015951.294666,27
1766015951.2946718,26
1766015951.294679,25
1766015951.294685,25
1766015951.294692,27
1766015951.294699,22
1766015951.2947059,21
1766015951.294712,25
1766015951.294718,25
1766015951.294724,25
1766015951.29473,28
1766015951.2947369,30
1766015951.294743,30
1766015951.294749,30
1766015951.294755,29
1766015951.294761,25
1766015951.2947671,27
1766015951.294773,30
1766015951.2947788,31
1766015951.294785,27
1766015951.294791,28
1766015951.294797,28
1766015951.2948039,28
1766015951.29481,28
1766015951.294816,27
1766015951.294822,30
1766015951.294828,28
1766015951.294834,28
1766015951.29484,31
1766015951.294846,28
1766015951.294852,31
1766015951.294858,27
1766015951.294865,32
1766015951.294871,30
1766015951.2948768,30
1766015951.294883,28
1766015951.294889,29
1766015951.2948952,30
1766015951.294903,27
1766015951.294912,29
1766015951.2949178,28
1766015951.294924,27
1766015951.29493,29
1766015951.2949362,28
1766015951.294942,28
1766015951.294948,31
1766015951.294954,30
1766015951.29496,29
1766015951.294966,29
1766015951.294973,29
1766015951.294979,30
1766015951.294985,31
1766015951.294991,29
1766015951.294997,31
1766015951.295003,33
1766015951.2950091,30
1766015951.2950149,31
1766015951.295021,33
1766015951.295027,29
1766015951.295033,33
1766015951.295039,31
1766015951.2950451,30
1766015951.295052,32
1766015951.295058,30
1766015951.295064,33
1766015951.29507,33
1766015951.2950761,29
1766015951.295082,31
1766015951.295088,31
1766015951.295094,31
1766015951.2951,29
1766015951.29511,34
1766015951.295116,32
1766015951.2951229,32
1766015951.295129,32
1766015951.295135,31
1766015951.2951412,34
1766015951.295147,32
1766015951.295153,35
1766015951.295159,36
1766015951.295166,35
1766015951.2951722,36
1766015951.295178,36
1766015951.295184,37
1766015951.29519,38
1766015951.2951958,36
1766015951.295202,43
1766015951.295208,42
1766015951.2952151,42
1766015951.295221,38
1766015951.2952268,39
1766015951.295233,39
1766015951.295249,38
1766015951.2952561,39
1766015951.2952619,40
1766015951.295268,40
1766015951.295274,38
1766015951.2952802,39
1766015951.2952871,40
1766015951.2952929,39
1766015951.295299,39
1766015951.295305,40
1766015951.2953112,39
1766015951.295317,38
1766015951.295323,37
1766015951.295331,38
1766015951.295338,40
1766015951.295344,40
1766015951.29535,37
1766015951.295357,37
1766015951.2953632,40
1766015951.295369,36
1766015951.295375,39
1766015951.295381,36
1766015951.295388,37
1766015951.295394,36
1766015951.2954,37
1766015951.295406,36
1766015951.295412,37
1766015951.295418,39
1766015951.295424,37
1766015951.29543,37
1766015951.2954361,36
1766015951.2954419,40
1766015951.295448,40
1766015951.295454,37
1766015951.29546,36
1766015951.295466,40
1766015951.2954721,38
1766015951.295478,38
1766015951.2954838,36
1766015951.29549,37
1766015951.295496,37
1766015951.2955022,38
1766015951.295509,38
1766015951.2955148,41
1766015951.295521,41
1766015951.295527,42
1766015951.295535,40
1766015951.295542,40
1766015951.295548,40
1766015951.295555,41
1766015951.295561,40
1766015951.295567,42
1766015951.295573,42
1766015951.295579,40
1766015951.295585,38
1766015951.2955909,40
1766015951.295597,42
1766015951.295603,39
1766015951.295609,39
1766015951.295615,39
1766015951.2956212,41
1766015951.295627,41
1766015951.2956328,41
1766015951.295639,38
1766015951.295645,40
1766015951.2956522,37
1766015951.2956579,39
1766015951.295664,40
1766015951.29567,38
1766015951.295676,42
1766015951.295682,38
1766015951.295688,39
1766015951.295694,41
1766015951.2957,43
1766015951.295706,43
1766015951.295713,41
1766015951.295719,39
1766015951.295725,42
1766015951.2957308,44
1766015951.295739,41
1766015951.295747,39
1766015951.295753,43
1766015951.2957592,40
1766015951.295766,40
1766015951.2957718,41
1766015951.295778,42
1766015951.295784,41
1766015951.2957902,41
1766015951.295796,42
1766015951.295802,42
1766015951.295808,42
1766015951.2958138,43
1766015951.29582,45
1766015951.295826,44
1766015951.2958322,44
1766015951.2958379,47
1766015951.295844,47
1766015951.295851,46
1766015951.295857,46
1766015951.2958632,46
1766015951.2958689,47
1766015951.295875,45
1766015951.295881,44
1766015951.295887,46
1766015951.295893,45
1766015951.2958999,50
1766015951.295906,45
1766015951.295912,45
1766015951.295918,48
1766015951.295924,44
1766015951.2959301,47
1766015951.295936,47
1766015951.295945,46
1766015951.2959518,48
1766015951.295958,47
1766015951.295964,47
1766015951.2959712,45
1766015951.2959769,40
1766015951.295983,43
1766015951.295989,42
1766015951.295995,43
1766015951.296001,47
1766015951.296007,44
1766015951.296013,44
1766015951.2960188,47
1766015951.296025,42
1766015951.296031,42
1766015951.2960372,44
1766015951.296043,43
1766015951.2960489,44
1766015951.296055,40
1766015951.296061,42
1766015951.296067,42
1766015951.296074,43
1766015951.2960799,43
1766015951.296086,40
1766015951.2960918,42
1766015951.296098,40
1766015951.296104,39
1766015951.2961102,42
1766015951.2961159,40
1766015951.296122,43
1766015951.296128,41
1766015951.296134,43
1766015951.29614,41
1766015951.296146,44
1766015951.296154,41
1766015951.296161,41
1766015951.296167,43
1766015951.296173,41
1766015951.296179,39
1766015951.296185,43
1766015951.296191,42
1766015951.296198,44
1766015951.296204,41
1766015951.2962098,42
1766015951.296216,39
1766015951.296222,41
1766015951.2962282,38
1766015951.296234,39
1766015951.29624,42
1766015951.296246,39
1766015951.296253,44
1766015951.2962592,43
1766015951.296265,41
1766015951.296271,43
1766015951.296277,40
1766015951.2962828,41
1766015951.2962902,35
1766015951.296296,39
1766015951.296302,38
1766015951.296308,41
1766015951.296314,41
1766015951.29632,41
1766015951.296326,40
1766015951.2963321,43
1766015951.2963378,39
1766015951.296345,39
1766015951.296351,41
1766015951.2963588,41
1766015951.296365,42
1766015951.296374,43
1766015951.2963798,43
1766015951.296386,40
1766015951.296392,38
1766015951.2963982,40
1766015951.296404,40
1766015951.29641,40
1766015951.296416,39
1766015951.296422,41
1766015951.296428,39
1766015951.296434,39
1766015951.2964401,41
1766015951.296447,41
1766015951.2964532,39
1766015951.296459,42
1766015951.296465,39
1766015951.296471,40
1766015951.2964768,40
1766015951.296483,38
1766015951.296489,38
1766015951.2964962,40
1766015951.296501,41
1766015951.296507,40
1766015951.296513,37
1766015951.29652,39
1766015951.2965262,39
1766015951.296532,41
1766015951.296538,42
1766015951.296544,37
1766015951.2965498,38
1766015951.296556,40
1766015951.296562,36
1766015951.296572,37
1766015951.29658,37
1766015951.296586,37
1766015951.2965918,36
1766015951.296598,41
1766015951.2966049,39
1766015951.296611,36
1766015951.296617,39
1766015951.296623,38
1766015951.296629,42
1766015951.296635,39
1766015951.296642,38
1766015951.296648,37
1766015951.296654,38
1766015951.29666,37
1766015951.2966661,38
1766015951.296672,38
1766015951.296679,39
1766015951.296685,37
1766015951.296691,35
1766015951.2966971,38
1766015951.2967029,40
1766015951.2967098,41
1766015951.296716,38
1766015951.296722,37
1766015951.2967281,36
1766015951.2967339,39
1766015951.29674,38
1766015951.296746,39
1766015951.2967522,37
1766015951.296758,39
1766015951.296764,39
1766015951.296771,39
1766015951.296777,40
1766015951.2967849,37
1766015951.296793,40
1766015951.296799,36
1766015951.2968051,35
1766015951.296811,38
1766015951.2968168,37
1766015951.296823,38
1766015951.29683,35
1766015951.2968361,40
1766015951.296842,37
1766015951.2968478,35
1766015951.296854,38
1766015951.29686,38
1766015951.296866,36
1766015951.2968729,38
1766015951.296879,33
1766015951.296885,37
1766015951.296891,37
1766015951.296897,37
1766015951.296903,34
1766015951.296909,36
1766015951.296915,35
1766015951.296921,33
1766015951.296927,36
1766015951.2969332,37
1766015951.29694,34
1766015951.2969458,36
1766015951.296952,32
1766015951.296958,34
1766015951.2969642,34
1766015951.29697,33
1766015951.2969759,35
1766015951.296982,35
1766015951.29699,33
1766015951.2969978,33
1766015951.297004,32
1766015951.297011,35
1766015951.297017,32
1766015951.297023,33
1766015951.297029,36
1766015951.297035,32
1766015951.297041,35
1766015951.2970471,32
1766015951.297054,32
1766015951.29706,32
1766015951.297066,32
1766015951.297073,34
1766015951.297079,31
1766015951.297085,34
1766015951.297091,34
1766015951.297097,30
1766015951.2971032,32
1766015951.29711,31
1766015951.2971158,35
1766015951.297122,32
1766015951.297128,34
1766015951.2971342,31
1766015951.29714,31
1766015951.297146,32
1766015951.297152,32
1766015951.297158,32
1766015951.2971652,30
1766015951.2971709,31
1766015951.297177,31
1766015951.297183,32
1766015951.2971892,34
1766015951.297197,32
1766015951.2972028,32
1766015951.2972102,30
1766015951.2972171,31
1766015951.297224,29
1766015951.29723,27
1766015951.297236,31
1766015951.2972422,32
1766015951.297248,30
1766015951.2972538,31
1766015951.29726,31
1766015951.297266,26
1766015951.2972732,30
1766015951.297279,29
1766015951.297285,27
1766015951.297291,31
1766015951.297297,29
1766015951.297303,28
1766015951.297309,30
1766015951.297316,27
1766015951.297322,27
1766015951.2973282,26
1766015951.297334,27
1766015951.29734,27
1766015951.297346,28
1766015951.2973518,29
1766015951.297359,27
1766015951.297365,29
1766015951.297371,26
1766015951.297377,28
1766015951.2973828,28
1766015951.297389,30
1766015951.297395,30
1766015951.2974021,27
1766015951.29741,30
1766015951.297417,27
1766015951.2974231,27
1766015951.297429,26
1766015951.2974348,28
1766015951.297441,26
1766015951.297448,26
1766015951.297454,26
1766015951.29746,27
1766015951.297466,25
1766015951.297472,26
1766015951.297478,26
1766015951.297484,27
1766015951.29749,28
1766015951.297496,26
1766015951.297502,27
1766015951.2975092,27
1766015951.297515,26
1766015951.2975209,25
1766015951.297527,26
1766015951.297533,27
1766015951.297539,28
1766015951.297546,26
1766015951.2975519,23
1766015951.297558,23
1766015951.2975638,26
1766015951.297664,25
1766015951.297678,26
1766015951.2976892,25
1766015951.297699,23
1766015951.297709,27
1766015951.29772,26
1766015951.29773,27
1766015951.2977622,27
1766015951.297796,26
1766015951.2978072,25
1766015951.2978299,24
1766015951.297858,22
1766015951.297889,26
1766015951.2979178,25
1766015951.297926,24
1766015951.2979321,25
1766015951.2979379,23
1766015951.297944,26
1766015951.297958,24
1766015951.297965,24
1766015951.2979982,26
1766015951.298005,24
1766015951.298012,24
1766015951.298018,25
1766015951.298024,25
1766015951.298031,24
1766015951.298037,23
1766015951.2980428,27
1766015951.298049,25
1766015951.298055,24
1766015951.298062,26
1766015951.298068,22
1766015951.298074,23
1766015951.29808,25
1766015951.298086,24
1766015951.2980921,23
1766015951.2980978,25
1766015951.298105,25
1766015951.298111,24
1766015951.2981188,27
1766015951.298126,23
1766015951.298132,23
1766015951.2981381,20
1766015951.298144,24
1766015951.2981498,24
1766015951.298167,21
1766015951.298174,23
1766015951.29818,23
1766015951.298187,26
1766015951.298193,23
1766015951.298199,23
1766015951.298205,24
1766015951.298211,22
1766015951.298218,23
1766015951.2982242,23
1766015951.29823,21
1766015951.298236,23
1766015951.298242,23
1766015951.298249,21
1766015951.2982929,24
1766015951.298302,23
1766015951.2983081,24
1766015951.298314,23
1766015951.2983198,26
1766015951.298326,23
1766015951.298332,21
1766015951.298338,24
1766015951.298343,23
1766015951.2983491,23
1766015951.2983549,23
1766015951.29836,24
1766015951.298366,22
1766015951.298375,22
1766015951.298381,23
1766015951.298388,21
1766015951.298393,21
1766015951.298399,23
1766015951.2984052,23
1766015951.298411,23
1766015951.2984169,27
1766015951.298423,23
1766015951.298429,22
1766015951.298434,22
1766015951.29844,25
1766015951.2984462,23
1766015951.298452,23
1766015951.298458,24
1766015951.298464,25
1766015951.2984698,23
1766015951.298475,23
1766015951.298481,23
1766015951.298487,24
1766015951.298493,24
1766015951.298499,20
1766015951.2985039,25
1766015951.29851,21
1766015951.298516,24
1766015951.298522,22
1766015951.298528,23
1766015951.2985332,23
1766015951.298539,25
1766015951.298545,25
1766015951.298551,21
1766015951.298557,22
1766015951.298562,22
1766015951.298568,21
1766015951.2985759,20
1766015951.298582,23
1766015951.2985878,22
1766015951.298594,21
1766015951.2986,20
1766015951.2986062,23
1766015951.298611,24
1766015951.2986171,21
1766015951.298623,22
1766015951.298629,22
1766015951.298635,23
1766015951.2986398,20
1766015951.298646,24
1766015951.298652,23
1766015951.2986581,22
1766015951.2986639,22
1766015951.298669,24
1766015951.298675,25
1766015951.298681,24
1766015951.298687,22
1766015951.2986932,26
1766015951.298698,21
1766015951.298704,23
1766015951.29871,24
1766015951.2987158,21
1766015951.298721,20
1766015951.2987268,21
1766015951.298733,22
1766015951.298739,25
1766015951.298744,24
1766015951.29875,25
1766015951.2987561,23
1766015951.298762,22
1766015951.2987678,24
1766015951.298774,24
1766015951.29878,24
1766015951.298785,23
1766015951.298791,24
1766015951.2987971,25
1766015951.2988029,24
1766015951.298809,24
1766015951.298814,23
1766015951.29882,24
1766015951.298826,20
1766015951.298832,25
1766015951.298838,25
1766015951.2988439,23
1766015951.29885,23
1766015951.2988548,24
1766015951.298861,23
1766015951.298867,20
1766015951.2988732,23
1766015951.298879,19
1766015951.2988842,22
1766015951.2988899,22
1766015951.2988958,23
1766015951.298902,19
1766015951.298908,21
1766015951.298913,22
1766015951.298919,23
1766015951.2989252,22
1766015951.298931,24
1766015951.2989361,23
1766015951.2989419,22
1766015951.298948,25
1766015951.298954,21
1766015951.29896,22
1766015951.298965,25
1766015951.298971,21
1766015951.2989771,25
1766015951.2989829,24
1766015951.298989,22
1766015951.2989938,21
1766015951.299,23
1766015951.299006,21
1766015951.2990122,19
1766015951.299017,20
1766015951.2990232,24
1766015951.2990289,22
1766015951.2990348,23
1766015951.299041,22
1766015951.299047,22
1766015951.299052,24
1766015951.299058,24
1766015951.299065,22
1766015951.299071,21
1766015951.299077,21
1766015951.299083,26
1766015951.2990878,23
1766015951.299094,20
1766015951.2991,21
1766015951.2991061,21
1766015951.299111,21
1766015951.299117,21
1766015951.299123,22
1766015951.299129,23
1766015951.299135,23
1766015951.2991412,24
1766015951.299147,23
1766015951.299152,21
1766015951.299158,22
1766015951.2991638,22
1766015951.29917,24
1766015951.299176,20
1766015951.2991822,23
1766015951.299188,24
1766015951.299194,19
1766015951.2991989,22
1766015951.299205,25
1766015951.299211,23
1766015951.299217,21
1766015951.299223,23
1766015951.299229,23
1766015951.2992342,24
1766015951.2992399,26
1766015951.299246,21
1766015951.299252,23
1766015951.299257,25
1766015951.299263,25
1766015951.2992692,23
1766015951.299274,25
1766015951.29928,25
1766015951.2992861,23
1766015951.2992918,21
1766015951.299298,20
1766015951.2993028,22
1766015951.299309,25
1766015951.299315,21
1766015951.2993212,23
1766015951.299326,23
1766015951.2993321,23
1766015951.299338,25
1766015951.2993438,23
1766015951.29935,23
1766015951.2993548,24
1766015951.299361,22
1766015951.299367,25
1766015951.2993731,24
1766015951.299378,23
1766015951.299384,20
1766015951.2993898,24
1766015951.299396,22
1766015951.299402,20
1766015951.299407,23
1766015951.299413,23
1766015951.299422,22
1766015951.299427,23
1766015951.299433,23
1766015951.2994392,23
1766015951.299445,23
1766015951.2994502,23
1766015951.299456,24
1766015951.2994618,23
1766015951.299468,23
1766015951.299474,24
1766015951.299479,24
1766015951.299485,21
1766015951.2994912,25
1766015951.299497,25
1766015951.2995021,20
1766015951.2995079,24
1766015951.299514,21
1766015951.29952,23
1766015951.299525,24
1766015951.299531,25
1766015951.299537,21
1766015951.2995431,23
1766015951.299548,22
1766015951.299554,24
1766015951.2995598,25
1766015951.299566,21
1766015951.299571,25
1766015951.299577,23
1766015951.299583,22
1766015951.2995882,26
1766015951.299594,23
1766015951.2996,23
1766015951.299608,23
1766015951.299614,25
1766015951.2996202,23
1766015951.2996259,22
1766015951.299631,26
1766015951.299637,21
1766015951.2996428,24
1766015951.299649,22
1766015951.299654,21
1766015951.29966,23
1766015951.299666,22
1766015951.2996721,24
1766015951.299677,23
1766015951.299683,25
1766015951.299689,26
1766015951.299695,26
1766015951.2997,23
1766015951.2997062,25
1766015951.299712,22
1766015951.299718,25
1766015951.299723,24
1766015951.2997289,22
1766015951.299735,25
1766015951.299741,25
1766015951.299746,23
1766015951.299752,25
1766015951.2997582,23
1766015951.299764,22
1766015951.29977,25
1766015951.299775,23
1766015951.299781,21
1766015951.299787,27
1766015951.299793,21
1766015951.299799,23
1766015951.299804,26
1766015951.29981,23
1766015951.299816,25
1766015951.2998211,25
1766015951.2998269,25
1766015951.299833,21
1766015951.299839,21
1766015951.299844,21
1766015951.29985,22
1766015951.299856,25
1766015951.299862,24
1766015951.2998679,21
1766015951.299873,20
1766015951.2998788,22
1766015951.299885,23
1766015951.299891,24
1766015951.2998972,21
1766015951.299902,25
1766015951.2999082,22
1766015951.299916,23
1766015951.2999208,24
1766015951.299927,21
1766015951.299933,27
1766015951.299938,24
1766015951.299944,22
1766015951.2999501,24
1766015951.299956,23
1766015951.299961,24
1766015951.299967,22
1766015951.299973,23
1766015951.299979,21
1766015951.299985,24
1766015951.29999,23
1766015951.299996,24
1766015951.300002,22
1766015951.3000078,22
1766015951.300013,23
1766015951.300019,24
1766015951.300025,24
1766015951.300031,22
1766015951.3000362,24
1766015951.300042,20
1766015951.3000479,24
1766015951.300054,23
1766015951.3000588,25
1766015951.3009439,23
1766015951.301931,23
1766015951.302932,21
1766015951.303939,20
1766015951.304949,23
1766015951.305943,21
1766015951.3069708,25
1766015951.307935,21
1766015951.308939,23
1766015951.309943,24
1766015951.3109791,22
1766015951.313115,23
1766015951.313129,20
1766015951.314844,23
1766015951.316023,23
1766015951.3160372,23
1766015951.317048,23
1766015951.321662,21
1766015951.321679,23
1766015951.3216891,22
1766015951.3217,22
1766015951.326835,22
1766015951.326849,25
1766015951.326859,21
1766015951.32687,24
1766015951.32688,23
1766015951.329246,21
1766015951.32926,26
1766015951.329271,22
1766015951.330925,23
1766015951.331197,22
1766015951.335575,23
1766015951.3355892,24
1766015951.3356001,23
1766015951.3356102,23
1766015951.3369129,23
1766015951.337069,24
1766015951.3380868,23
1766015951.339099,23
1766015951.340075,18
1766015951.341057,24
1766015951.342432,21
1766015951.3431711,23
1766015951.344128,22
1766015951.345145,21
1766015951.346295,25
1766015951.347095,22
1766015951.3481112,19
1766015951.349094,21
1766015951.3500822,22
1766015951.3510668,22
1766015951.352059,23
1766015951.3530638,24
1766015951.35406,21
1766015951.355097,19
1766015951.35608,19
1766015951.357089,22
1766015951.358091,22
1766015951.3590772,23
1766015951.360119,25
1766015951.361119,23
1766015951.362155,25
1766015951.363136,25
1766015951.364137,24
1766015951.365134,26
1766015951.366115,25
1766015951.367119,25
1766015951.368117,25
1766015951.369128,23
1766015951.370131,22
1766015951.3711538,23
1766015951.3721302,24
1766015951.3731258,22
1766015951.374135,22
1766015951.3751302,26
1766015951.376155,24
1766015951.37715,22
1766015951.378169,25
1766015951.379166,24
1766015951.380163,25
1766015951.381155,24
1766015951.382157,22
1766015951.383164,25
1766015951.384168,25
1766015951.385207,24
1766015951.386185,27
1766015951.387181,26
1766015951.3882,25
1766015951.389194,27
1766015951.390181,29
1766015951.3911989,28
1766015951.3921878,35
1766015951.3932018,35
1766015951.394208,34
1766015951.39522,37
1766015951.3962061,37
1766015951.397216,35
1766015951.398239,36
1766015951.399222,39
1766015951.400228,38
1766015951.401254,40
1766015951.402229,41
1766015951.4032269,40
1766015951.404264,44
1766015951.405281,42
1766015951.406239,41
1766015951.40725,41
1766015951.408242,40
1766015951.4092622,43
1766015951.410253,47
1766015951.4112508,50
1766015951.412257,50
1766015951.41326,50
1766015951.414346,52
1766015951.4152699,51
1766015951.4162638,55
1766015951.4172668,55
1766015951.418283,51
1766015951.4192839,55
1766015951.420276,58
1766015951.421282,59
1766015951.422283,61
1766015951.423331,70
1766015951.424257,72
1766015951.425283,69
1766015951.426304,72
1766015951.4273112,74
1766015951.4283168,75
1766015951.4293098,69
1766015951.430312,73
1766015951.431346,71
1766015951.432333,74
1766015951.433308,74
1766015951.434316,73
1766015951.435315,71
1766015951.4363189,72
1766015951.4373279,71
1766015951.4383621,74
1766015951.439373,72
1766015951.4403682,67
1766015951.441362,71
1766015951.442348,69
1766015951.443349,66
1766015951.4443479,64
1766015951.445364,66
1766015951.446369,66
1766015951.447358,66
1766015951.448367,72
1766015951.449368,75
1766015951.450397,71
1766015951.451373,71
1766015951.452384,72
1766015951.453398,74
1766015951.454369,84
1766015951.45537,95
1766015951.45646,107
1766015951.4574568,125
1766015951.458466,141
1766015951.4594681,153
1766015951.46051,158
1766015951.461472,159
1766015951.462484,162
1766015951.46348,162
1766015951.464481,161
1766015951.465493,160
1766015951.4665751,161
1766015951.467572,160
1766015951.468502,161
1766015951.4694972,162
1766015951.4705222,161
1766015951.4715269,163
1766015951.472499,163
1766015951.473523,158
1766015951.474544,170
1766015951.475508,172
1766015951.476547,176
1766015951.4775648,173
1766015951.4785438,170
1766015951.479533,173
1766015951.4805381,173
1766015951.4815319,171
1766015951.482573,170
1766015951.483544,167
1766015951.4846091,166
1766015951.485591,169
1766015951.486549,166
1766015951.487555,164
1766015951.488565,162
1766015951.489574,159
1766015951.4905589,161
1766015951.491593,158
1766015951.492566,160
1766015951.493581,160
1766015951.494635,158
1766015951.4956212,164
1766015951.4965818,163
1766015951.497597,161
1766015951.498573,162
1766015951.49957,159
1766015951.50057,161
1766015951.5015712,155
1766015951.5025868,154
1766015951.503615,151
1766015951.504595,150
1766015951.5055811,149
1766015951.5066109,149
1766015951.507615,147
1766015951.508616,146
1766015951.509619,142
1766015951.510622,143
1766015951.511632,142
1766015951.512598,145
1766015951.513643,149
1766015951.514627,152
1766015951.515629,151
1766015951.516639,154
1766015951.517633,153
1766015951.518631,152
1766015951.519636,149
1766015951.5206149,149
1766015951.5216372,149
1766015951.522652,148
1766015951.523653,146
1766015951.524652,144
1766015951.5256598,142
1766015951.5266502,142
1766015951.527636,142
1766015951.528647,141
1766015951.5296729,141
1766015951.530686,143
1766015951.5316758,139
1766015951.532675,139
1766015951.5337112,138
1766015951.534712,140
1766015951.53568,139
1766015951.536656,138
1766015951.537672,140
1766015951.53869,139
1766015951.539676,137
1766015951.5406861,138
1766015951.541711,137
1766015951.5427158,133
1766015951.543722,133
1766015951.544703,132
1766015951.54573,133
1766015951.54674,131
1766015951.547713,128
1766015951.5487208,129
1766015951.549728,122
1766015951.550742,122
1766015951.551743,121
1766015951.552743,120
1766015951.553728,121
1766015951.554751,116
1766015951.5557399,117
1766015951.5567648,114
1766015951.557751,115
1766015951.558753,113
1766015951.559756,110
1766015951.560757,111
1766015951.561833,112
1766015951.562797,114
1766015951.563779,114
1766015951.564789,113
1766015951.565778,111
1766015951.566785,113
1766015951.5677922,113
1766015951.568792,111
1766015951.569767,108
1766015951.570791,109
1766015951.571795,106
1766015951.5728042,107
1766015951.573777,105
1766015951.574798,104
1766015951.575798,107
1766015951.5767941,111
1766015951.577814,110
1766015951.5788999,109
1766015951.579894,107
1766015951.5808902,103
1766015951.5818949,103
1766015951.582809,103
1766015951.583872,104
1766015951.584888,102
1766015951.585886,100
1766015951.586878,102
1766015951.587898,102
1766015951.588894,101
1766015951.5897548,97
1766015951.590749,99
1766015951.591894,100
1766015951.592895,101
1766015951.593772,97
1766015951.594877,101
1766015951.595774,99
1766015951.596889,101
1766015951.5977678,96
1766015951.5987709,99
1766015951.599786,96
1766015951.600787,94
1766015951.601784,95
1766015951.602771,92
1766015951.6037729,90
1766015951.60478,92
1766015951.605791,88
1766015951.606793,88
1766015951.6078022,89
1766015951.6088152,87
1766015951.609817,86
1766015951.6108081,88
1766015951.611871,84
1766015951.612798,86
1766015951.613895,85
1766015951.614887,85
1766015951.615895,85
1766015951.616905,87
1766015951.617894,87
1766015951.618895,85
1766015951.619875,85
1766015951.620893,81
1766015951.621891,83
1766015951.6228921,82
1766015951.623894,82
1766015951.624894,79
1766015951.625897,80
1766015951.626894,78
1766015951.627893,79
1766015951.628874,80
1766015951.629917,83
1766015951.630877,84
1766015951.631871,90
1766015951.632958,92
1766015951.6338902,93
1766015951.6348941,94
1766015951.635896,91
1766015951.636867,92
1766015951.637904,90
1766015951.638892,90
1766015951.639889,89
1766015951.6409001,87
1766015951.64191,89
1766015951.642905,89
1766015951.6439009,91
1766015951.644875,94
1766015951.645917,93
1766015951.646902,96
1766015951.6479151,93
1766015951.648911,94
1766015951.64991,95
1766015951.6509252,95
1766015951.6519098,95
1766015951.652909,92
1766015951.653924,93
1766015951.654925,91
1766015951.655919,88
1766015951.656919,91
1766015951.657948,89
1766015951.6589298,91
1766015951.659946,88
1766015951.6609468,92
1766015951.661937,87
1766015951.662959,90
1766015951.6639621,86
1766015951.6649652,83
1766015951.665961,83
1766015951.666972,84
1766015951.667974,80
1766015951.6690009,83
1766015951.669961,82
1766015951.670977,81
1766015951.671987,81
1766015951.672992,80
1766015951.6740658,79
1766015951.675057,80
1766015951.675981,78
1766015951.6769972,79
1766015951.6780002,77
1766015951.679005,75
1766015951.6800141,76
1766015951.6810172,75
1766015951.6820102,76
1766015951.683008,76
1766015951.684015,74
1766015951.685014,70
1766015951.686031,72
1766015951.687032,69
1766015951.688024,69
1766015951.68902,72
1766015951.69003,67
1766015951.6910279,67
1766015951.69206,70
1766015951.693043,67
1766015951.694059,67
1766015951.695046,64
1766015951.696061,63
1766015951.6970391,66
1766015951.6980622,67
1766015951.699052,66
1766015951.700056,67
1766015951.701061,65
1766015951.702067,66
1766015951.703048,65
1766015951.7040691,64
1766015951.7050712,65
1766015951.70607,65
1766015951.70708,61
1766015951.708141,63
1766015951.709149,64
1766015951.710102,67
1766015951.711102,64
1766015951.712107,66
1766015951.71311,66
1766015951.714091,64
1766015951.715096,62
1766015951.716102,66
1766015951.717113,65
1766015951.718121,62
1766015951.7191172,64
1766015951.720103,67
1766015951.721128,63
1766015951.722114,63
1766015951.723115,60
1766015951.7241259,61
1766015951.725129,64
1766015951.726131,65
1766015951.727125,61
1766015951.728129,61
1766015951.729132,61
1766015951.730141,59
1766015951.731196,63
1766015951.732175,61
1766015951.733163,65
1766015951.7341492,65
1766015951.7351592,63
1766015951.73618,62
1766015951.737165,66
1766015951.738166,65
1766015951.7391849,61
1766015951.74018,65
1766015951.741188,65
1766015951.742281,63
1766015951.743226,63
1766015951.7441878,66
1766015951.745173,66
1766015951.746192,63
1766015951.7471979,63
1766015951.74819,61
1766015951.7491992,63
1766015951.750258,62
1766015951.751234,63
1766015951.752246,61
1766015951.7532601,60
1766015951.754248,61
1766015951.755213,55
1766015951.756216,58
1766015951.757237,56
1766015951.758239,56
1766015951.759238,58
1766015951.760224,58
1766015951.761261,58
1766015951.7622778,58
1766015951.763268,59
1766015951.764276,55
1766015951.765295,59
1766015951.766277,58
1766015951.767297,55
1766015951.768288,56
1766015951.7692459,58
1766015951.770247,56
1766015951.7712371,56
1766015951.7722769,57
1766015951.7732868,55
1766015951.774288,56
1766015951.7752802,53
1766015951.7762718,54
1766015951.777272,53
1766015951.778264,52
1766015951.779281,53
1766015951.780288,53
1766015951.781274,53
1766015951.782302,53
1766015951.7833111,50
1766015951.7843132,53
1766015951.785295,50
1766015951.786282,52
1766015951.7873,54
1766015951.7883022,56
1766015951.789303,55
1766015951.7902899,52
1766015951.791411,52
1766015951.792394,52
1766015951.793323,48
1766015951.7944162,51
1766015951.7953348,51
1766015951.796334,51
1766015951.7973518,51
1766015951.7983449,49
1766015951.7993479,50
1766015951.800438,50
1766015951.801375,51
1766015951.802367,50
1766015951.803346,50
1766015951.804372,50
1766015951.805384,51
1766015951.8063538,53
1766015951.8074062,51
1766015951.808398,55
1766015951.80939,52
1766015951.810411,53
1766015951.811455,51
1766015951.8123899,54
1766015951.813399,50
1766015951.814358,54
1766015951.815443,53
1766015951.816428,55
1766015951.817399,54
1766015951.818401,54
1766015951.81939,50
1766015951.820392,53
1766015951.8213902,51
1766015951.8223732,52
1766015951.8234,50
1766015951.824415,53
1766015951.825431,56
1766015951.8264298,52
1766015951.8274372,55
1766015951.828425,54
1766015951.82941,51
1766015951.830417,54
1766015951.831412,54
1766015951.832449,53
1766015951.833479,55
1766015951.8344378,53
1766015951.83543,51
1766015951.836441,52
1766015951.837474,50
1766015951.838468,51
1766015951.8394592,49
1766015951.84049,52
1766015951.841488,49
1766015951.842487,48
1766015951.8435369,50
1766015951.8444648,48
1766015951.845471,49
1766015951.846535,46
1766015951.8475368,47
1766015951.8485188,49
1766015951.849544,48
1766015951.850488,49
1766015951.851539,49
1766015951.852538,46
1766015951.8535402,45
1766015951.8544981,46
1766015951.85548,47
1766015951.8565161,45
1766015951.8575082,47
1766015951.858516,49
1766015951.859516,45
1766015951.860518,48
1766015951.8615072,48
1766015951.862527,47
1766015951.86353,48
1766015951.864514,48
1766015951.865521,47
1766015951.8665879,51
1766015951.8675892,51
1766015951.8685818,51
1766015951.8695412,48
1766015951.8705988,48
1766015951.871553,49
1766015951.872601,51
1766015951.873627,52
1766015951.8745852,53
1766015951.87556,52
1766015951.876584,53
1766015951.877578,51
1766015951.878572,51
1766015951.879582,53
1766015951.880579,52
1766015951.881599,51
1766015951.8825989,53
1766015951.883605,54
1766015951.884602,55
1766015951.885615,53
1766015951.88657,52
1766015951.8876019,53
1766015951.888628,50
1766015951.889614,53
1766015951.890607,51
1766015951.8916109,47
1766015951.8926148,51
1766015951.893611,49
1766015951.894596,49
1766015951.8956292,50
1766015951.896671,50
1766015951.897644,50
1766015951.898649,49
1766015951.899641,47
1766015951.9006898,44
1766015951.901654,46
1766015951.90265,48
1766015951.9036381,44
1766015951.904691,47
1766015951.905632,44
1766015951.906713,46
1766015951.90767,47
1766015951.9086962,46
1766015951.909682,45
1766015951.9106922,47
1766015951.9117,46
1766015951.912689,44
1766015951.91369,47
1766015951.914706,46
1766015951.915683,45
1766015951.916689,43
1766015951.917682,44
1766015951.9186718,46
1766015951.919679,43
1766015951.920705,45
1766015951.921686,42
1766015951.922695,42
1766015951.9236999,41
1766015951.924704,42
1766015951.925699,42
1766015951.926723,41
1766015951.9276931,43
1766015951.9287128,44
1766015951.929708,38
1766015951.930729,41
1766015951.9317272,40
1766015951.932737,42
1766015951.9337258,40
1766015951.93474,43
1766015951.935742,43
1766015951.936755,44
1766015951.937732,40
1766015951.9388108,45
1766015951.939782,44
1766015951.940812,44
1766015951.941817,44
1766015951.94277,43
1766015951.943818,43
1766015951.94477,40
1766015951.9457989,40
1766015951.946784,41
1766015951.947797,42
1766015951.9487748,42
1766015951.9498408,42
1766015951.950786,43
1766015951.951843,42
1766015951.9527738,42
1766015951.95384,39
1766015951.954839,39
1766015951.9558558,39
1766015951.95679,38
1766015951.957825,43
1766015951.9588292,40
1766015951.959819,44
1766015951.96082,40
1766015951.961853,39
1766015951.962836,43
1766015951.963812,43
1766015951.9648519,45
1766015951.965871,46
1766015951.9668422,42
1766015951.967896,40
1766015951.968936,44
1766015951.969905,43
1766015951.970952,44
1766015951.971937,46
1766015951.972942,47
1766015951.973936,42
1766015951.9749382,45
1766015951.975952,47
1766015951.976917,44
1766015951.977885,47
1766015951.978894,43
1766015951.979895,44
1766015951.980889,42
1766015951.981889,40
1766015951.982887,46
1766015951.9839501,48
1766015951.984885,47
1766015951.985884,44
1766015951.986888,45
1766015951.987892,42
1766015951.988878,45
1766015951.989922,45
1766015951.990914,46
1766015951.991911,45
1766015951.992906,43
1766015951.993922,45
1766015951.994884,46
1766015951.995923,42
1766015951.996921,44
1766015951.997926,44
1766015951.9989388,46
1766015951.999938,43
1766015952.0009332,40
1766015952.001947,44
1766015952.002922,47
1766015952.0039198,44
1766015952.00491,44
1766015952.00598,45
1766015952.0069902,44
1766015952.0079832,46
1766015952.008984,46
1766015952.009975,46
1766015952.0109959,46
1766015952.0119848,47
1766015952.012956,46
1766015952.013977,46
1766015952.015,41
1766015952.01599,43
1766015952.016995,42
1766015952.017977,43
1766015952.019008,46
1766015952.020044,44
1766015952.021013,43
1766015952.021968,43
1766015952.023019,43
1766015952.024016,39
1766015952.0249999,42
1766015952.0260081,41
1766015952.027028,40
1766015952.028034,38
1766015952.0290098,44
1766015952.030027,41
1766015952.031041,40
1766015952.032046,41
1766015952.033049,41
1766015952.034027,41
1766015952.0350568,40
1766015952.036045,41
1766015952.0370612,45
1766015952.038056,42
1766015952.039053,45
1766015952.040073,48
1766015952.041064,47
1766015952.0420291,44
1766015952.0430772,47
1766015952.044069,47
1766015952.0450811,49
1766015952.046082,50
1766015952.047084,50
1766015952.0480971,51
1766015952.0490959,53
1766015952.0500531,51
1766015952.051106,49
1766015952.052084,52
1766015952.0530958,49
1766015952.054087,51
1766015952.055113,50
1766015952.056097,48
1766015952.0571048,49
1766015952.0580878,49
1766015952.059081,48
1766015952.060093,51
1766015952.061088,48
1766015952.062092,44
1766015952.0630882,45
1766015952.064084,46
1766015952.065093,48
1766015952.0660968,42
1766015952.067105,46
1766015952.068105,47
1766015952.0691042,46
1766015952.070113,43
1766015952.071125,45
1766015952.07216,44
1766015952.0731258,45
1766015952.074146,46
1766015952.075126,48
1766015952.0761201,45
1766015952.077145,45
1766015952.078155,45
1766015952.079185,48
1766015952.080174,47
1766015952.081147,47
1766015952.082183,46
1766015952.083161,47
1766015952.08413,47
1766015952.0851672,49
1766015952.086197,48
1766015952.0871549,50
1766015952.0881972,44
1766015952.089171,47
1766015952.090197,45
1766015952.091169,42
1766015952.092187,43
1766015952.093229,45
1766015952.0942268,45
1766015952.095177,44
1766015952.096222,46
1766015952.0971909,46
1766015952.0982242,46
1766015952.099207,47
1766015952.100227,49
1766015952.101204,50
1766015952.1022239,47
1766015952.1032262,48
1766015952.104254,48
1766015952.1052392,46
1766015952.106236,46
1766015952.107243,47
1766015952.108248,48
1766015952.109219,45
1766015952.1102479,46
1766015952.111273,47
1766015952.112254,45
1766015952.1132438,45
1766015952.1142778,47
1766015952.115262,43
1766015952.116259,47
1766015952.1172621,43
1766015952.1182568,42
1766015952.119274,44
1766015952.120285,42
1766015952.121282,41
1766015952.122292,45
1766015952.123302,40
1766015952.1243038,41
1766015952.125294,40
1766015952.1263108,42
1766015952.127326,40
1766015952.128331,39
1766015952.129316,39
1766015952.130322,38
1766015952.131306,41
1766015952.132319,39
1766015952.133316,38
1766015952.134322,37
1766015952.135326,40
1766015952.1363368,41
1766015952.137316,42
1766015952.1383271,42
1766015952.139335,42
1766015952.140335,38
1766015952.141333,42
1766015952.1423502,40
1766015952.1433332,38
1766015952.144344,40
1766015952.145337,40
1766015952.146353,41
1766015952.14736,40
1766015952.148354,38
1766015952.149339,43
1766015952.150353,44
1766015952.151354,46
1766015952.152354,46
1766015952.153357,46
1766015952.154359,49
1766015952.155415,44
1766015952.1563652,48
1766015952.157324,50
1766015952.158329,48
1766015952.1593652,46
1766015952.160338,47
1766015952.161385,48
1766015952.162343,46
1766015952.163382,49
1766015952.164365,47
1766015952.16541,48
1766015952.1663418,48
1766015952.167404,50
1766015952.1684322,49
1766015952.169413,49
1766015952.1704361,46
1766015952.171436,48
1766015952.172461,48
1766015952.173444,46
1766015952.174443,47
1766015952.17541,45
1766015952.1764019,48
1766015952.1774201,42
1766015952.178405,45
1766015952.17941,44
1766015952.180419,45
1766015952.181428,50
1766015952.182419,47
1766015952.183454,50
1766015952.1844292,53
1766015952.185421,54
1766015952.186471,56
1766015952.1874602,57
1766015952.1884449,53
1766015952.189458,56
1766015952.190458,57
1766015952.191427,55
1766015952.1924832,57
1766015952.1934688,58
1766015952.19447,55
1766015952.1954718,55
1766015952.1964428,53
1766015952.1974761,51
1766015952.1984808,49
1766015952.1994722,50
1766015952.2004638,51
1766015952.2014499,53
1766015952.2025118,50
1766015952.2035031,50
1766015952.204461,50
1766015952.20546,49
1766015952.206476,50
1766015952.20751,48
1766015952.208508,49
1766015952.2095082,49
1766015952.210515,47
1766015952.211534,52
1766015952.21253,48
1766015952.21354,48
1766015952.214539,50
1766015952.21554,48
1766015952.216535,47
1766015952.217534,49
1766015952.218539,50
1766015952.219533,49
1766015952.220553,46
1766015952.221548,46
1766015952.22256,47
1766015952.223541,50
1766015952.224543,45
1766015952.225544,43
1766015952.226561,46
1766015952.2275698,44
1766015952.2285771,44
1766015952.229573,43
1766015952.230577,47
1766015952.231574,45
1766015952.232584,43
1766015952.2335649,45
1766015952.234611,47
1766015952.2355788,46
1766015952.2365901,46
1766015952.2375848,45
1766015952.238592,45
1766015952.239582,47
1766015952.240591,47
1766015952.24159,46
1766015952.2426062,44
1766015952.243593,45
1766015952.244616,45
1766015952.245614,43
1766015952.246619,44
1766015952.247605,42
1766015952.248611,41
1766015952.249623,41
1766015952.250613,43
1766015952.2516391,40
1766015952.252649,41
1766015952.253655,45
1766015952.254646,42
1766015952.255639,40
1766015952.256639,41
1766015952.257637,40
1766015952.258647,42
1766015952.259658,43
1766015952.260651,40
1766015952.261649,43
1766015952.262654,43
1766015952.263671,41
1766015952.2646568,46
1766015952.265695,42
1766015952.2666838,46
1766015952.2676852,44
1766015952.268681,43
1766015952.269679,43
1766015952.2706811,44
1766015952.2716851,41
1766015952.272676,43
1766015952.273686,40
1766015952.274697,43
1766015952.2756941,40
1766015952.276691,42
1766015952.277698,38
1766015952.278702,39
1766015952.279702,40
1766015952.2807,39
1766015952.281715,42
1766015952.2827148,42
1766015952.2837179,40
1766015952.284717,41
1766015952.285721,37
1766015952.2867332,37
1766015952.287714,41
1766015952.288752,39
1766015952.289732,38
1766015952.290739,38
1766015952.29175,37
