timestamp,emg_value
1766015932.0290089,46
1766015932.029015,44
1766015932.029021,47
1766015932.029026,45
1766015932.0290308,43
1766015932.029036,43
1766015932.0290408,45
1766015932.029046,45
1766015932.0290508,45
1766015932.029056,43
1766015932.029061,42
1766015932.029066,42
1766015932.029071,47
1766015932.029075,44
1766015932.029079,45
1766015932.029084,44
1766015932.029088,45
1766015932.029093,47
1766015932.029099,45
1766015932.029105,45
1766015932.029112,41
1766015932.029118,41
1766015932.029123,45
1766015932.0291321,43
1766015932.029137,45
1766015932.029142,46
1766015932.029147,46
1766015932.029152,46
1766015932.02916,49
1766015932.029165,50
1766015932.0291688,49
1766015932.029174,47
1766015932.029187,49
1766015932.029192,48
1766015932.029197,47
1766015932.029202,48
1766015932.029207,48
1766015932.0292108,48
1766015932.029216,49
1766015932.029221,46
1766015932.029226,45
1766015932.029231,45
1766015932.029236,44
1766015932.029241,45
1766015932.0292459,46
1766015932.0292501,47
1766015932.029255,47
1766015932.029264,44
1766015932.029269,45
1766015932.0292742,44
1766015932.029278,45
1766015932.0292869,41
1766015932.029292,44
1766015932.0292969,42
1766015932.0293021,42
1766015932.0293062,41
1766015932.029311,42
1766015932.0293162,40
1766015932.029321,42
1766015932.029326,39
1766015932.029331,42
1766015932.029336,42
1766015932.029344,40
1766015932.029349,42
1766015932.029356,42
1766015932.029363,42
1766015932.0293682,39
1766015932.029376,39
1766015932.029381,39
1766015932.029386,37
1766015932.029391,38
1766015932.029396,36
1766015932.0294,39
1766015932.0294049,40
1766015932.0294101,37
1766015932.029415,39
1766015932.0294201,39
1766015932.0294259,38
1766015932.0294342,38
1766015932.029439,38
1766015932.029444,36
1766015932.029449,38
1766015932.029454,38
1766015932.029462,39
1766015932.0294669,36
1766015932.029471,39
1766015932.0294762,39
1766015932.029484,38
1766015932.0294888,39
1766015932.029494,42
1766015932.0294988,38
1766015932.029504,40
1766015932.029512,39
1766015932.0295172,38
1766015932.029522,40
1766015932.029527,37
1766015932.0295308,38
1766015932.02954,39
1766015932.029546,40
1766015932.029553,39
1766015932.029557,38
1766015932.029562,41
1766015932.029567,38
1766015932.0295758,39
1766015932.02958,38
1766015932.029585,40
1766015932.0295901,37
1766015932.029595,38
1766015932.029603,37
1766015932.029609,38
1766015932.029614,39
1766015932.029619,40
1766015932.029623,37
1766015932.029632,37
1766015932.029637,39
1766015932.029643,39
1766015932.0296488,37
1766015932.029654,37
1766015932.0296588,37
1766015932.029664,36
1766015932.029668,35
1766015932.0296729,37
1766015932.029678,39
1766015932.029686,36
1766015932.029691,38
1766015932.029696,37
1766015932.0297012,36
1766015932.029706,39
1766015932.0297139,39
1766015932.029719,43
1766015932.029724,45
1766015932.029731,41
1766015932.029736,45
1766015932.0297458,43
1766015932.029751,43
1766015932.0297558,44
1766015932.02976,43
1766015932.0297651,43
1766015932.02977,43
1766015932.0297751,43
1766015932.029779,42
1766015932.029784,43
1766015932.029789,41
1766015932.029794,43
1766015932.029799,42
1766015932.029803,42
1766015932.029809,40
1766015932.029815,41
1766015932.02982,39
1766015932.029825,40
1766015932.02983,41
1766015932.029839,39
1766015932.029844,45
1766015932.029848,43
1766015932.0298529,41
1766015932.029858,44
1766015932.0298629,42
1766015932.029867,44
1766015932.0298722,41
1766015932.029877,40
1766015932.0298822,42
1766015932.02989,36
1766015932.0298948,44
1766015932.0299,42
1766015932.0299048,41
1766015932.029911,42
1766015932.0299158,44
1766015932.029922,41
1766015932.029927,43
1766015932.029932,42
1766015932.029941,42
1766015932.029946,41
1766015932.0299509,42
1766015932.029956,39
1766015932.0299609,41
1766015932.0299652,39
1766015932.02997,41
1766015932.029975,40
1766015932.02998,39
1766015932.029985,39
1766015932.02999,39
1766015932.029995,40
1766015932.029999,39
1766015932.030004,33
1766015932.030009,37
1766015932.030014,36
1766015932.030019,37
1766015932.0300229,40
1766015932.030028,41
1766015932.0300329,37
1766015932.030038,37
1766015932.0300422,33
1766015932.030047,35
1766015932.0300522,35
1766015932.030057,35
1766015932.0300622,35
1766015932.030066,37
1766015932.030071,40
1766015932.0300758,35
1766015932.030082,34
1766015932.030087,37
1766015932.0300941,37
1766015932.030099,36
1766015932.0301042,35
1766015932.030108,35
1766015932.030113,34
1766015932.030118,35
1766015932.030123,37
1766015932.030127,35
1766015932.030132,36
1766015932.030137,31
1766015932.030142,31
1766015932.030147,36
1766015932.030151,34
1766015932.0301561,33
1766015932.030161,33
1766015932.030166,34
1766015932.030171,33
1766015932.030176,34
1766015932.03018,33
1766015932.030185,33
1766015932.03019,33
1766015932.030195,35
1766015932.0302,32
1766015932.030205,34
1766015932.030209,33
1766015932.0302138,31
1766015932.030219,30
1766015932.0302238,33
1766015932.030228,32
1766015932.0302331,32
1766015932.0302389,32
1766015932.030244,33
1766015932.0302489,31
1766015932.03026,31
1766015932.030268,31
1766015932.030272,33
1766015932.030277,32
1766015932.030282,29
1766015932.030287,30
1766015932.030292,33
1766015932.0303009,29
1766015932.030306,30
1766015932.0303109,30
1766015932.030315,30
1766015932.0303202,31
1766015932.030329,32
1766015932.030334,34
1766015932.030339,32
1766015932.030344,32
1766015932.030349,29
1766015932.0303528,28
1766015932.030358,27
1766015932.0303628,31
1766015932.030368,30
1766015932.030373,31
1766015932.030377,30
1766015932.0303822,31
1766015932.030387,30
1766015932.0303922,30
1766015932.030397,29
1766015932.030401,30
1766015932.030406,30
1766015932.030411,31
1766015932.0304158,28
1766015932.030421,32
1766015932.030425,30
1766015932.030432,29
1766015932.0304372,30
1766015932.030445,28
1766015932.0304499,30
1766015932.030455,33
1766015932.0304608,31
1766015932.030467,27
1766015932.030472,30
1766015932.030477,30
1766015932.0304818,31
1766015932.030486,31
1766015932.0304909,30
1766015932.030496,28
1766015932.0305011,30
1766015932.030506,29
1766015932.0305102,28
1766015932.030515,27
1766015932.03052,27
1766015932.030525,26
1766015932.03053,29
1766015932.030535,31
1766015932.030539,31
1766015932.0305438,31
1766015932.030549,27
1766015932.030554,30
1766015932.030559,28
1766015932.030564,29
1766015932.030568,30
1766015932.0305731,28
1766015932.030578,27
1766015932.0305831,27
1766015932.030588,30
1766015932.030592,30
1766015932.0305972,29
1766015932.0306041,30
1766015932.030609,29
1766015932.030615,30
1766015932.0306208,29
1766015932.030626,29
1766015932.0306308,31
1766015932.030635,27
1766015932.0306401,32
1766015932.030645,29
1766015932.0306501,27
1766015932.030654,29
1766015932.030659,27
1766015932.030664,29
1766015932.030669,29
1766015932.0306728,26
1766015932.0306811,28
1766015932.030686,29
1766015932.03069,27
1766015932.030695,24
1766015932.0307,28
1766015932.030705,27
1766015932.03071,29
1766015932.030715,27
1766015932.030719,32
1766015932.030724,28
1766015932.030729,29
1766015932.030734,30
1766015932.0307379,27
1766015932.0307431,27
1766015932.030748,31
1766015932.0307531,30
1766015932.030758,29
1766015932.030762,27
1766015932.0307672,28
1766015932.030772,27
1766015932.0307798,28
1766015932.030784,30
1766015932.030792,31
1766015932.030797,31
1766015932.030802,32
1766015932.030806,29
1766015932.0308108,29
1766015932.030816,27
1766015932.030821,29
1766015932.030826,29
1766015932.0308301,26
1766015932.030835,29
1766015932.030841,28
1766015932.030847,29
1766015932.030852,25
1766015932.0308568,27
1766015932.030862,29
1766015932.0308669,30
1766015932.030872,31
1766015932.0308769,28
1766015932.030881,31
1766015932.030886,31
1766015932.030891,32
1766015932.0308962,29
1766015932.0309,27
1766015932.030905,29
1766015932.03091,28
1766015932.030915,28
1766015932.0309188,29
1766015932.030924,30
1766015932.0309289,25
1766015932.030934,31
1766015932.0309389,27
1766015932.030943,32
1766015932.0309498,30
1766015932.030957,24
1766015932.030962,29
1766015932.030967,28
1766015932.030972,29
1766015932.030977,27
1766015932.030981,27
1766015932.030986,27
1766015932.030991,29
1766015932.030996,29
1766015932.031001,27
1766015932.031005,30
1766015932.0310102,29
1766015932.031015,27
1766015932.03102,28
1766015932.031025,29
1766015932.03103,26
1766015932.031035,27
1766015932.031039,26
1766015932.031044,28
1766015932.031049,29
1766015932.031054,31
1766015932.0310578,27
1766015932.031063,27
1766015932.0310678,28
1766015932.031073,27
1766015932.0310771,28
1766015932.031082,29
1766015932.0310872,28
1766015932.031092,27
1766015932.031096,25
1766015932.031101,29
1766015932.031106,26
1766015932.031111,27
1766015932.031119,27
1766015932.031125,29
1766015932.0311308,29
1766015932.031137,25
1766015932.031142,25
1766015932.031147,28
1766015932.031152,26
1766015932.031157,29
1766015932.031162,26
1766015932.031167,26
1766015932.031171,26
1766015932.0311759,23
1766015932.031181,22
1766015932.0311859,25
1766015932.03119,22
1766015932.031195,26
1766015932.0312,24
1766015932.0312052,26
1766015932.03121,22
1766015932.0312161,28
1766015932.031222,24
1766015932.0312269,26
1766015932.031232,25
1766015932.0312362,24
1766015932.031241,24
1766015932.0312462,23
1766015932.031251,25
1766015932.031255,24
1766015932.03126,22
1766015932.031265,27
1766015932.0312698,24
1766015932.031275,25
1766015932.031279,26
1766015932.031286,22
1766015932.031292,25
1766015932.031297,23
1766015932.031302,23
1766015932.031308,25
1766015932.031314,23
1766015932.0313191,25
1766015932.031323,25
1766015932.031328,24
1766015932.0313332,24
1766015932.031338,25
1766015932.0313432,25
1766015932.031348,22
1766015932.031352,24
1766015932.031358,23
1766015932.0313642,27
1766015932.031369,23
1766015932.031374,22
1766015932.031379,25
1766015932.031384,28
1766015932.031389,22
1766015932.031394,23
1766015932.0313978,24
1766015932.031403,22
1766015932.031408,23
1766015932.031413,23
1766015932.031418,23
1766015932.031422,24
1766015932.0314271,22
1766015932.031432,23
1766015932.0314372,25
1766015932.031442,27
1766015932.031446,22
1766015932.031453,25
1766015932.031459,23
1766015932.0314639,26
1766015932.031469,24
1766015932.031473,25
1766015932.0314791,23
1766015932.0314848,24
1766015932.03149,26
1766015932.0314949,25
1766015932.0315,24
1766015932.0315049,25
1766015932.03151,23
1766015932.031515,23
1766015932.03152,24
1766015932.0315242,23
1766015932.031529,24
1766015932.0315342,24
1766015932.031539,25
1766015932.031544,26
1766015932.031549,22
1766015932.031554,24
1766015932.0315578,26
1766015932.031563,25
1766015932.0315678,26
1766015932.031573,23
1766015932.031578,25
1766015932.0315819,23
1766015932.0315871,24
1766015932.031592,27
1766015932.0315971,24
1766015932.031602,20
1766015932.0316072,25
1766015932.031612,23
1766015932.031619,26
1766015932.031625,20
1766015932.03163,22
1766015932.031635,24
1766015932.03164,26
1766015932.0316448,23
1766015932.031649,27
1766015932.031654,23
1766015932.0316591,22
1766015932.0316641,22
1766015932.031669,23
1766015932.0316732,23
1766015932.031678,23
1766015932.031683,22
1766015932.031688,21
1766015932.031693,21
1766015932.031698,27
1766015932.031703,21
1766015932.031708,25
1766015932.031712,22
1766015932.031717,24
1766015932.031722,26
1766015932.031727,25
1766015932.031732,24
1766015932.031737,24
1766015932.0317419,20
1766015932.0317461,25
1766015932.031751,24
1766015932.031756,25
1766015932.031761,25
1766015932.031766,21
1766015932.031771,24
1766015932.031775,23
1766015932.031782,23
1766015932.031788,22
1766015932.0317929,25
1766015932.0317981,22
1766015932.031803,22
1766015932.031808,27
1766015932.0318122,24
1766015932.031817,23
1766015932.031822,26
1766015932.031827,25
1766015932.031832,27
1766015932.031837,26
1766015932.031841,32
1766015932.0318458,29
1766015932.031851,30
1766015932.031856,34
1766015932.031861,32
1766015932.031866,31
1766015932.031871,31
1766015932.0318751,32
1766015932.03188,34
1766015932.0318851,34
1766015932.03189,30
1766015932.031895,33
1766015932.0319,35
1766015932.031904,36
1766015932.0319092,31
1766015932.031914,34
1766015932.031919,35
1766015932.031924,35
1766015932.031928,36
1766015932.0319328,32
1766015932.031938,35
1766015932.031945,35
1766015932.0319512,35
1766015932.031956,33
1766015932.0319612,33
1766015932.031966,32
1766015932.03197,31
1766015932.031975,37
1766015932.03198,34
1766015932.0319848,36
1766015932.03199,31
1766015932.031994,32
1766015932.0319989,32
1766015932.032004,35
1766015932.032009,35
1766015932.0320141,32
1766015932.032018,32
1766015932.032023,33
1766015932.032028,33
1766015932.032033,33
1766015932.032038,34
1766015932.032042,31
1766015932.032047,30
1766015932.032052,35
1766015932.032057,32
1766015932.032062,34
1766015932.032067,33
1766015932.0320709,34
1766015932.0320761,32
1766015932.032081,34
1766015932.0320861,31
1766015932.0320902,34
1766015932.032095,35
1766015932.0321002,33
1766015932.032107,33
1766015932.0321128,36
1766015932.032118,36
1766015932.0321229,36
1766015932.032128,35
1766015932.032133,38
1766015932.0321379,34
1766015932.0321422,38
1766015932.032147,37
1766015932.0321522,37
1766015932.032157,36
1766015932.032162,36
1766015932.032167,39
1766015932.032171,39
1766015932.032176,36
1766015932.032181,38
1766015932.032186,35
1766015932.032191,33
1766015932.032196,38
1766015932.032201,36
1766015932.032205,36
1766015932.0322099,36
1766015932.032215,34
1766015932.03222,38
1766015932.0322251,34
1766015932.03223,35
1766015932.032234,39
1766015932.0322392,39
1766015932.032244,35
1766015932.032249,37
1766015932.032254,35
1766015932.032259,36
1766015932.032264,33
1766015932.0322702,35
1766015932.032277,38
1766015932.032282,39
1766015932.032287,39
1766015932.0322912,38
1766015932.032296,37
1766015932.032301,38
1766015932.032306,37
1766015932.032311,40
1766015932.0323148,36
1766015932.03232,39
1766015932.032325,38
1766015932.03233,40
1766015932.032335,38
1766015932.03234,41
1766015932.032344,37
1766015932.0323489,38
1766015932.032354,44
1766015932.032359,43
1766015932.0323641,43
1766015932.032369,43
1766015932.032374,46
1766015932.032379,45
1766015932.032383,46
1766015932.0323882,46
1766015932.032393,47
1766015932.032398,46
1766015932.032403,44
1766015932.032407,46
1766015932.0324118,44
1766015932.032417,47
1766015932.0324218,45
1766015932.032427,47
1766015932.032434,48
1766015932.03244,45
1766015932.032445,50
1766015932.032449,48
1766015932.0324538,48
1766015932.032459,45
1766015932.0324638,46
1766015932.032469,45
1766015932.032474,45
1766015932.0324779,44
1766015932.032483,48
1766015932.0324879,45
1766015932.032493,45
1766015932.032498,43
1766015932.0325031,44
1766015932.032508,44
1766015932.032512,46
1766015932.0325172,47
1766015932.032522,48
1766015932.0325272,49
1766015932.032532,46
1766015932.032537,49
1766015932.032542,50
1766015932.032547,49
1766015932.0325508,45
1766015932.032556,43
1766015932.0325608,46
1766015932.032566,46
1766015932.0325708,44
1766015932.032576,44
1766015932.0325801,46
1766015932.032585,49
1766015932.0325902,43
1766015932.032597,47
1766015932.0326028,46
1766015932.032608,44
1766015932.032612,46
1766015932.0326169,45
1766015932.032622,45
1766015932.0326269,45
1766015932.032632,47
1766015932.032637,44
1766015932.032641,44
1766015932.032646,47
1766015932.032651,47
1766015932.032656,46
1766015932.032661,48
1766015932.032665,45
1766015932.03267,47
1766015932.032675,44
1766015932.03268,48
1766015932.032685,45
1766015932.0326898,48
1766015932.032695,48
1766015932.0326989,46
1766015932.032704,46
1766015932.0327091,49
1766015932.032714,47
1766015932.0327191,47
1766015932.032723,48
1766015932.032728,47
1766015932.032733,47
1766015932.032738,46
1766015932.032743,48
1766015932.032748,46
1766015932.032752,42
1766015932.0327628,45
1766015932.032769,46
1766015932.032774,46
1766015932.032778,45
1766015932.032783,46
1766015932.032788,46
1766015932.032793,48
1766015932.032798,42
1766015932.032803,50
1766015932.0328069,44
1766015932.032812,46
1766015932.032817,45
1766015932.0328221,46
1766015932.032827,47
1766015932.032832,50
1766015932.0328362,51
1766015932.032841,50
1766015932.032846,50
1766015932.032851,49
1766015932.032856,49
1766015932.032861,51
1766015932.032865,51
1766015932.0328698,54
1766015932.032875,53
1766015932.03288,52
1766015932.032885,54
1766015932.03289,52
1766015932.032895,53
1766015932.0328991,51
1766015932.032904,52
1766015932.0329092,53
1766015932.032914,55
1766015932.032919,55
1766015932.032925,56
1766015932.032932,54
1766015932.0329359,53
1766015932.032941,56
1766015932.0329459,56
1766015932.032951,57
1766015932.032955,56
1766015932.03296,53
1766015932.0329652,56
1766015932.03297,55
1766015932.0329752,55
1766015932.03298,53
1766015932.032984,53
1766015932.032989,54
1766015932.032994,54
1766015932.0329988,53
1766015932.033004,53
1766015932.033008,52
1766015932.033013,53
1766015932.033018,52
1766015932.0330229,57
1766015932.0330281,55
1766015932.033033,53
1766015932.033037,53
1766015932.033042,56
1766015932.033047,52
1766015932.033052,56
1766015932.033057,55
1766015932.033062,53
1766015932.033067,56
1766015932.0330722,54
1766015932.033076,53
1766015932.033081,54
1766015932.033091,53
1766015932.033097,56
1766015932.033102,52
1766015932.033107,51
1766015932.033112,53
1766015932.0331168,54
1766015932.033121,54
1766015932.0331259,54
1766015932.0331311,52
1766015932.0331361,55
1766015932.033141,54
1766015932.0331461,51
1766015932.03315,49
1766015932.033155,52
1766015932.03316,56
1766015932.033165,55
1766015932.03317,53
1766015932.033175,52
1766015932.03318,54
1766015932.033185,55
1766015932.033189,56
1766015932.033194,52
1766015932.033199,53
1766015932.033204,57
1766015932.033209,55
1766015932.0332139,55
1766015932.033219,56
1766015932.0332239,54
1766015932.033229,54
1766015932.033234,57
1766015932.0332391,52
1766015932.033244,55
1766015932.033248,55
1766015932.0332549,58
1766015932.033262,60
1766015932.0332658,59
1766015932.033271,59
1766015932.0332758,57
1766015932.033281,60
1766015932.0332859,58
1766015932.033291,58
1766015932.0332959,60
1766015932.0333,58
1766015932.0333052,55
1766015932.03331,57
1766015932.0333152,56
1766015932.03332,53
1766015932.033325,54
1766015932.03333,54
1766015932.033335,55
1766015932.03334,56
1766015932.033345,55
1766015932.03335,57
1766015932.033355,55
1766015932.0333598,51
1766015932.033365,52
1766015932.03337,52
1766015932.033374,52
1766015932.033379,52
1766015932.0333838,51
1766015932.033389,52
1766015932.0333939,52
1766015932.033399,51
1766015932.0334039,53
1766015932.033409,51
1766015932.033414,53
1766015932.033421,52
1766015932.033427,51
1766015932.0334332,51
1766015932.033438,49
1766015932.033442,55
1766015932.033447,52
1766015932.033452,51
1766015932.0334568,53
1766015932.033462,50
1766015932.0334668,55
1766015932.033472,54
1766015932.033476,56
1766015932.033481,53
1766015932.0334861,53
1766015932.033491,51
1766015932.0334961,53
1766015932.033501,54
1766015932.0335062,50
1766015932.03351,54
1766015932.033515,50
1766015932.0335202,53
1766015932.033525,52
1766015932.03353,54
1766015932.033535,55
1766015932.033539,52
1766015932.0335438,49
1766015932.033549,51
1766015932.0335538,53
1766015932.033559,53
1766015932.033563,50
1766015932.033568,50
1766015932.0335732,51
1766015932.033578,49
1766015932.033584,54
1766015932.03359,50
1766015932.0335948,51
1766015932.0336,53
1766015932.0336041,53
1766015932.033609,53
1766015932.0336142,51
1766015932.033618,50
1766015932.033623,53
1766015932.033628,49
1766015932.033633,49
1766015932.033637,52
1766015932.033642,47
1766015932.033647,50
1766015932.033652,52
1766015932.033657,49
1766015932.033663,51
1766015932.0336692,47
1766015932.033674,52
1766015932.033679,52
1766015932.033683,49
1766015932.033688,50
1766015932.0336928,52
1766015932.033698,50
1766015932.0337029,50
1766015932.033707,51
1766015932.0337121,48
1766015932.033717,51
1766015932.0337222,49
1766015932.033726,51
1766015932.033731,47
1766015932.033736,50
1766015932.033741,47
1766015932.033748,51
1766015932.033754,48
1766015932.033758,53
1766015932.0337632,50
1766015932.033768,50
1766015932.033773,47
1766015932.033778,50
1766015932.033782,49
1766015932.0337868,51
1766015932.033792,48
1766015932.033797,48
1766015932.033802,52
1766015932.033806,48
1766015932.0338109,48
1766015932.033816,48
1766015932.03382,48
1766015932.033825,48
1766015932.03383,45
1766015932.033835,48
1766015932.033839,46
1766015932.033844,48
1766015932.033849,48
1766015932.033854,49
1766015932.033858,46
1766015932.0338628,48
1766015932.033868,47
1766015932.0338728,50
1766015932.033877,47
1766015932.0338821,45
1766015932.033887,45
1766015932.0338922,47
1766015932.033896,44
1766015932.033901,48
1766015932.033908,45
1766015932.0339148,49
1766015932.0339189,48
1766015932.033924,49
1766015932.0339289,47
1766015932.033934,46
1766015932.033939,46
1766015932.033943,46
1766015932.033948,44
1766015932.033953,47
1766015932.033958,43
1766015932.033963,42
1766015932.033969,43
1766015932.033974,45
1766015932.03398,44
1766015932.033984,45
1766015932.0339892,46
1766015932.033994,45
1766015932.0339992,46
1766015932.034004,47
1766015932.034009,42
1766015932.034013,47
1766015932.034018,46
1766015932.0340228,47
1766015932.034028,43
1766015932.034032,44
1766015932.0340369,41
1766015932.0340421,45
1766015932.034048,43
1766015932.0340538,43
1766015932.034059,41
1766015932.034063,41
1766015932.0340679,43
1766015932.0340748,44
1766015932.034081,45
1766015932.034086,43
1766015932.03409,45
1766015932.034095,42
1766015932.0341,43
1766015932.034105,42
1766015932.0341089,44
1766015932.0341141,44
1766015932.034119,44
1766015932.0341241,41
1766015932.034129,43
1766015932.034133,43
1766015932.0341382,43
1766015932.034143,40
1766015932.034147,43
1766015932.034152,42
1766015932.034157,42
1766015932.0341618,42
1766015932.034166,41
1766015932.0341709,42
1766015932.034176,42
1766015932.034181,42
1766015932.034185,42
1766015932.0341902,42
1766015932.034195,42
1766015932.0342,40
1766015932.034204,41
1766015932.034209,41
1766015932.0342138,38
1766015932.034219,39
1766015932.034223,41
1766015932.034228,41
1766015932.0342348,38
1766015932.034241,40
1766015932.034246,40
1766015932.03425,41
1766015932.034255,40
1766015932.03426,40
1766015932.034265,40
1766015932.0342689,39
1766015932.034274,38
1766015932.0342789,36
1766015932.034283,38
1766015932.0342882,38
1766015932.034293,38
1766015932.0342982,37
1766015932.034303,37
1766015932.034307,35
1766015932.034312,36
1766015932.034317,33
1766015932.0343208,40
1766015932.034326,34
1766015932.0343308,39
1766015932.034336,38
1766015932.0343401,36
1766015932.034345,38
1766015932.0343502,34
1766015932.034355,38
1766015932.0343602,35
1766015932.034364,35
1766015932.034369,34
1766015932.034374,32
1766015932.034379,35
1766015932.0343838,33
1766015932.034388,36
1766015932.034395,36
1766015932.034401,34
1766015932.034406,34
1766015932.034411,34
1766015932.0344162,35
1766015932.03442,32
1766015932.034425,32
1766015932.03443,34
1766015932.034435,32
1766015932.0344388,34
1766015932.034444,35
1766015932.0344489,34
1766015932.034454,31
1766015932.0344582,33
1766015932.034463,30
1766015932.0344682,32
1766015932.034473,30
1766015932.0344782,31
1766015932.034482,29
1766015932.034487,31
1766015932.034492,33
1766015932.034496,30
1766015932.034501,30
1766015932.034506,29
1766015932.034511,31
1766015932.034515,33
1766015932.0345201,30
1766015932.034525,26
1766015932.0345302,30
1766015932.034534,32
1766015932.034539,32
1766015932.0345442,30
1766015932.034549,29
1766015932.034556,32
1766015932.034561,32
1766015932.0345669,32
1766015932.034573,33
1766015932.034579,32
1766015932.034584,32
1766015932.0345888,33
1766015932.034594,31
1766015932.0345988,31
1766015932.034604,29
1766015932.0346081,32
1766015932.034613,31
1766015932.0346181,30
1766015932.034623,28
1766015932.034627,27
1766015932.034632,27
1766015932.034637,30
1766015932.034642,28
1766015932.034646,30
1766015932.0346508,28
1766015932.034656,30
1766015932.034661,30
1766015932.034666,28
1766015932.03467,31
1766015932.034675,28
1766015932.0346801,26
1766015932.034685,26
1766015932.034689,29
1766015932.034694,26
1766015932.034699,28
1766015932.034704,28
1766015932.034708,24
1766015932.034713,30
1766015932.034718,28
1766015932.034723,28
1766015932.03473,30
1766015932.0347352,28
1766015932.03474,29
1766015932.0347462,30
1766015932.034752,26
1766015932.0347571,25
1766015932.034762,28
1766015932.0347672,29
1766015932.034771,28
1766015932.034776,27
1766015932.034781,27
1766015932.034786,28
1766015932.0347898,28
1766015932.034795,29
1766015932.0348,26
1766015932.034805,26
1766015932.03481,28
1766015932.034814,27
1766015932.0348191,27
1766015932.034824,29
1766015932.0348291,26
1766015932.034833,29
1766015932.034838,26
1766015932.034843,27
1766015932.034848,28
1766015932.034852,30
1766015932.034857,29
1766015932.034862,28
1766015932.034867,25
1766015932.034872,30
1766015932.0348759,27
1766015932.034881,27
1766015932.034886,26
1766015932.034893,25
1766015932.034899,26
1766015932.034904,27
1766015932.0349078,28
1766015932.034913,28
1766015932.0349178,27
1766015932.034923,27
1766015932.034928,26
1766015932.034932,27
1766015932.0349371,25
1766015932.034942,25
1766015932.0349472,29
1766015932.034952,25
1766015932.034956,24
1766015932.034961,28
1766015932.034966,26
1766015932.034971,26
1766015932.034975,30
1766015932.03498,25
1766015932.034985,26
1766015932.03499,29
1766015932.0349948,29
1766015932.0349991,26
1766015932.035004,27
1766015932.035009,26
1766015932.035014,28
1766015932.035018,26
1766015932.0350232,25
1766015932.035028,27
1766015932.035033,25
1766015932.035038,28
1766015932.035042,28
1766015932.0350468,24
1766015932.0350552,27
1766015932.03506,27
1766015932.0350652,25
1766015932.03507,24
1766015932.035074,27
1766015932.035079,25
1766015932.035084,27
1766015932.0350888,26
1766015932.035095,30
1766015932.035101,30
1766015932.035106,25
1766015932.035111,29
1766015932.035115,27
1766015932.03512,25
1766015932.035125,23
1766015932.03513,25
1766015932.035135,28
1766015932.03514,27
1766015932.0351439,30
1766015932.035149,26
1766015932.0351539,27
1766015932.035159,27
1766015932.0351639,24
1766015932.035168,25
1766015932.0351732,27
1766015932.035178,24
1766015932.0351832,25
1766015932.035188,29
1766015932.035192,25
1766015932.035197,25
1766015932.035202,25
1766015932.0352068,28
1766015932.035211,24
1766015932.035219,25
1766015932.035224,29
1766015932.035229,26
1766015932.035234,26
1766015932.035239,27
1766015932.035244,31
1766015932.03525,28
1766015932.0352561,27
1766015932.035261,27
1766015932.035265,30
1766015932.03527,26
1766015932.035275,27
1766015932.03528,27
1766015932.035285,26
1766015932.03529,27
1766015932.035295,25
1766015932.035299,29
1766015932.035327,27
1766015932.035372,26
1766015932.035412,24
1766015932.035425,26
1766015932.03549,26
1766015932.035498,26
1766015932.0355031,24
1766015932.035508,29
1766015932.0355132,29
1766015932.035548,25
1766015932.0355651,26
1766015932.03557,26
1766015932.035576,23
1766015932.035586,27
1766015932.035594,28
1766015932.0356128,27
1766015932.0356212,25
1766015932.035626,28
1766015932.0356312,26
1766015932.035636,25
1766015932.0356412,27
1766015932.035646,26
1766015932.035651,29
1766015932.035656,28
1766015932.035661,28
1766015932.035666,27
1766015932.035671,26
1766015932.035698,29
1766015932.0357041,28
1766015932.035709,27
1766015932.0357141,29
1766015932.035719,29
1766015932.035724,29
1766015932.03573,30
1766015932.035734,27
1766015932.035739,28
1766015932.035744,27
1766015932.0357492,26
1766015932.035754,28
1766015932.0357592,26
1766015932.035764,27
1766015932.035769,26
1766015932.035774,27
1766015932.035779,28
1766015932.035784,29
1766015932.035789,28
1766015932.0358021,31
1766015932.035823,28
1766015932.035829,27
1766015932.035834,28
1766015932.035839,28
1766015932.035844,28
1766015932.0358489,29
1766015932.035854,26
1766015932.0358589,26
1766015932.035864,28
1766015932.035868,30
1766015932.035873,29
1766015932.035878,27
1766015932.035883,27
1766015932.0358882,30
1766015932.035893,29
1766015932.0358982,28
1766015932.035903,27
1766015932.035908,29
1766015932.035913,27
1766015932.035918,29
1766015932.035923,28
1766015932.035928,29
1766015932.035933,32
1766015932.035938,29
1766015932.0359418,26
1766015932.035947,31
1766015932.035952,26
1766015932.035957,29
1766015932.035962,29
1766015932.0359669,29
1766015932.035972,28
1766015932.035977,29
1766015932.0359821,26
1766015932.035987,28
1766015932.0359921,29
1766015932.035997,29
1766015932.0360022,31
1766015932.036007,28
1766015932.036012,30
1766015932.036017,28
1766015932.036022,28
1766015932.036027,28
1766015932.036032,26
1766015932.0360372,29
1766015932.036042,30
1766015932.0360472,29
1766015932.036052,30
1766015932.036056,30
1766015932.0360608,27
1766015932.036066,29
1766015932.0360708,29
1766015932.036076,27
1766015932.0360808,31
1766015932.036086,29
1766015932.0360909,28
1766015932.036096,31
1766015932.036101,30
1766015932.0361059,29
1766015932.0361102,31
1766015932.036115,31
1766015932.0361202,29
1766015932.036125,31
1766015932.03613,31
1766015932.036135,30
1766015932.03614,28
1766015932.036145,31
1766015932.03615,32
1766015932.036154,32
1766015932.036159,30
1766015932.036164,30
1766015932.036169,33
1766015932.036174,33
1766015932.0361788,30
1766015932.036184,33
1766015932.0361888,32
1766015932.036194,32
1766015932.0361989,31
1766015932.036203,34
1766015932.0362082,34
1766015932.036213,35
1766015932.0362182,34
1766015932.036223,35
1766015932.0362282,32
1766015932.036233,31
1766015932.0362382,31
1766015932.036242,33
1766015932.036247,31
1766015932.036252,31
1766015932.036257,34
1766015932.0362618,32
1766015932.036267,36
1766015932.036272,33
1766015932.036277,34
1766015932.036281,31
1766015932.0362859,35
1766015932.0362911,35
1766015932.036296,31
1766015932.0363011,36
1766015932.036306,34
1766015932.0363111,32
1766015932.036316,36
1766015932.03632,33
1766015932.0363252,32
1766015932.03633,32
1766015932.036335,35
1766015932.03634,36
1766015932.036345,33
1766015932.03635,37
1766015932.036355,32
1766015932.03636,34
1766015932.036366,30
1766015932.036371,31
1766015932.036376,39
1766015932.036381,32
1766015932.036386,33
1766015932.0363898,36
1766015932.036395,35
1766015932.0364,33
1766015932.036405,35
1766015932.03641,33
1766015932.0364149,37
1766015932.03642,34
1766015932.0364249,36
1766015932.0364301,32
1766015932.036435,35
1766015932.0364401,34
1766015932.036445,33
1766015932.0364501,34
1766015932.036454,37
1766015932.036459,34
1766015932.0364642,34
1766015932.036469,32
1766015932.0364742,35
1766015932.036479,36
1766015932.036484,34
1766015932.036489,33
1766015932.036494,32
1766015932.0364978,35
1766015932.036503,35
1766015932.0365078,35
1766015932.036513,33
1766015932.0365179,37
1766015932.036523,36
1766015932.036528,37
1766015932.0365329,38
1766015932.0365381,37
1766015932.036542,34
1766015932.0365472,34
1766015932.036552,35
1766015932.036557,35
1766015932.036562,36
1766015932.036567,35
1766015932.036572,34
1766015932.036577,34
1766015932.036582,36
1766015932.036586,37
1766015932.036591,34
1766015932.036596,37
1766015932.036601,39
1766015932.0366058,34
1766015932.036611,38
1766015932.0366158,34
1766015932.0366201,36
1766015932.036625,34
1766015932.03663,38
1766015932.036635,38
1766015932.03664,35
1766015932.0366452,36
1766015932.036649,36
1766015932.036654,34
1766015932.036659,35
1766015932.036664,36
1766015932.036669,38
1766015932.036674,38
1766015932.0373728,36
1766015932.0383842,32
1766015932.039398,39
1766015932.040389,33
1766015932.041395,38
1766015932.04241,35
1766015932.043415,37
1766015932.0444229,36
1766015932.045399,38
1766015932.046452,38
1766015932.047413,36
1766015932.0484328,39
1766015932.049437,37
1766015932.050451,38
1766015932.051456,38
1766015932.0524411,34
1766015932.05343,37
1766015932.054432,36
1766015932.055459,36
1766015932.056457,41
1766015932.057458,41
1766015932.058461,37
1766015932.059469,37
1766015932.060472,42
1766015932.061486,39
1766015932.062454,38
1766015932.063468,37
1766015932.0644631,38
1766015932.065452,40
1766015932.06646,36
1766015932.067478,37
1766015932.068453,40
1766015932.069521,39
1766015932.070534,41
1766015932.071502,37
1766015932.072502,41
1766015932.073504,42
1766015932.074502,39
1766015932.07552,39
1766015932.076531,39
1766015932.0775082,38
1766015932.0785909,41
1766015932.079534,41
1766015932.080539,39
1766015932.081538,41
1766015932.082548,39
1766015932.0835252,38
1766015932.0845299,38
1766015932.085529,41
1766015932.0865312,43
1766015932.087609,43
1766015932.088575,40
1766015932.089584,42
1766015932.090616,41
1766015932.091599,40
1766015932.092575,43
1766015932.093573,40
1766015932.094573,41
1766015932.095566,43
1766015932.09657,39
1766015932.097572,40
1766015932.0985768,39
1766015932.099585,37
1766015932.10059,40
1766015932.1015942,38
1766015932.1025999,41
1766015932.103589,38
1766015932.10465,39
1766015932.1055942,41
1766015932.106634,37
1766015932.1076422,37
1766015932.10863,40
1766015932.1096268,38
1766015932.1106071,41
1766015932.111586,40
1766015932.112638,40
1766015932.113601,40
1766015932.114614,41
1766015932.115672,40
1766015932.11664,40
1766015932.117632,42
1766015932.118631,38
1766015932.119644,39
1766015932.120624,38
1766015932.1216362,39
1766015932.1226618,40
1766015932.123643,40
1766015932.124665,39
1766015932.125647,41
1766015932.126656,41
1766015932.1276422,42
1766015932.12867,41
1766015932.129652,43
1766015932.13067,45
1766015932.131677,46
1766015932.132683,47
1766015932.1336908,46
1766015932.134672,46
1766015932.135679,43
1766015932.136689,45
1766015932.137735,42
1766015932.1386838,44
1766015932.139724,45
1766015932.140707,48
1766015932.14171,47
1766015932.142696,48
1766015932.143702,50
1766015932.1447082,51
1766015932.1457028,53
1766015932.1467159,55
1766015932.1477172,58
1766015932.148715,62
1766015932.1497211,64
1766015932.150721,68
1766015932.151716,72
1766015932.152731,76
1766015932.1537259,74
1766015932.154725,76
1766015932.155733,77
1766015932.156729,85
1766015932.157741,89
1766015932.158725,85
1766015932.1597471,85
1766015932.160735,88
1766015932.161736,86
1766015932.1627588,87
1766015932.163765,83
1766015932.164822,84
1766015932.165817,85
1766015932.166813,80
1766015932.1677902,81
1766015932.168781,80
1766015932.1697779,79
1766015932.17077,82
1766015932.171777,84
1766015932.172776,87
1766015932.173795,87
1766015932.1747808,89
1766015932.175812,91
1766015932.176794,91
1766015932.177811,87
1766015932.1787908,91
1766015932.1798248,90
1766015932.18082,87
1766015932.181809,86
1766015932.1828191,85
1766015932.183829,87
1766015932.1848278,84
1766015932.185816,85
1766015932.186805,85
1766015932.187831,84
1766015932.188846,81
1766015932.1898391,83
1766015932.1908312,82
1766015932.191854,88
1766015932.192843,84
1766015932.193851,83
1766015932.194912,85
1766015932.19594,85
1766015932.196846,89
1766015932.197942,90
1766015932.198946,96
1766015932.199973,101
1766015932.2009542,99
1766015932.201956,98
1766015932.2029629,102
1766015932.203975,105
1766015932.20496,103
1766015932.2059689,106
1766015932.2069418,107
1766015932.207968,104
1766015932.208977,104
1766015932.20998,106
1766015932.2109811,109
1766015932.211963,108
1766015932.212973,114
1766015932.213989,119
1766015932.214989,118
1766015932.2159932,118
1766015932.2169979,116
1766015932.2179992,117
1766015932.218996,116
1766015932.219978,115
1766015932.220999,115
1766015932.222021,117
1766015932.223028,117
1766015932.224011,120
1766015932.225009,114
1766015932.2260249,116
1766015932.227026,114
1766015932.228011,116
1766015932.229045,115
1766015932.230037,110
1766015932.231044,114
1766015932.2320518,112
1766015932.23305,110
1766015932.234124,113
1766015932.2350311,113
1766015932.236053,109
1766015932.237041,112
1766015932.238066,113
1766015932.239069,114
1766015932.2400808,115
1766015932.241071,115
1766015932.2421272,114
1766015932.243089,114
1766015932.244111,119
1766015932.245079,118
1766015932.246075,117
1766015932.247081,117
1766015932.248085,118
1766015932.249095,116
1766015932.250087,115
1766015932.251093,112
1766015932.252092,112
1766015932.253091,107
1766015932.254081,109
1766015932.255108,106
1766015932.256114,106
1766015932.257097,108
1766015932.258118,105
1766015932.259118,102
1766015932.260101,105
1766015932.2611148,106
1766015932.262105,105
1766015932.263123,104
1766015932.26413,108
1766015932.2651489,113
1766015932.266143,106
1766015932.267134,110
1766015932.2681541,109
1766015932.2691379,108
1766015932.270122,112
1766015932.2711449,113
1766015932.272156,114
1766015932.273152,119
1766015932.274157,117
1766015932.2751439,119
1766015932.27616,123
1766015932.27716,121
1766015932.278156,119
1766015932.279157,120
1766015932.280192,121
1766015932.2812002,120
1766015932.282167,115
1766015932.283201,118
1766015932.284193,114
1766015932.285195,111
1766015932.286197,113
1766015932.287188,112
1766015932.288203,110
1766015932.289196,110
1766015932.2902012,106
1766015932.291198,106
1766015932.292206,106
1766015932.293213,104
1766015932.294223,103
1766015932.295187,103
1766015932.2962098,102
1766015932.297214,100
1766015932.2981398,97
1766015932.299208,99
1766015932.3001878,97
1766015932.3011909,99
1766015932.30213,96
1766015932.303159,95
1766015932.3041542,92
1766015932.30515,94
1766015932.306157,92
1766015932.307156,91
1766015932.308173,92
1766015932.309163,88
1766015932.310189,90
1766015932.311174,91
1766015932.312168,89
1766015932.313195,90
1766015932.314173,91
1766015932.3152058,90
1766015932.316192,91
1766015932.317224,89
1766015932.31829,87
1766015932.319284,89
1766015932.3201978,87
1766015932.3212018,90
1766015932.322192,89
1766015932.323246,91
1766015932.324287,93
1766015932.3254058,103
1766015932.326383,109
1766015932.327285,110
1766015932.328362,110
1766015932.329362,114
1766015932.330347,115
1766015932.331371,115
1766015932.332417,119
1766015932.3333702,118
1766015932.3343968,116
1766015932.335362,119
1766015932.336329,116
1766015932.3374,115
1766015932.3383749,115
1766015932.339392,117
1766015932.340416,120
1766015932.3413818,121
1766015932.34237,121
1766015932.3433988,122
1766015932.34447,123
1766015932.34541,123
1766015932.346447,122
1766015932.347411,120
1766015932.3484008,119
1766015932.3494139,119
1766015932.350422,119
1766015932.351423,119
1766015932.352458,118
1766015932.3533812,122
1766015932.354399,122
1766015932.355438,124
1766015932.356448,125
1766015932.35744,123
1766015932.3584661,126
1766015932.359452,127
1766015932.360459,123
1766015932.361404,122
1766015932.362473,119
1766015932.36347,118
1766015932.364465,118
1766015932.365489,118
1766015932.3664708,116
1766015932.3674939,119
1766015932.368465,120
1766015932.369489,120
1766015932.370465,117
1766015932.371436,119
1766015932.372479,117
1766015932.373496,117
1766015932.3744981,111
1766015932.3754969,112
1766015932.376503,111
1766015932.377505,109
1766015932.378529,109
1766015932.3795252,110
1766015932.380543,107
1766015932.381521,104
1766015932.382514,105
1766015932.383499,102
1766015932.384528,100
1766015932.385538,104
1766015932.386476,101
1766015932.387552,102
1766015932.3885329,101
1766015932.389527,101
1766015932.3904588,98
1766015932.391558,100
1766015932.3924649,96
1766015932.39347,97
1766015932.394441,97
1766015932.395529,97
1766015932.396472,96
1766015932.3974888,95
1766015932.39846,94
1766015932.399501,94
1766015932.40048,94
1766015932.4014862,95
1766015932.402482,96
1766015932.4035058,97
1766015932.40449,93
1766015932.405494,95
1766015932.406501,94
1766015932.407507,89
1766015932.408512,91
1766015932.4094899,89
1766015932.410503,88
1766015932.4114492,89
1766015932.412522,86
1766015932.413549,85
1766015932.4145322,82
1766015932.4155142,83
1766015932.416518,84
1766015932.41752,83
1766015932.418538,79
1766015932.419509,80
1766015932.420565,79
1766015932.4215722,82
1766015932.4225862,80
1766015932.423558,80
1766015932.424551,81
1766015932.4255621,81
1766015932.426581,82
1766015932.427561,86
1766015932.4285572,84
1766015932.429558,80
1766015932.430562,80
1766015932.4315798,78
1766015932.4325929,79
1766015932.4335942,81
1766015932.434572,76
1766015932.4355981,76
1766015932.436543,79
1766015932.4375858,77
1766015932.438601,77
1766015932.439593,77
1766015932.440599,72
1766015932.4416041,74
1766015932.442622,74
1766015932.443615,71
1766015932.444583,73
1766015932.4455822,71
1766015932.446646,70
1766015932.4476092,68
1766015932.4486132,71
1766015932.4496179,67
1766015932.450593,69
1766015932.451603,65
1766015932.452606,66
1766015932.453592,69
1766015932.454637,70
1766015932.4556422,67
1766015932.456624,74
1766015932.457663,74
1766015932.458666,78
1766015932.459661,75
1766015932.460659,77
1766015932.461613,78
1766015932.4626691,78
1766015932.463655,77
1766015932.4646568,78
1766015932.4656708,81
1766015932.4666739,78
1766015932.467691,80
1766015932.468676,78
1766015932.469648,78
1766015932.470737,77
1766015932.471678,75
1766015932.472708,73
1766015932.4736881,77
1766015932.474693,74
1766015932.475702,73
1766015932.476706,75
1766015932.4777029,74
1766015932.478713,74
1766015932.4797142,71
1766015932.480715,72
1766015932.4817011,72
1766015932.4827242,72
1766015932.483708,73
1766015932.484712,70
1766015932.485719,72
1766015932.4866838,69
1766015932.487751,71
1766015932.4887428,70
1766015932.4897459,71
1766015932.490722,70
1766015932.491754,73
1766015932.492735,72
1766015932.493729,71
1766015932.494719,71
1766015932.4957461,71
1766015932.496733,72
1766015932.4977732,70
1766015932.498765,69
1766015932.4997382,67
1766015932.5007691,67
1766015932.50176,67
1766015932.502763,65
1766015932.503764,63
1766015932.504766,65
1766015932.505784,63
1766015932.506797,65
1766015932.50778,63
1766015932.5087821,61
1766015932.509799,61
1766015932.510787,59
1766015932.511789,57
1766015932.5127912,60
1766015932.513798,59
1766015932.514803,60
1766015932.515813,63
1766015932.516803,61
1766015932.517789,59
1766015932.51881,62
1766015932.519806,60
1766015932.520802,59
1766015932.5218298,59
1766015932.522814,59
1766015932.5238268,58
1766015932.524822,58
1766015932.525825,59
1766015932.526826,57
1766015932.527812,57
1766015932.528827,55
1766015932.529854,56
1766015932.530848,56
1766015932.5318668,58
1766015932.532854,58
1766015932.5338502,57
1766015932.5348558,56
1766015932.5358698,56
1766015932.536871,56
1766015932.537879,57
1766015932.53888,55
1766015932.5398889,57
1766015932.5408819,56
1766015932.54187,57
1766015932.542876,56
1766015932.5439649,52
1766015932.544956,54
1766015932.545872,54
1766015932.546962,54
1766015932.547956,51
1766015932.5490181,52
1766015932.549956,49
1766015932.5509539,51
1766015932.5519612,53
1766015932.552911,52
1766015932.553953,53
1766015932.554964,52
1766015932.555968,54
1766015932.5569541,51
1766015932.55794,54
1766015932.558957,50
1766015932.55998,50
1766015932.5609448,51
1766015932.56198,51
1766015932.5629618,51
1766015932.56395,50
1766015932.564947,48
1766015932.565931,52
1766015932.566936,54
1766015932.567946,52
1766015932.5689301,56
1766015932.5699399,50
1766015932.570949,54
1766015932.571937,51
1766015932.572949,53
1766015932.573947,51
1766015932.57494,53
1766015932.575938,54
1766015932.576972,55
1766015932.577923,53
1766015932.578945,56
1766015932.579946,53
1766015932.580939,54
1766015932.581941,54
1766015932.582947,52
1766015932.5839481,54
1766015932.584951,57
1766015932.58596,53
1766015932.586945,55
1766015932.5879838,55
1766015932.588974,55
1766015932.589962,53
1766015932.590969,55
1766015932.591957,57
1766015932.592972,53
1766015932.594035,54
1766015932.595007,52
1766015932.596053,54
1766015932.5970292,51
1766015932.5980318,52
1766015932.599017,54
1766015932.6000261,53
1766015932.601056,53
1766015932.6020591,53
1766015932.603033,51
1766015932.604049,50
1766015932.605036,52
1766015932.6060412,53
1766015932.607043,52
1766015932.608033,53
1766015932.609029,53
1766015932.6100612,50
1766015932.6110752,52
1766015932.6120691,51
1766015932.6130612,53
1766015932.614057,50
1766015932.615059,51
1766015932.6160908,51
1766015932.6170702,49
1766015932.618104,53
1766015932.619114,49
1766015932.620089,50
1766015932.621093,54
1766015932.622089,49
1766015932.623104,54
1766015932.624091,54
1766015932.6250849,52
1766015932.626108,50
1766015932.62711,55
1766015932.628094,50
1766015932.629094,51
1766015932.630116,50
1766015932.6311092,53
1766015932.6321092,52
1766015932.633117,49
1766015932.6341062,51
1766015932.635113,50
1766015932.636126,49
1766015932.6371121,51
1766015932.638147,48
1766015932.6391292,47
1766015932.640116,48
1766015932.6411352,47
1766015932.6423218,49
1766015932.643144,46
1766015932.64414,49
1766015932.645149,46
1766015932.6461482,47
1766015932.647159,44
1766015932.648155,50
1766015932.649166,47
1766015932.650165,46
1766015932.651148,47
1766015932.6521542,49
1766015932.653165,48
1766015932.6541781,48
1766015932.655183,51
1766015932.6561868,46
1766015932.657186,48
1766015932.658187,51
1766015932.659192,53
1766015932.660191,51
1766015932.6611872,52
1766015932.662192,53
1766015932.6631858,55
1766015932.664194,50
1766015932.665205,53
1766015932.666195,52
1766015932.667201,52
1766015932.668206,52
1766015932.669205,51
1766015932.670208,56
1766015932.671223,53
1766015932.672221,51
1766015932.6732302,51
1766015932.674227,52
1766015932.6752279,52
1766015932.676233,50
1766015932.677212,51
1766015932.6782331,55
1766015932.679231,56
1766015932.6802402,54
1766015932.68125,51
1766015932.682246,53
1766015932.68325,52
1766015932.684247,54
1766015932.685257,53
1766015932.686238,53
1766015932.687252,51
1766015932.68827,52
1766015932.689259,54
1766015932.69026,54
1766015932.691259,51
1766015932.692265,53
1766015932.693275,51
1766015932.694282,52
1766015932.6952682,53
1766015932.696286,53
1766015932.697284,53
1766015932.698286,52
1766015932.699295,47
1766015932.70029,53
1766015932.701287,52
1766015932.7022982,49
1766015932.7032902,51
1766015932.7043068,53
1766015932.70532,51
1766015932.706312,50
1766015932.7073221,52
1766015932.708311,50
1766015932.709311,50
1766015932.710338,49
1766015932.711335,50
1766015932.712322,51
1766015932.7133272,48
1766015932.7143319,47
1766015932.715348,47
1766015932.716351,48
1766015932.71736,50
1766015932.718355,46
1766015932.719358,47
1766015932.7203572,50
1766015932.72136,46
1766015932.722364,46
1766015932.723351,46
1766015932.7243662,47
1766015932.725379,45
1766015932.726377,43
1766015932.727371,42
1766015932.728375,44
1766015932.729381,44
1766015932.7303889,44
1766015932.731371,44
1766015932.732397,46
1766015932.733404,43
1766015932.734394,43
1766015932.735399,43
1766015932.736402,42
1766015932.737409,43
1766015932.7384021,44
1766015932.739409,45
1766015932.740444,49
1766015932.741416,51
1766015932.742414,52
1766015932.743443,55
1766015932.744456,53
1766015932.7454479,51
1766015932.746428,51
1766015932.747424,51
1766015932.7484028,51
1766015932.7494102,56
1766015932.750407,55
1766015932.751412,60
1766015932.752417,58
1766015932.753417,54
1766015932.754422,57
1766015932.755438,58
1766015932.7564201,56
1766015932.757424,59
1766015932.758424,55
1766015932.759443,53
1766015932.760459,52
1766015932.761489,51
1766015932.762501,55
1766015932.763479,54
1766015932.764527,54
1766015932.765496,50
1766015932.766489,52
1766015932.767509,51
1766015932.768496,56
1766015932.76947,55
1766015932.770526,52
1766015932.77153,51
1766015932.7725198,53
1766015932.773515,51
1766015932.774509,49
1766015932.7755241,49
1766015932.776521,51
1766015932.777526,50
1766015932.778506,48
1766015932.7795131,49
1766015932.780509,48
1766015932.781523,50
1766015932.78253,49
1766015932.783547,47
1766015932.7845492,48
1766015932.785536,46
1766015932.786552,48
1766015932.7875688,49
1766015932.7885618,46
1766015932.7895648,48
1766015932.790566,46
1766015932.7915678,46
1766015932.792572,47
1766015932.793591,49
1766015932.7945669,49
1766015932.795574,46
1766015932.796576,44
1766015932.797575,46
1766015932.7985852,44
1766015932.799592,44
1766015932.800586,44
1766015932.801586,45
1766015932.802586,43
1766015932.8035789,45
1766015932.8045912,45
1766015932.805604,43
1766015932.806599,46
1766015932.807613,42
1766015932.8086212,44
1766015932.809621,43
1766015932.810626,42
1766015932.811618,47
1766015932.812623,42
1766015932.8136268,47
1766015932.814635,45
1766015932.815625,47
1766015932.816633,46
1766015932.817631,46
1766015932.818652,47
1766015932.8196402,49
1766015932.820662,48
1766015932.8216698,48
1766015932.8226502,50
1766015932.823654,47
1766015932.824669,49
1766015932.825666,50
1766015932.8266659,45
1766015932.827672,47
1766015932.828671,47
1766015932.829679,44
1766015932.830679,48
1766015932.8316731,49
1766015932.8326862,48
1766015932.833687,47
1766015932.83468,50
1766015932.835689,48
1766015932.8366919,47
1766015932.837694,48
1766015932.8387,46
1766015932.839709,46
1766015932.840713,45
1766015932.841695,47
1766015932.842717,45
1766015932.8437061,45
1766015932.844715,45
1766015932.845715,45
1766015932.84672,47
1766015932.847713,46
1766015932.848716,43
1766015932.849731,43
1766015932.8507352,47
1766015932.851732,44
1766015932.852743,44
1766015932.853735,41
1766015932.854753,42
1766015932.855744,43
1766015932.856746,44
1766015932.85775,43
1766015932.858749,43
1766015932.859762,45
1766015932.8607638,43
1766015932.861772,45
1766015932.8627672,41
1766015932.863774,43
1766015932.864778,44
1766015932.865772,44
1766015932.866784,43
1766015932.867763,43
1766015932.8687732,43
1766015932.869783,41
1766015932.870775,43
1766015932.871781,46
1766015932.872792,44
1766015932.8737972,46
1766015932.874809,44
1766015932.875801,45
1766015932.876815,47
1766015932.8778062,43
1766015932.878817,45
1766015932.8798,44
1766015932.880828,46
1766015932.8818219,42
1766015932.882824,46
1766015932.883827,45
1766015932.884825,45
1766015932.88583,46
1766015932.8868392,45
1766015932.887844,44
1766015932.888851,44
1766015932.8898509,44
1766015932.890849,46
1766015932.891857,47
1766015932.892839,45
1766015932.893855,44
1766015932.8948538,43
1766015932.8958561,42
1766015932.896857,45
1766015932.897872,42
1766015932.89888,45
1766015932.899963,46
1766015932.9009721,49
1766015932.901876,46
1766015932.902975,49
1766015932.903965,47
1766015932.90497,48
1766015932.905962,46
1766015932.906967,50
1766015932.907968,50
1766015932.9089642,50
1766015932.9099588,49
1766015932.9109619,48
1766015932.911959,51
1766015932.91297,52
1766015932.913955,51
1766015932.914964,50
1766015932.91596,51
1766015932.916961,51
1766015932.91796,50
1766015932.9189708,52
1766015932.919966,51
1766015932.920955,52
1766015932.9219682,47
1766015932.922966,49
1766015932.923973,50
1766015932.924948,50
1766015932.925954,46
1766015932.926949,51
1766015932.927954,50
1766015932.92897,47
1766015932.9299572,50
1766015932.9309509,47
1766015932.931978,49
1766015932.9329531,52
1766015932.933943,48
1766015932.934973,50
1766015932.935959,49
1766015932.936963,49
1766015932.9379609,46
1766015932.9389682,49
1766015932.939981,49
1766015932.9409752,49
1766015932.942018,52
1766015932.943019,50
1766015932.944007,50
1766015932.945054,49
1766015932.946008,49
1766015932.94701,48
1766015932.948009,48
1766015932.949041,47
1766015932.950026,48
1766015932.951039,47
1766015932.952037,47
1766015932.9530199,49
1766015932.954061,50
1766015932.95504,46
1766015932.9560409,45
1766015932.95704,47
1766015932.95805,44
1766015932.9590771,46
1766015932.960063,44
1766015932.9610538,46
1766015932.962087,47
1766015932.9630349,44
1766015932.964085,44
1766015932.96509,44
1766015932.966069,42
1766015932.9670599,42
1766015932.9680798,40
1766015932.9690921,45
1766015932.9700968,44
1766015932.971102,46
1766015932.9721,46
1766015932.973109,46
1766015932.9741151,45
1766015932.9750988,46
1766015932.9761012,47
1766015932.977105,51
1766015932.9780931,50
1766015932.979118,49
1766015932.980124,52
1766015932.981128,48
1766015932.9821281,54
1766015932.983119,51
1766015932.984135,49
1766015932.985138,51
1766015932.986218,51
1766015932.987137,53
1766015932.988099,52
1766015932.989154,51
1766015932.990121,49
1766015932.991102,47
1766015932.992146,51
1766015932.993114,49
1766015932.994124,47
1766015932.995113,50
1766015932.996116,49
1766015932.997115,51
1766015932.998166,52
1766015932.999109,48
1766015933.00015,51
1766015933.001143,51
1766015933.002164,51
1766015933.003202,55
1766015933.0041862,57
1766015933.00513,54
1766015933.006166,55
1766015933.0071821,56
1766015933.00818,54
1766015933.009194,52
1766015933.0101929,54
1766015933.0111969,54
1766015933.012201,53
1766015933.013168,55
1766015933.014209,56
1766015933.015181,57
1766015933.0162072,54
1766015933.0172129,56
1766015933.018212,52
1766015933.019181,54
1766015933.0202188,52
1766015933.02118,53
1766015933.022246,53
1766015933.023189,50
1766015933.024231,52
1766015933.02525,53
1766015933.02625,53
1766015933.0272262,53
1766015933.0282419,52
1766015933.029253,50
