timestamp,emg_value
1766015929.562903,41
1766015929.562925,39
1766015929.562936,38
1766015929.562946,41
1766015929.562956,42
1766015929.562967,39
1766015929.562977,40
1766015929.562987,43
1766015929.562997,44
1766015929.563008,46
1766015929.563018,48
1766015929.5630279,50
1766015929.5630379,48
1766015929.563048,47
1766015929.563058,49
1766015929.563068,51
1766015929.563078,50
1766015929.563088,50
1766015929.5630982,48
1766015929.5631082,46
1766015929.563118,47
1766015929.563128,45
1766015929.563138,47
1766015929.563147,48
1766015929.563157,45
1766015929.563168,42
1766015929.563178,46
1766015929.563187,46
1766015929.563197,45
1766015929.563207,46
1766015929.563217,48
1766015929.563227,47
1766015929.563241,48
1766015929.563252,49
1766015929.563262,48
1766015929.563272,42
1766015929.5632808,45
1766015929.5632908,45
1766015929.563301,47
1766015929.563311,48
1766015929.563321,45
1766015929.5633311,45
1766015929.5633411,46
1766015929.5633512,45
1766015929.563361,48
1766015929.563371,46
1766015929.563381,46
1766015929.56339,44
1766015929.563406,46
1766015929.5634172,44
1766015929.563427,44
1766015929.563437,44
1766015929.563447,44
1766015929.563457,40
1766015929.563467,41
1766015929.563477,45
1766015929.563487,44
1766015929.563497,43
1766015929.563506,42
1766015929.563516,41
1766015929.563526,45
1766015929.563536,43
1766015929.5635478,45
1766015929.5635579,44
1766015929.5635688,45
1766015929.563582,45
1766015929.563592,42
1766015929.563602,46
1766015929.563612,45
1766015929.563622,44
1766015929.563632,45
1766015929.563642,45
1766015929.563652,43
1766015929.563662,44
1766015929.563672,44
1766015929.563682,42
1766015929.563692,43
1766015929.563704,42
1766015929.563713,40
1766015929.563723,44
1766015929.563733,42
1766015929.5637429,37
1766015929.563753,44
1766015929.563763,41
1766015929.563773,40
1766015929.563783,39
1766015929.563793,39
1766015929.563803,41
1766015929.5638132,40
1766015929.563822,37
1766015929.563832,40
1766015929.563842,39
1766015929.563852,41
1766015929.563863,38
1766015929.563874,41
1766015929.563884,42
1766015929.563894,41
1766015929.563906,42
1766015929.563916,40
1766015929.563926,41
1766015929.563936,42
1766015929.563946,42
1766015929.563956,43
1766015929.563966,41
1766015929.563976,41
1766015929.5639858,38
1766015929.5639958,42
1766015929.5640059,43
1766015929.5640152,43
1766015929.5640278,41
1766015929.5640378,40
1766015929.5640478,42
1766015929.564058,39
1766015929.564068,39
1766015929.564078,37
1766015929.564088,39
1766015929.5640981,37
1766015929.5641081,39
1766015929.564118,38
1766015929.564127,37
1766015929.564137,37
1766015929.564147,39
1766015929.564157,41
1766015929.564167,37
1766015929.5641768,41
1766015929.5641868,37
1766015929.564197,38
1766015929.564207,41
1766015929.564217,36
1766015929.564229,34
1766015929.564241,39
1766015929.564252,38
1766015929.564262,40
1766015929.5642722,41
1766015929.564283,38
1766015929.5642939,38
1766015929.5643039,37
1766015929.5643141,39
1766015929.5643241,42
1766015929.5643342,42
1766015929.5643442,39
1766015929.564354,41
1766015929.564364,41
1766015929.564374,36
1766015929.564384,38
1766015929.564399,39
1766015929.5644102,37
1766015929.56443,36
1766015929.5644422,36
1766015929.5644522,36
1766015929.5644622,35
1766015929.564472,39
1766015929.564482,37
1766015929.564492,38
1766015929.564501,36
1766015929.564512,37
1766015929.564521,36
1766015929.5645308,38
1766015929.5645409,41
1766015929.5645509,34
1766015929.564561,38
1766015929.564571,38
1766015929.564584,34
1766015929.564596,38
1766015929.564606,35
1766015929.564616,38
1766015929.564626,38
1766015929.564636,37
1766015929.564645,37
1766015929.564655,37
1766015929.564665,39
1766015929.564675,38
1766015929.564685,38
1766015929.564697,39
1766015929.564707,39
1766015929.564717,39
1766015929.564726,37
1766015929.564736,37
1766015929.564746,41
1766015929.564756,39
1766015929.564766,38
1766015929.564776,35
1766015929.564787,36
1766015929.564797,37
1766015929.564807,36
1766015929.564817,35
1766015929.564827,35
1766015929.5648372,40
1766015929.564847,38
1766015929.564857,36
1766015929.564867,34
1766015929.564877,40
1766015929.564887,37
1766015929.564897,39
1766015929.564908,37
1766015929.564919,37
1766015929.564936,35
1766015929.564946,39
1766015929.564956,37
1766015929.564965,37
1766015929.564975,37
1766015929.564985,37
1766015929.564995,36
1766015929.565005,34
1766015929.565015,34
1766015929.565025,35
1766015929.565035,33
1766015929.5650449,35
1766015929.565054,34
1766015929.565064,32
1766015929.565074,37
1766015929.565084,35
1766015929.565094,35
1766015929.5651042,36
1766015929.565114,35
1766015929.565124,32
1766015929.565134,37
1766015929.565144,35
1766015929.565154,33
1766015929.565164,35
1766015929.565174,38
1766015929.565183,35
1766015929.565193,34
1766015929.565203,32
1766015929.565213,34
1766015929.565223,32
1766015929.565233,34
1766015929.565245,31
1766015929.565255,33
1766015929.565265,36
1766015929.565275,34
1766015929.5652852,33
1766015929.5652952,31
1766015929.5653062,33
1766015929.5653162,33
1766015929.565326,34
1766015929.565336,32
1766015929.565346,34
1766015929.565355,30
1766015929.565366,31
1766015929.565375,33
1766015929.5653849,33
1766015929.5654001,30
1766015929.5654101,33
1766015929.5654202,32
1766015929.56543,31
1766015929.56544,28
1766015929.56545,31
1766015929.56546,32
1766015929.56547,32
1766015929.56548,30
1766015929.56549,30
1766015929.5655,31
1766015929.5655098,31
1766015929.5655198,30
1766015929.565529,35
1766015929.5655391,31
1766015929.5655491,32
1766015929.5655591,32
1766015929.565569,33
1766015929.565581,32
1766015929.565592,31
1766015929.565602,33
1766015929.565612,32
1766015929.565622,31
1766015929.565631,31
1766015929.565641,34
1766015929.565652,34
1766015929.565662,30
1766015929.565672,31
1766015929.565682,32
1766015929.565692,33
1766015929.565702,30
1766015929.565712,30
1766015929.5657222,29
1766015929.565732,30
1766015929.565741,30
1766015929.565751,27
1766015929.565761,29
1766015929.565772,29
1766015929.5657809,30
1766015929.565791,29
1766015929.565801,31
1766015929.565811,27
1766015929.565821,30
1766015929.565831,29
1766015929.565841,30
1766015929.565851,29
1766015929.5658612,29
1766015929.565871,29
1766015929.56588,27
1766015929.56589,30
1766015929.5659,27
1766015929.5659251,29
1766015929.565936,25
1766015929.565946,27
1766015929.565956,29
1766015929.565965,27
1766015929.565975,26
1766015929.565985,28
1766015929.565995,27
1766015929.566005,28
1766015929.566015,27
1766015929.566025,27
1766015929.566035,28
1766015929.566045,27
1766015929.5660548,28
1766015929.5660648,29
1766015929.5660748,28
1766015929.5660858,27
1766015929.5660958,27
1766015929.566106,29
1766015929.566116,27
1766015929.566126,26
1766015929.5661361,25
1766015929.5661461,26
1766015929.5661561,25
1766015929.566165,28
1766015929.566175,29
1766015929.566185,27
1766015929.566195,28
1766015929.566206,29
1766015929.566216,26
1766015929.566226,29
1766015929.566236,27
1766015929.566248,27
1766015929.566258,27
1766015929.566268,24
1766015929.566278,26
1766015929.5662878,25
1766015929.566298,30
1766015929.566308,28
1766015929.566318,27
1766015929.5663328,26
1766015929.566346,28
1766015929.566356,27
1766015929.566366,27
1766015929.566376,24
1766015929.566386,26
1766015929.5664,26
1766015929.566411,24
1766015929.566421,28
1766015929.566431,26
1766015929.566441,28
1766015929.5664508,23
1766015929.5664608,25
1766015929.5664709,29
1766015929.5664809,26
1766015929.566491,26
1766015929.5665011,25
1766015929.5665112,24
1766015929.5665212,23
1766015929.5665312,25
1766015929.566543,24
1766015929.566553,26
1766015929.5665631,26
1766015929.5665731,27
1766015929.566585,28
1766015929.566595,26
1766015929.566605,29
1766015929.566615,24
1766015929.566625,26
1766015929.566635,27
1766015929.566645,25
1766015929.566655,26
1766015929.566665,27
1766015929.566675,26
1766015929.566685,28
1766015929.566695,27
1766015929.566705,27
1766015929.5667148,22
1766015929.566725,26
1766015929.566741,23
1766015929.566755,25
1766015929.566765,26
1766015929.566775,25
1766015929.566786,22
1766015929.566796,24
1766015929.566806,26
1766015929.566816,24
1766015929.566825,29
1766015929.566835,24
1766015929.566845,24
1766015929.566855,24
1766015929.566865,26
1766015929.566875,26
1766015929.5668852,23
1766015929.566895,24
1766015929.566905,28
1766015929.566914,26
1766015929.5669272,24
1766015929.5669389,25
1766015929.5669491,21
1766015929.5669591,24
1766015929.5669692,26
1766015929.5669801,25
1766015929.5669901,25
1766015929.5670002,25
1766015929.567009,22
1766015929.567019,23
1766015929.567029,27
1766015929.56704,20
1766015929.567049,23
1766015929.567059,24
1766015929.5670688,23
1766015929.5670788,24
1766015929.5670888,22
1766015929.5670989,24
1766015929.567109,26
1766015929.5671191,24
1766015929.5671291,26
1766015929.5671391,25
1766015929.5671492,21
1766015929.567158,23
1766015929.567168,22
1766015929.567178,24
1766015929.567188,23
1766015929.567198,24
1766015929.567208,27
1766015929.5672178,25
1766015929.5672278,26
1766015929.5672379,24
1766015929.5672488,21
1766015929.567261,24
1766015929.567273,20
1766015929.567283,26
1766015929.567293,23
1766015929.567303,24
1766015929.567313,26
1766015929.567323,25
1766015929.567332,25
1766015929.567342,24
1766015929.567352,26
1766015929.567362,25
1766015929.567372,25
1766015929.567382,26
1766015929.567394,22
1766015929.56741,25
1766015929.567421,25
1766015929.567431,22
1766015929.5674398,25
1766015929.56745,21
1766015929.56746,24
1766015929.56747,24
1766015929.567481,25
1766015929.567491,23
1766015929.5675,22
1766015929.5675101,22
1766015929.56752,23
1766015929.56753,22
1766015929.56754,22
1766015929.56755,25
1766015929.56756,25
1766015929.56757,25
1766015929.56758,22
1766015929.567592,23
1766015929.567604,24
1766015929.567617,22
1766015929.567627,24
1766015929.567637,24
1766015929.567646,26
1766015929.567656,24
1766015929.5676658,24
1766015929.5676758,22
1766015929.5676858,23
1766015929.5676959,23
1766015929.567706,23
1766015929.5677161,25
1766015929.5677261,24
1766015929.5677361,25
1766015929.5677462,22
1766015929.567756,21
1766015929.567771,20
1766015929.5677829,24
1766015929.567793,22
1766015929.567837,24
1766015929.567849,22
1766015929.56786,24
1766015929.56787,21
1766015929.56788,23
1766015929.56789,24
1766015929.5679,25
1766015929.56791,21
1766015929.5679202,21
1766015929.5679302,23
1766015929.56794,21
1766015929.56795,23
1766015929.56796,24
1766015929.5679739,22
1766015929.567986,26
1766015929.5679958,25
1766015929.5680058,25
1766015929.5680158,23
1766015929.568026,25
1766015929.568036,25
1766015929.568046,25
1766015929.5680552,26
1766015929.568065,25
1766015929.568075,24
1766015929.568085,22
1766015929.568095,24
1766015929.568105,25
1766015929.568115,25
1766015929.568125,25
1766015929.568135,23
1766015929.5681448,22
1766015929.5681548,27
1766015929.568165,24
1766015929.568175,25
1766015929.568185,24
1766015929.568195,27
1766015929.568205,23
1766015929.5682151,24
1766015929.568224,25
1766015929.568234,23
1766015929.568244,22
1766015929.568254,24
1766015929.568264,22
1766015929.568274,23
1766015929.5682838,24
1766015929.568295,21
1766015929.568309,22
1766015929.56832,25
1766015929.56833,20
1766015929.56834,23
1766015929.5683498,19
1766015929.5683599,24
1766015929.5683699,23
1766015929.5683799,21
1766015929.56839,23
1766015929.5684,23
1766015929.5684109,23
1766015929.5684218,25
1766015929.568432,20
1766015929.568442,23
1766015929.5684538,25
1766015929.5684638,25
1766015929.568474,23
1766015929.568484,24
1766015929.568494,23
1766015929.568504,20
1766015929.568514,24
1766015929.5685241,25
1766015929.5685701,23
1766015929.568583,23
1766015929.5685928,23
1766015929.568604,22
1766015929.568614,26
1766015929.568624,24
1766015929.568634,21
1766015929.5686452,24
1766015929.5686982,24
1766015929.568706,19
1766015929.568714,21
1766015929.5687199,22
1766015929.568725,22
1766015929.56873,23
1766015929.568735,25
1766015929.5687401,24
1766015929.568745,22
1766015929.5687501,27
1766015929.568755,24
1766015929.5687602,24
1766015929.568765,22
1766015929.56877,23
1766015929.568775,22
1766015929.56878,22
1766015929.568785,23
1766015929.56879,24
1766015929.568795,22
1766015929.5688,23
1766015929.5688052,24
1766015929.56881,23
1766015929.568815,24
1766015929.56882,23
1766015929.568825,25
1766015929.5688288,23
1766015929.568834,19
1766015929.5688388,21
1766015929.568844,21
1766015929.5688488,21
1766015929.568854,20
1766015929.5688589,23
1766015929.568864,23
1766015929.568869,23
1766015929.568874,21
1766015929.5688808,22
1766015929.568887,24
1766015929.5688908,23
1766015929.568896,22
1766015929.5689018,22
1766015929.568907,23
1766015929.568911,26
1766015929.568917,27
1766015929.568922,24
1766015929.5689442,23
1766015929.568952,22
1766015929.5689569,23
1766015929.568963,25
1766015929.5689678,27
1766015929.568972,26
1766015929.5689778,25
1766015929.5689821,25
1766015929.568987,25
1766015929.568992,25
1766015929.5689971,25
1766015929.569002,24
1766015929.5690072,23
1766015929.569012,25
1766015929.5690172,23
1766015929.569022,24
1766015929.5690272,25
1766015929.569031,23
1766015929.569036,23
1766015929.569041,25
1766015929.569046,26
1766015929.5690508,28
1766015929.569056,24
1766015929.569061,26
1766015929.569067,25
1766015929.569073,29
1766015929.569078,26
1766015929.569083,25
1766015929.569088,27
1766015929.5690932,26
1766015929.569098,27
1766015929.569103,23
1766015929.569107,28
1766015929.569112,26
1766015929.5691168,26
1766015929.569122,24
1766015929.5691268,23
1766015929.569132,27
1766015929.5691369,27
1766015929.569142,28
1766015929.5691469,27
1766015929.569151,25
1766015929.5691562,24
1766015929.569161,25
1766015929.5691662,26
1766015929.569171,29
1766015929.569176,28
1766015929.56918,27
1766015929.569185,27
1766015929.5691898,26
1766015929.569195,26
1766015929.5692,28
1766015929.5692039,24
1766015929.569209,26
1766015929.5692139,30
1766015929.569219,27
1766015929.5692239,26
1766015929.56923,29
1766015929.5692348,28
1766015929.56924,29
1766015929.5692449,26
1766015929.56925,26
1766015929.5692549,27
1766015929.5692601,27
1766015929.5692642,30
1766015929.569269,28
1766015929.5692742,25
1766015929.569279,26
1766015929.5692842,26
1766015929.569289,28
1766015929.569294,28
1766015929.569299,30
1766015929.569303,29
1766015929.5693078,28
1766015929.569313,29
1766015929.5693178,28
1766015929.569323,28
1766015929.569328,31
1766015929.569334,30
1766015929.569338,28
1766015929.569343,31
1766015929.569348,33
1766015929.5693529,31
1766015929.569358,31
1766015929.5693629,32
1766015929.569367,31
1766015929.569372,30
1766015929.569377,32
1766015929.569382,30
1766015929.569387,34
1766015929.5693922,34
1766015929.569398,34
1766015929.569404,32
1766015929.5694091,36
1766015929.5694132,31
1766015929.569418,35
1766015929.5694232,33
1766015929.569428,36
1766015929.569433,31
1766015929.5694919,33
1766015929.569504,32
1766015929.569515,32
1766015929.569525,33
1766015929.569535,32
1766015929.569545,32
1766015929.569556,34
1766015929.569566,36
1766015929.569576,35
1766015929.569586,34
1766015929.5695958,35
1766015929.5696058,36
1766015929.5696158,35
1766015929.569626,38
1766015929.569636,37
1766015929.5696461,35
1766015929.5696561,39
1766015929.5696661,36
1766015929.569676,37
1766015929.569696,34
1766015929.569707,38
1766015929.569731,34
1766015929.569742,36
1766015929.5697532,36
1766015929.5697641,34
1766015929.569777,35
1766015929.5697868,35
1766015929.569798,36
1766015929.569809,37
1766015929.569819,37
1766015929.5698292,37
1766015929.5698402,35
1766015929.569851,36
1766015929.5698612,34
1766015929.569872,36
1766015929.5698829,39
1766015929.5698931,35
1766015929.5699031,36
1766015929.569914,35
1766015929.569924,35
1766015929.569935,37
1766015929.569977,34
1766015929.569988,37
1766015929.569998,36
1766015929.570009,35
1766015929.5700202,36
1766015929.57003,37
1766015929.570051,35
1766015929.5700622,36
1766015929.5700889,35
1766015929.570101,36
1766015929.570111,37
1766015929.570122,37
1766015929.570132,37
1766015929.570142,40
1766015929.570152,38
1766015929.5701618,40
1766015929.570174,38
1766015929.570185,40
1766015929.570195,41
1766015929.570205,38
1766015929.5702138,38
1766015929.570224,40
1766015929.570234,35
1766015929.570244,39
1766015929.570254,37
1766015929.570264,39
1766015929.570275,38
1766015929.570285,40
1766015929.570295,39
1766015929.570305,38
1766015929.5703151,39
1766015929.570325,41
1766015929.570335,39
1766015929.570345,41
1766015929.570355,41
1766015929.570365,42
1766015929.570375,42
1766015929.570385,43
1766015929.570394,46
1766015929.570404,44
1766015929.570414,44
1766015929.570425,42
1766015929.570434,45
1766015929.570444,46
1766015929.5704541,47
1766015929.570464,47
1766015929.570474,47
1766015929.570484,46
1766015929.570494,49
1766015929.570506,51
1766015929.5705159,47
1766015929.570526,49
1766015929.570536,51
1766015929.570546,48
1766015929.570555,48
1766015929.5705652,50
1766015929.570575,48
1766015929.570585,48
1766015929.570595,46
1766015929.570605,45
1766015929.570615,46
1766015929.570624,44
1766015929.570634,48
1766015929.570644,50
1766015929.570654,48
1766015929.570664,48
1766015929.570674,50
1766015929.570684,48
1766015929.570694,44
1766015929.570704,48
1766015929.570714,46
1766015929.570724,45
1766015929.570734,47
1766015929.570744,44
1766015929.570754,48
1766015929.570763,46
1766015929.570773,42
1766015929.570783,46
1766015929.570793,44
1766015929.570803,46
1766015929.570813,44
1766015929.570823,49
1766015929.570834,49
1766015929.570844,51
1766015929.570854,51
1766015929.5708642,48
1766015929.5708742,51
1766015929.570883,48
1766015929.570893,46
1766015929.570903,49
1766015929.570913,47
1766015929.570923,46
1766015929.570933,50
1766015929.5709429,50
1766015929.570953,50
1766015929.570963,53
1766015929.570972,53
1766015929.570982,48
1766015929.5709922,52
1766015929.571002,53
1766015929.571012,54
1766015929.571022,50
1766015929.571032,51
1766015929.571042,50
1766015929.571052,48
1766015929.571061,52
1766015929.571071,51
1766015929.5710819,51
1766015929.571092,50
1766015929.571102,53
1766015929.571112,52
1766015929.571122,49
1766015929.571132,52
1766015929.571143,52
1766015929.5711548,53
1766015929.5711648,54
1766015929.571176,51
1766015929.5711858,55
1766015929.5711958,53
1766015929.571223,53
1766015929.57124,52
1766015929.571251,53
1766015929.571262,53
1766015929.571272,54
1766015929.571286,57
1766015929.571297,54
1766015929.571309,53
1766015929.57132,51
1766015929.5713542,54
1766015929.571365,50
1766015929.5713751,50
1766015929.571411,50
1766015929.571441,48
1766015929.571454,50
1766015929.5714638,52
1766015929.571475,52
1766015929.571485,52
1766015929.5714948,51
1766015929.5715048,49
1766015929.5715148,53
1766015929.571525,50
1766015929.5715358,48
1766015929.571546,49
1766015929.571556,51
1766015929.571566,49
1766015929.571576,53
1766015929.571588,51
1766015929.571599,52
1766015929.571609,49
1766015929.571619,48
1766015929.571629,51
1766015929.5716538,49
1766015929.5716748,52
1766015929.571685,51
1766015929.571696,49
1766015929.571706,50
1766015929.571716,51
1766015929.571726,51
1766015929.571736,48
1766015929.571746,50
1766015929.5717561,48
1766015929.571767,51
1766015929.571777,51
1766015929.571787,54
1766015929.571797,51
1766015929.571807,48
1766015929.571817,52
1766015929.571827,50
1766015929.57184,48
1766015929.571852,50
1766015929.571862,52
1766015929.571872,50
1766015929.571882,51
1766015929.571893,49
1766015929.571903,48
1766015929.571913,50
1766015929.571923,53
1766015929.571933,52
1766015929.5719428,50
1766015929.571956,49
1766015929.571966,51
1766015929.571976,49
1766015929.571986,51
1766015929.571996,50
1766015929.572006,53
1766015929.57203,50
1766015929.572036,51
1766015929.572041,51
1766015929.572046,52
1766015929.572051,48
1766015929.572056,48
1766015929.5720608,52
1766015929.572065,48
1766015929.57207,49
1766015929.572075,51
1766015929.5720801,48
1766015929.572085,51
1766015929.5720892,49
1766015929.572094,50
1766015929.572099,51
1766015929.572104,54
1766015929.572109,53
1766015929.5721128,51
1766015929.572118,49
1766015929.5721228,53
1766015929.572128,51
1766015929.572133,49
1766015929.5721369,51
1766015929.5721421,46
1766015929.572147,47
1766015929.5721521,51
1766015929.572159,49
1766015929.572164,48
1766015929.57217,49
1766015929.572174,50
1766015929.5721788,50
1766015929.572184,50
1766015929.5721889,50
1766015929.572193,48
1766015929.572198,48
1766015929.572203,51
1766015929.5722082,50
1766015929.572212,48
1766015929.572217,51
1766015929.572222,48
1766015929.572227,49
1766015929.5722308,47
1766015929.572236,46
1766015929.5722408,46
1766015929.572246,49
1766015929.5722501,48
1766015929.572255,47
1766015929.5722601,51
1766015929.572265,51
1766015929.572269,46
1766015929.572274,50
1766015929.572279,50
1766015929.572284,49
1766015929.572306,47
1766015929.57231,50
1766015929.572315,49
1766015929.57232,51
1766015929.5723252,49
1766015929.57233,49
1766015929.572334,49
1766015929.572341,49
1766015929.572347,50
1766015929.572351,46
1766015929.572356,50
1766015929.572361,48
1766015929.572366,49
1766015929.5723698,51
1766015929.572375,48
1766015929.5723798,50
1766015929.572385,51
1766015929.5723898,52
1766015929.572395,51
1766015929.5723991,50
1766015929.572404,49
1766015929.5724092,50
1766015929.572414,48
1766015929.572418,50
1766015929.572423,49
1766015929.572428,50
1766015929.572433,49
1766015929.572438,50
1766015929.5724428,47
1766015929.572448,49
1766015929.572452,46
1766015929.572457,50
1766015929.572462,52
1766015929.5724669,45
1766015929.572472,52
1766015929.572476,45
1766015929.572481,46
1766015929.572486,49
1766015929.572491,49
1766015929.5724952,46
1766015929.572502,46
1766015929.572507,47
1766015929.572513,50
1766015929.5725172,47
1766015929.572522,45
1766015929.5725272,47
1766015929.572532,46
1766015929.572536,47
1766015929.572541,47
1766015929.572546,46
1766015929.572551,48
1766015929.572556,45
1766015929.5725598,45
1766015929.572565,46
1766015929.57257,43
1766015929.572575,43
1766015929.5725791,42
1766015929.572584,45
1766015929.5725892,48
1766015929.572594,44
1766015929.572598,47
1766015929.572603,46
1766015929.572608,41
1766015929.572613,45
1766015929.572618,44
1766015929.572622,45
1766015929.5726268,43
1766015929.572632,42
1766015929.5726368,43
1766015929.5726411,45
1766015929.572646,45
1766015929.572651,44
1766015929.5726562,42
1766015929.572661,41
1766015929.572667,45
1766015929.572674,40
1766015929.5726788,41
1766015929.572684,43
1766015929.5726888,41
1766015929.572694,43
1766015929.5726988,43
1766015929.572703,43
1766015929.5727081,42
1766015929.572713,40
1766015929.5727181,41
1766015929.572722,38
1766015929.572727,43
1766015929.572732,42
1766015929.572737,40
1766015929.572742,40
1766015929.572746,41
1766015929.572751,40
1766015929.572756,40
1766015929.572761,42
1766015929.5727649,40
1766015929.57277,40
1766015929.572775,43
1766015929.5727801,41
1766015929.572785,39
1766015929.572789,39
1766015929.5727942,40
1766015929.572799,38
1766015929.572803,40
1766015929.572808,39
1766015929.572813,37
1766015929.5728178,36
1766015929.572822,38
1766015929.572829,37
1766015929.572835,38
1766015929.57284,39
1766015929.572845,38
1766015929.5728488,35
1766015929.572854,36
1766015929.5728588,31
1766015929.572864,37
1766015929.572868,36
1766015929.5728729,33
1766015929.5728781,33
1766015929.572883,35
1766015929.5728881,34
1766015929.572892,38
1766015929.572897,35
1766015929.572902,33
1766015929.572907,32
1766015929.5729122,37
1766015929.572918,33
1766015929.572923,32
1766015929.572928,34
1766015929.5729332,34
1766015929.572938,33
1766015929.5729432,35
1766015929.572948,31
1766015929.572953,34
1766015929.572957,32
1766015929.572962,34
1766015929.5729668,31
1766015929.572972,29
1766015929.5729768,29
1766015929.5729809,30
1766015929.5729861,30
1766015929.572992,32
1766015929.5729978,32
1766015929.573003,28
1766015929.5730078,31
1766015929.5730119,31
1766015929.5730171,33
1766015929.573022,29
1766015929.5730271,30
1766015929.573031,31
1766015929.573036,32
1766015929.573041,30
1766015929.573046,29
1766015929.57305,30
1766015929.573055,32
1766015929.57306,31
1766015929.573065,32
1766015929.573069,27
1766015929.5730739,26
1766015929.573079,32
1766015929.5730839,29
1766015929.5730891,29
1766015929.5730932,29
1766015929.573098,28
1766015929.5731032,29
1766015929.573107,29
1766015929.573112,32
1766015929.573117,32
1766015929.573122,33
1766015929.5731268,27
1766015929.573131,26
1766015929.5731359,28
1766015929.573141,29
1766015929.573146,31
1766015929.57315,28
1766015929.573157,29
1766015929.573162,28
1766015929.573167,28
1766015929.5731719,27
1766015929.5731761,29
1766015929.573181,27
1766015929.5731862,25
1766015929.573191,28
1766015929.573196,27
1766015929.5732,26
1766015929.573205,29
1766015929.57321,29
1766015929.573215,29
1766015929.57322,29
1766015929.5732238,27
1766015929.573229,27
1766015929.5732338,29
1766015929.573239,27
1766015929.573243,26
1766015929.573248,30
1766015929.5732532,28
1766015929.573258,24
1766015929.573262,26
1766015929.573267,26
1766015929.573272,25
1766015929.573277,26
1766015929.573282,26
1766015929.5732858,25
1766015929.573291,27
1766015929.573296,27
1766015929.573301,24
1766015929.5733051,26
1766015929.57331,26
1766015929.573316,28
1766015929.573323,23
1766015929.573327,23
1766015929.573332,26
1766015929.573337,26
1766015929.5733418,26
1766015929.5733461,27
1766015929.573351,25
1766015929.573356,27
1766015929.573361,23
1766015929.573365,27
1766015929.5733702,25
1766015929.573375,24
1766015929.573379,21
1766015929.573384,26
1766015929.573389,24
1766015929.5733938,26
1766015929.573399,25
1766015929.573403,25
1766015929.573408,28
1766015929.5734131,25
1766015929.573418,27
1766015929.5734222,23
1766015929.573427,24
1766015929.573432,23
1766015929.573437,24
1766015929.573441,28
1766015929.5734458,25
1766015929.573451,24
1766015929.5734558,25
1766015929.5734599,25
1766015929.573465,23
1766015929.5734699,23
1766015929.573476,22
1766015929.5734808,25
1766015929.573487,22
1766015929.5734909,24
1766015929.573496,23
1766015929.5735009,25
1766015929.573506,24
1766015929.573511,24
1766015929.573515,22
1766015929.57352,24
1766015929.573525,28
1766015929.5735302,23
1766015929.573534,23
1766015929.573539,27
1766015929.573544,19
1766015929.573549,22
1766015929.5735528,27
1766015929.573558,23
1766015929.5735629,24
1766015929.573568,21
1766015929.5735722,24
1766015929.573577,26
1766015929.5735822,24
1766015929.573587,27
1766015929.573591,26
1766015929.573596,26
1766015929.573601,24
1766015929.5736058,25
1766015929.573611,22
1766015929.573615,23
1766015929.57362,23
1766015929.573625,24
1766015929.573633,24
1766015929.573638,25
1766015929.573644,22
1766015929.57365,22
1766015929.5736551,23
1766015929.573659,23
1766015929.573664,22
1766015929.5736692,20
1766015929.573674,25
1766015929.573678,25
1766015929.573683,23
1766015929.573688,24
1766015929.573693,25
1766015929.573698,22
1766015929.5737019,23
1766015929.573707,23
1766015929.5737119,24
1766015929.5737169,25
1766015929.5737212,23
1766015929.573726,25
1766015929.5737312,22
1766015929.573736,23
1766015929.57374,25
1766015929.573745,26
1766015929.57375,24
1766015929.5737548,27
1766015929.573759,22
1766015929.573764,23
1766015929.5737689,24
1766015929.573774,25
1766015929.5737789,22
1766015929.573783,20
1766015929.573788,24
1766015929.573793,26
1766015929.573798,25
1766015929.5738041,24
1766015929.5738099,26
1766015929.573815,26
1766015929.5738199,23
1766015929.5738251,25
1766015929.57383,23
1766015929.573834,27
1766015929.5738392,26
1766015929.573844,23
1766015929.5738492,24
1766015929.573854,25
1766015929.573859,22
1766015929.573863,27
1766015929.573868,24
1766015929.5738728,24
1766015929.573878,26
1766015929.5738828,24
1766015929.5738869,23
1766015929.573892,24
1766015929.573897,23
1766015929.5739021,21
1766015929.573906,23
1766015929.573911,24
1766015929.573916,23
1766015929.573921,24
1766015929.573926,23
1766015929.57393,22
1766015929.573935,25
1766015929.57394,24
1766015929.573945,23
1766015929.57395,24
1766015929.573954,26
1766015929.5739589,25
1766015929.573966,23
1766015929.573972,25
1766015929.573977,22
1766015929.573981,24
1766015929.573986,25
1766015929.5739908,25
1766015929.573996,22
1766015929.5740001,25
1766015929.574005,24
1766015929.5740101,21
1766015929.574015,25
1766015929.574019,23
1766015929.574024,25
1766015929.574029,23
1766015929.574034,22
1766015929.574039,24
1766015929.5740428,24
1766015929.574048,22
1766015929.574053,23
1766015929.574058,23
1766015929.574062,21
1766015929.5740669,22
1766015929.5740721,24
1766015929.574077,24
1766015929.574081,27
1766015929.574086,23
1766015929.574091,24
1766015929.574096,22
1766015929.5741,25
1766015929.574105,25
1766015929.57411,21
1766015929.574115,23
1766015929.57412,24
1766015929.574126,22
1766015929.574131,21
1766015929.574136,25
1766015929.574141,25
1766015929.574146,25
1766015929.5741498,25
1766015929.574155,28
1766015929.5741599,25
1766015929.574165,24
1766015929.57417,25
1766015929.574174,23
1766015929.5741792,24
1766015929.574184,25
1766015929.574189,23
1766015929.574194,28
1766015929.574198,26
1766015929.5742028,23
1766015929.574208,25
1766015929.574213,23
1766015929.574218,24
1766015929.574222,24
1766015929.5742269,23
1766015929.574232,23
1766015929.5742369,23
1766015929.574242,23
1766015929.574246,26
1766015929.574251,23
1766015929.5742562,25
1766015929.574261,22
1766015929.5742662,24
1766015929.57427,26
1766015929.574275,26
1766015929.57428,27
1766015929.574285,25
1766015929.5742888,23
1766015929.574294,24
1766015929.5742989,25
1766015929.574304,25
1766015929.574309,23
1766015929.574313,27
1766015929.5743182,24
1766015929.574323,22
1766015929.574328,21
1766015929.574332,24
1766015929.574337,23
1766015929.5743418,24
1766015929.574347,25
1766015929.574351,23
1766015929.574356,24
1766015929.574361,23
1766015929.5743659,22
1766015929.574371,24
1766015929.574375,24
1766015929.57438,23
1766015929.574385,23
1766015929.574389,24
1766015929.5743942,24
1766015929.574399,23
1766015929.574404,27
1766015929.574409,20
1766015929.574414,21
1766015929.5744178,23
1766015929.574423,22
1766015929.5744278,23
1766015929.574433,23
1766015929.5744379,28
1766015929.574442,24
1766015929.5744472,24
1766015929.574452,24
1766015929.5744572,24
1766015929.574462,22
1766015929.5744672,24
1766015929.574472,26
1766015929.574477,24
1766015929.574481,22
1766015929.574486,25
1766015929.5744908,27
1766015929.574496,25
1766015929.574501,26
1766015929.5745049,22
1766015929.57451,24
1766015929.5745149,25
1766015929.57452,21
1766015929.574524,23
1766015929.574529,23
1766015929.574534,25
1766015929.574539,23
1766015929.574544,23
1766015929.574548,25
1766015929.574553,25
1766015929.574558,21
1766015929.574563,26
1766015929.574568,25
1766015929.574572,24
1766015929.5745769,21
1766015929.574582,23
1766015929.5745869,23
1766015929.574591,24
1766015929.5745962,25
1766015929.574601,26
1766015929.5746062,24
1766015929.574611,23
1766015929.574615,23
1766015929.57462,23
1766015929.574625,23
1766015929.5746298,24
1766015929.574635,25
1766015929.574639,25
1766015929.5746439,23
1766015929.574649,23
1766015929.5746539,26
1766015929.5746582,23
1766015929.574663,24
1766015929.574668,24
1766015929.574674,25
1766015929.5746791,25
1766015929.574684,22
1766015929.574689,24
1766015929.5746932,24
1766015929.574698,22
1766015929.5747032,25
1766015929.574708,22
1766015929.574713,21
1766015929.574717,21
1766015929.574722,23
1766015929.5747268,24
1766015929.574732,24
1766015929.5747359,23
1766015929.574741,22
1766015929.5747461,22
1766015929.574751,22
1766015929.574792,24
1766015929.5748029,25
1766015929.574813,24
1766015929.574823,20
1766015929.574833,23
1766015929.574844,23
1766015929.574854,25
1766015929.574864,24
1766015929.5748951,25
1766015929.574902,21
1766015929.574908,23
1766015929.574913,24
1766015929.5749178,24
1766015929.574923,23
1766015929.574927,24
1766015929.5749319,21
1766015929.574937,25
1766015929.5749419,25
1766015929.574947,22
1766015929.574952,24
1766015929.5749571,23
1766015929.574962,24
1766015929.5749812,23
1766015929.57499,22
1766015929.574996,23
1766015929.575001,22
1766015929.575006,24
1766015929.575011,23
1766015929.575016,24
1766015929.575021,26
1766015929.575026,25
1766015929.575031,24
1766015929.5750349,25
1766015929.57504,24
1766015929.575045,24
1766015929.5750499,22
1766015929.5750551,22
1766015929.575059,23
1766015929.5750642,24
1766015929.575069,23
1766015929.575074,23
1766015929.575079,22
1766015929.575083,25
1766015929.575088,25
1766015929.575093,23
1766015929.575098,22
1766015929.575103,27
1766015929.575108,26
1766015929.575113,25
1766015929.575118,23
1766015929.5751228,23
1766015929.575128,22
1766015929.5751328,24
1766015929.5751371,23
1766015929.575142,26
1766015929.575147,25
1766015929.5751522,24
1766015929.575157,26
1766015929.5751622,23
1766015929.575166,25
1766015929.575171,26
1766015929.575176,24
1766015929.575181,26
1766015929.575186,26
1766015929.575191,26
1766015929.5751958,24
1766015929.5752,23
1766015929.575205,24
1766015929.57521,25
1766015929.575215,25
1766015929.5752199,24
1766015929.5752242,25
1766015929.575229,25
1766015929.575234,26
1766015929.575239,26
1766015929.575244,27
1766015929.5752478,24
1766015929.575253,23
1766015929.575258,23
1766015929.575263,27
1766015929.575268,25
1766015929.575273,27
1766015929.575277,24
1766015929.5752819,26
1766015929.575287,25
1766015929.5752919,23
1766015929.575297,26
1766015929.5753012,25
1766015929.575306,27
1766015929.5753112,25
1766015929.575316,24
1766015929.5753212,26
1766015929.575326,24
1766015929.575331,26
1766015929.575335,24
1766015929.57534,22
1766015929.5753448,26
1766015929.57535,25
1766015929.5753548,25
1766015929.57536,24
1766015929.575364,23
1766015929.575369,26
1766015929.5753741,27
1766015929.575379,28
1766015929.5753841,23
1766015929.575388,24
1766015929.575393,24
1766015929.575398,23
1766015929.575422,26
1766015929.575427,27
1766015929.5754318,25
1766015929.575436,25
1766015929.575496,23
1766015929.576554,25
1766015929.5775192,24
1766015929.578515,21
1766015929.579508,24
1766015929.5805151,24
1766015929.581501,23
1766015929.5825238,27
1766015929.5835268,25
1766015929.584526,24
1766015929.585531,27
1766015929.586575,24
1766015929.5875661,26
1766015929.588545,23
1766015929.589581,26
1766015929.590558,27
1766015929.591577,24
1766015929.592562,29
1766015929.59355,26
1766015929.594555,26
1766015929.595572,28
1766015929.596537,24
1766015929.5975392,27
1766015929.598551,22
1766015929.5995781,24
1766015929.600575,29
1766015929.601565,29
1766015929.602568,25
1766015929.603585,26
1766015929.604578,26
1766015929.605571,26
1766015929.606566,27
1766015929.607574,25
1766015929.608602,24
1766015929.60959,24
1766015929.610602,26
1766015929.611596,26
1766015929.612601,26
1766015929.6135838,26
1766015929.6145868,25
1766015929.6156101,24
1766015929.6166642,26
1766015929.617653,26
1766015929.618647,27
1766015929.619661,29
1766015929.620657,27
1766015929.621613,27
1766015929.6226182,21
1766015929.6236181,24
1766015929.624639,26
1766015929.625644,25
1766015929.626644,23
1766015929.627649,22
1766015929.6286662,24
1766015929.6296582,28
1766015929.630643,23
1766015929.631645,28
1766015929.63268,27
1766015929.633717,26
1766015929.634691,25
1766015929.635676,28
1766015929.6366808,24
1766015929.637671,25
1766015929.6386728,24
1766015929.639675,24
1766015929.640692,28
1766015929.641726,26
1766015929.64271,24
1766015929.643689,25
1766015929.644686,27
1766015929.645709,26
1766015929.646711,27
1766015929.6477041,22
1766015929.648723,26
1766015929.64973,25
1766015929.6507268,26
1766015929.651766,26
1766015929.652766,23
1766015929.653722,24
1766015929.65476,28
1766015929.655738,26
1766015929.6567512,28
1766015929.6577559,29
1766015929.658817,27
1766015929.6597602,26
1766015929.660751,31
1766015929.6617532,32
1766015929.662763,31
1766015929.6637619,32
1766015929.664767,30
1766015929.665775,31
1766015929.666804,29
1766015929.6678,30
1766015929.668777,32
1766015929.6697862,36
1766015929.670767,36
1766015929.671767,36
1766015929.6728058,37
1766015929.6737962,36
1766015929.674798,37
1766015929.6758149,38
1766015929.676817,37
1766015929.677818,39
1766015929.6787992,44
1766015929.679805,46
1766015929.6808221,49
1766015929.681813,55
1766015929.682816,58
1766015929.683819,64
1766015929.684837,63
1766015929.6859038,64
1766015929.686833,63
1766015929.687846,61
1766015929.6888351,60
1766015929.6898549,66
1766015929.690864,67
1766015929.691872,65
1766015929.692909,68
1766015929.6938748,67
1766015929.694874,69
1766015929.695877,69
1766015929.696956,68
1766015929.697931,70
1766015929.698965,69
1766015929.6999512,67
1766015929.7009962,71
1766015929.7019851,70
1766015929.702961,69
1766015929.7039528,69
1766015929.7049458,68
1766015929.705962,67
1766015929.7069561,68
1766015929.707963,66
1766015929.708933,66
1766015929.709955,65
1766015929.711002,67
1766015929.711939,66
1766015929.712961,69
1766015929.7139258,76
1766015929.714931,76
1766015929.715924,79
1766015929.7169259,80
1766015929.717927,90
1766015929.71894,82
1766015929.719936,83
1766015929.7209432,84
1766015929.721941,85
1766015929.722961,91
1766015929.723923,93
1766015929.7249432,99
1766015929.726051,108
1766015929.727036,116
1766015929.728053,127
1766015929.729093,134
1766015929.730051,135
1766015929.731055,137
1766015929.732057,141
1766015929.733056,148
1766015929.7340539,155
1766015929.735044,164
1766015929.7360609,164
1766015929.737043,163
1766015929.738059,167
1766015929.739058,169
1766015929.740082,171
1766015929.741049,172
1766015929.7421172,175
1766015929.7430882,176
1766015929.744101,176
1766015929.7450671,178
1766015929.7461052,174
1766015929.747102,172
1766015929.748081,175
1766015929.74913,176
1766015929.75008,178
1766015929.75107,180
1766015929.7520761,184
1766015929.7531068,182
1766015929.7541,184
1766015929.755112,180
1766015929.7561102,177
1766015929.7571158,175
1766015929.7581,177
1766015929.7591171,178
1766015929.760129,176
1766015929.761224,174
1766015929.7621188,174
1766015929.763121,174
1766015929.764127,172
1766015929.765188,171
1766015929.766134,169
1766015929.767137,168
1766015929.768128,167
1766015929.769133,168
1766015929.770158,164
1766015929.771126,164
1766015929.772157,166
1766015929.7731578,169
1766015929.774144,170
1766015929.775148,169
1766015929.776217,168
1766015929.777202,167
1766015929.778163,163
1766015929.7792158,165
1766015929.780221,162
1766015929.781186,162
1766015929.782179,163
1766015929.7831821,163
1766015929.7841868,159
1766015929.785181,161
1766015929.7861881,161
1766015929.7871811,159
1766015929.788181,160
1766015929.789213,163
1766015929.790194,168
1766015929.7912052,169
1766015929.792203,172
1766015929.793223,172
1766015929.7942212,168
1766015929.795223,168
1766015929.796224,169
1766015929.797238,166
1766015929.798224,165
1766015929.799238,163
1766015929.800237,163
1766015929.801214,159
1766015929.802239,161
1766015929.8032708,157
1766015929.804276,156
1766015929.805233,156
1766015929.806255,154
1766015929.8072488,151
1766015929.8082502,153
1766015929.809278,151
1766015929.8102589,149
1766015929.811269,148
1766015929.812268,146
1766015929.813279,146
1766015929.8142662,143
1766015929.815258,144
1766015929.8162649,138
1766015929.817285,136
1766015929.8182862,140
1766015929.819297,134
1766015929.820321,136
1766015929.821302,136
1766015929.822314,136
1766015929.82329,134
1766015929.824287,134
1766015929.8253021,137
1766015929.826315,135
1766015929.827299,136
1766015929.828295,136
1766015929.829329,142
1766015929.8303099,142
1766015929.831313,144
1766015929.832331,142
1766015929.833318,143
1766015929.834338,144
1766015929.83533,146
1766015929.836343,141
1766015929.837329,141
1766015929.8383482,142
1766015929.83936,141
1766015929.8403468,142
1766015929.8413298,139
1766015929.8424041,139
1766015929.843368,140
1766015929.844356,139
1766015929.845342,141
1766015929.846373,141
1766015929.847371,139
1766015929.848371,138
1766015929.849371,138
1766015929.850374,137
1766015929.851372,133
1766015929.852392,134
1766015929.8533812,132
1766015929.854389,132
1766015929.8554041,133
1766015929.856404,139
1766015929.8574028,139
1766015929.8583941,144
1766015929.8593988,148
1766015929.860404,145
1766015929.861403,146
1766015929.862392,144
1766015929.863424,149
1766015929.8644962,147
1766015929.865441,146
1766015929.866444,146
1766015929.8674319,147
1766015929.8684359,147
1766015929.869455,141
1766015929.870412,142
1766015929.8714392,142
1766015929.872443,139
1766015929.873438,141
1766015929.874462,136
1766015929.875458,139
1766015929.87645,136
1766015929.8774679,137
1766015929.878478,133
1766015929.879455,133
1766015929.880477,134
1766015929.881464,131
1766015929.8824708,133
1766015929.88347,131
1766015929.884498,130
1766015929.885497,127
1766015929.8864949,125
1766015929.887481,123
1766015929.8885078,125
1766015929.889494,124
1766015929.890508,120
1766015929.891519,120
1766015929.8925152,119
1766015929.8934999,121
1766015929.894563,120
1766015929.895513,118
1766015929.896527,112
1766015929.897534,115
1766015929.898531,113
1766015929.899588,112
1766015929.9005811,111
1766015929.9015522,108
1766015929.90253,108
1766015929.903541,106
1766015929.904547,105
1766015929.90555,104
1766015929.9065568,106
1766015929.907548,103
1766015929.908541,108
1766015929.9095402,107
1766015929.910551,114
1766015929.911606,120
1766015929.9125388,121
1766015929.913554,121
1766015929.914547,124
1766015929.915613,124
1766015929.916575,129
1766015929.917572,130
1766015929.918565,132
1766015929.919578,129
1766015929.9205701,129
1766015929.92159,131
1766015929.922594,133
1766015929.923598,132
1766015929.9246001,132
1766015929.9255989,130
1766015929.926579,134
1766015929.927596,136
1766015929.9286,139
1766015929.929662,139
1766015929.9306629,132
1766015929.931621,137
1766015929.9326148,142
1766015929.933619,141
1766015929.934635,143
1766015929.93568,140
1766015929.936608,142
1766015929.9376252,143
1766015929.938635,138
1766015929.939635,138
1766015929.940641,140
1766015929.9417,136
1766015929.942647,136
1766015929.9436438,135
1766015929.944685,131
1766015929.945668,133
1766015929.946707,132
1766015929.947649,136
1766015929.948695,135
1766015929.949708,138
1766015929.950707,139
1766015929.9516559,136
1766015929.952668,136
1766015929.953697,136
1766015929.954711,132
1766015929.9557178,132
1766015929.956707,129
1766015929.957692,130
1766015929.958699,126
1766015929.959709,127
1766015929.9606872,125
1766015929.961689,122
1766015929.9627352,125
1766015929.963767,124
1766015929.964746,121
1766015929.965754,121
1766015929.9667158,117
1766015929.967716,119
1766015929.968811,117
1766015929.969722,117
1766015929.970742,114
1766015929.971742,111
1766015929.972735,113
1766015929.97374,109
1766015929.9747462,112
1766015929.9757318,108
1766015929.976747,110
1766015929.9777348,108
1766015929.978733,108
1766015929.979756,108
1766015929.980737,106
1766015929.981764,103
1766015929.982762,105
1766015929.983762,103
1766015929.98475,102
1766015929.985694,99
1766015929.986687,98
1766015929.987672,98
1766015929.988723,95
1766015929.9896939,98
1766015929.9906938,93
1766015929.9917052,96
1766015929.992706,93
1766015929.993705,94
1766015929.994703,96
1766015929.995677,93
1766015929.996704,93
1766015929.9977002,93
1766015929.998715,95
1766015929.999713,93
1766015930.0007129,96
1766015930.001726,91
1766015930.002718,93
1766015930.003716,92
1766015930.0047228,89
1766015930.0057411,88
1766015930.006732,88
1766015930.007731,90
1766015930.008745,89
1766015930.0097458,90
1766015930.010751,89
1766015930.01174,88
1766015930.0127628,87
1766015930.01375,86
1766015930.0147572,87
1766015930.015763,86
1766015930.016767,86
1766015930.017764,84
1766015930.018764,83
1766015930.019757,87
1766015930.020756,82
1766015930.021776,83
1766015930.022778,83
1766015930.023783,85
1766015930.024788,83
1766015930.0257971,85
1766015930.026796,83
1766015930.0278149,80
1766015930.0288131,78
1766015930.0298119,80
1766015930.030852,82
1766015930.03182,85
1766015930.032809,83
1766015930.033814,86
1766015930.0348248,84
1766015930.035826,88
1766015930.03683,89
1766015930.037827,91
1766015930.038816,88
1766015930.039833,92
1766015930.04084,94
1766015930.0418382,92
1766015930.042853,92
1766015930.043842,91
1766015930.044833,94
1766015930.0458398,91
1766015930.046848,93
1766015930.047938,90
1766015930.0489442,93
1766015930.0499468,91
1766015930.050942,88
1766015930.051938,90
1766015930.0529668,84
1766015930.053926,87
1766015930.054938,84
1766015930.055936,86
1766015930.056936,82
1766015930.057935,83
1766015930.0589461,82
1766015930.059982,83
1766015930.060937,80
1766015930.061918,79
1766015930.0629141,80
1766015930.063932,78
1766015930.064943,79
1766015930.0659368,79
1766015930.066936,78
1766015930.0679328,80
1766015930.0689359,80
1766015930.069917,79
1766015930.070944,78
1766015930.071936,75
1766015930.0729349,76
1766015930.073993,74
1766015930.074956,76
1766015930.0760052,74
1766015930.0769558,76
1766015930.0779421,75
1766015930.078923,76
1766015930.079942,75
1766015930.080956,72
1766015930.081957,76
1766015930.082956,72
1766015930.0839648,71
1766015930.084961,71
1766015930.085958,71
1766015930.0869398,71
1766015930.087955,75
1766015930.088974,72
1766015930.0899699,75
1766015930.090975,72
1766015930.091976,75
1766015930.09298,73
1766015930.093996,75
1766015930.094954,73
1766015930.095975,72
1766015930.096971,71
1766015930.098013,73
1766015930.098985,69
1766015930.099993,67
1766015930.101035,69
1766015930.1020591,66
1766015930.103034,70
1766015930.1040142,67
1766015930.10501,70
1766015930.106011,69
1766015930.107014,67
1766015930.108014,65
1766015930.109018,67
1766015930.110037,64
1766015930.1110358,66
1766015930.112028,63
1766015930.11301,64
1766015930.114034,67
1766015930.1150331,65
1766015930.1160378,63
1766015930.1170628,65
1766015930.118067,61
1766015930.119054,62
1766015930.1200378,62
1766015930.121077,60
1766015930.122068,64
1766015930.123041,59
1766015930.1240609,62
1766015930.125073,59
1766015930.126069,60
1766015930.127077,63
1766015930.128066,61
1766015930.129071,59
1766015930.1300638,62
1766015930.131083,58
1766015930.132087,61
1766015930.133089,62
1766015930.134089,63
1766015930.1350908,63
1766015930.136087,64
1766015930.137075,65
1766015930.1380968,68
1766015930.139103,68
1766015930.14011,64
1766015930.141113,67
1766015930.142121,66
1766015930.14313,65
1766015930.144133,67
1766015930.145097,68
1766015930.146126,68
1766015930.147128,73
1766015930.148133,69
1766015930.149135,69
1766015930.1501389,70
1766015930.151149,69
1766015930.1521542,74
1766015930.153153,75
1766015930.1541498,74
1766015930.155178,75
1766015930.156194,75
1766015930.157185,76
1766015930.15814,77
1766015930.159213,76
1766015930.160255,75
1766015930.161202,73
1766015930.162178,74
1766015930.1631858,71
1766015930.164154,68
1766015930.1652129,68
1766015930.166216,71
1766015930.167187,72
1766015930.168214,71
1766015930.169197,69
1766015930.1702778,71
1766015930.1712158,71
1766015930.172223,70
1766015930.1732218,72
1766015930.1742778,68
1766015930.175241,68
1766015930.1762161,66
1766015930.177304,69
1766015930.1782389,66
1766015930.179272,67
1766015930.180287,64
1766015930.1812701,67
1766015930.182251,66
1766015930.183311,65
1766015930.184309,67
1766015930.185287,66
1766015930.1862311,66
1766015930.187308,66
1766015930.1883252,66
1766015930.189323,66
1766015930.190303,68
1766015930.191326,67
1766015930.19233,69
1766015930.193336,63
1766015930.194327,67
1766015930.195337,65
1766015930.196289,64
1766015930.197344,66
1766015930.198294,60
1766015930.199302,62
1766015930.200307,63
1766015930.201349,65
1766015930.202303,62
1766015930.203346,62
1766015930.204295,62
1766015930.2053561,60
1766015930.206285,60
1766015930.207377,63
1766015930.208309,62
1766015930.209376,59
1766015930.210391,56
1766015930.211311,58
1766015930.2123468,58
1766015930.2133482,58
1766015930.214358,60
1766015930.215314,61
1766015930.216352,59
1766015930.217382,61
1766015930.218344,64
1766015930.219386,64
1766015930.220323,62
1766015930.2213461,61
1766015930.222364,61
1766015930.223346,63
1766015930.2243671,61
1766015930.225417,59
1766015930.226442,60
1766015930.2274098,61
1766015930.22841,60
1766015930.229423,59
1766015930.2304032,60
1766015930.2313652,61
1766015930.2324102,63
1766015930.233417,61
1766015930.234397,61
1766015930.235401,63
1766015930.236375,58
1766015930.237418,61
1766015930.238413,62
1766015930.2394428,60
1766015930.2404249,60
1766015930.24146,61
1766015930.2424378,63
1766015930.243447,63
1766015930.244423,58
1766015930.245461,62
1766015930.246451,60
1766015930.247479,57
1766015930.2484322,63
1766015930.249453,64
1766015930.2504692,60
1766015930.2514791,61
1766015930.252461,64
1766015930.253481,63
1766015930.2544599,62
1766015930.2554932,64
1766015930.2564669,63
1766015930.257497,62
1766015930.2584739,63
1766015930.259445,59
1766015930.260469,63
1766015930.261478,60
1766015930.262468,61
1766015930.26348,56
1766015930.2644951,56
1766015930.265497,60
1766015930.2665112,60
1766015930.267529,62
1766015930.268502,63
1766015930.269525,58
1766015930.2705028,61
1766015930.271501,66
1766015930.272516,64
1766015930.273546,66
1766015930.274514,66
1766015930.2755682,67
1766015930.276526,68
1766015930.277559,69
1766015930.27856,69
1766015930.279566,63
1766015930.2805178,66
1766015930.281576,64
1766015930.282568,62
1766015930.283574,65
1766015930.284598,62
1766015930.285575,64
1766015930.28654,64
1766015930.287581,64
1766015930.288539,64
1766015930.2895958,67
1766015930.290549,68
1766015930.291591,66
1766015930.292588,65
1766015930.293568,63
1766015930.294543,66
1766015930.295573,63
1766015930.296607,61
1766015930.2975621,61
1766015930.2985659,63
1766015930.299593,62
1766015930.3006,58
1766015930.3015969,59
1766015930.302571,58
1766015930.30361,58
1766015930.304615,57
1766015930.305588,58
1766015930.306606,59
1766015930.307629,56
1766015930.3086169,54
1766015930.309607,55
1766015930.310622,54
1766015930.311629,55
1766015930.312623,56
1766015930.313618,53
1766015930.3146,53
1766015930.3156302,54
1766015930.316633,55
1766015930.3176398,57
1766015930.3186471,59
1766015930.319623,56
1766015930.320661,60
1766015930.3216581,60
1766015930.3226528,61
1766015930.323648,60
1766015930.324661,60
1766015930.3256571,57
1766015930.326661,60
1766015930.3276632,58
1766015930.3286772,59
1766015930.329674,55
1766015930.3306901,59
1766015930.331691,57
1766015930.33267,57
1766015930.3336818,57
1766015930.334684,57
1766015930.335694,56
1766015930.3367,55
1766015930.337709,56
1766015930.338696,55
1766015930.33968,54
1766015930.340684,55
1766015930.341698,52
1766015930.3427,54
1766015930.3437052,55
1766015930.3446841,55
1766015930.345717,51
1766015930.3467011,54
1766015930.347711,55
1766015930.348717,55
1766015930.349717,54
1766015930.350703,52
1766015930.351707,54
1766015930.352714,51
1766015930.353719,52
1766015930.354732,51
1766015930.355743,51
1766015930.356742,53
1766015930.3577468,51
1766015930.3587599,50
1766015930.359753,48
1766015930.360773,52
1766015930.361763,51
1766015930.3627672,50
1766015930.36377,54
1766015930.364772,55
1766015930.365793,55
1766015930.3667898,55
1766015930.3677309,54
1766015930.368768,58
1766015930.369733,54
1766015930.370771,54
1766015930.371808,51
1766015930.372788,54
1766015930.373729,55
1766015930.374746,50
1766015930.375774,52
1766015930.376798,52
1766015930.3777778,56
1766015930.378792,51
1766015930.379804,54
1766015930.380799,50
1766015930.3818161,53
1766015930.382827,54
1766015930.3838148,53
1766015930.3848221,53
1766015930.3858209,52
1766015930.386851,54
1766015930.387827,52
1766015930.3887758,52
1766015930.3898299,50
1766015930.390833,51
1766015930.3918478,47
1766015930.3928268,49
1766015930.393832,51
1766015930.394797,50
1766015930.395848,51
1766015930.396815,48
1766015930.397865,48
1766015930.398849,48
1766015930.39986,51
1766015930.400848,47
1766015930.401859,50
1766015930.402814,46
1766015930.403872,50
1766015930.404873,45
1766015930.4058392,48
1766015930.4068842,48
1766015930.4078898,48
1766015930.408969,47
1766015930.409869,45
1766015930.410878,47
1766015930.411964,42
1766015930.4129589,44
1766015930.413934,43
1766015930.414881,44
1766015930.4159622,45
1766015930.416943,45
1766015930.41796,42
1766015930.4189608,45
1766015930.419931,44
1766015930.42096,43
1766015930.42193,41
1766015930.422959,42
1766015930.423959,43
1766015930.424924,41
1766015930.425956,44
1766015930.426933,41
1766015930.42793,44
1766015930.4289742,45
1766015930.42996,43
1766015930.4309351,45
1766015930.431961,47
1766015930.43297,49
1766015930.43396,47
1766015930.4349408,48
1766015930.435943,44
1766015930.436951,47
1766015930.4379551,45
1766015930.43897,47
1766015930.43997,47
1766015930.440976,43
1766015930.441965,46
1766015930.442987,47
1766015930.4439838,45
1766015930.444989,46
1766015930.446014,45
1766015930.446995,46
1766015930.448,46
1766015930.4489899,43
1766015930.449999,45
1766015930.451007,44
1766015930.4519958,47
1766015930.453017,46
1766015930.454025,49
1766015930.4550211,52
1766015930.456019,50
1766015930.457021,50
1766015930.458024,52
1766015930.459029,49
1766015930.4600372,50
1766015930.461039,53
1766015930.462046,49
1766015930.463059,51
1766015930.4640582,51
1766015930.465056,49
1766015930.466044,49
1766015930.467066,48
1766015930.468071,49
1766015930.469075,45
1766015930.470104,48
1766015930.471092,46
1766015930.472095,48
1766015930.473096,47
1766015930.474081,47
1766015930.4750779,48
1766015930.476095,46
1766015930.4770849,47
1766015930.4780889,46
1766015930.4790962,48
1766015930.480094,46
1766015930.481078,45
1766015930.482093,46
1766015930.4831018,47
1766015930.4840991,46
1766015930.485104,46
1766015930.486091,45
1766015930.4870982,46
1766015930.488092,41
1766015930.4891021,45
1766015930.4901,48
1766015930.49112,43
1766015930.4921222,43
1766015930.493121,41
1766015930.494124,44
1766015930.4951339,41
1766015930.496128,46
1766015930.497129,41
1766015930.498125,43
1766015930.499136,43
1766015930.500139,44
1766015930.501148,43
1766015930.502133,42
1766015930.503145,42
1766015930.504148,41
1766015930.505159,43
1766015930.506159,41
1766015930.507157,42
1766015930.50816,42
1766015930.509166,42
1766015930.510171,40
1766015930.5111868,44
1766015930.512183,47
1766015930.5131881,43
1766015930.5141902,45
1766015930.5151849,49
1766015930.516194,50
1766015930.517188,46
1766015930.518187,50
1766015930.5191948,48
1766015930.520187,48
1766015930.521187,50
1766015930.522211,53
1766015930.523224,53
1766015930.524205,56
1766015930.525204,58
1766015930.526224,57
1766015930.52724,58
1766015930.528206,56
1766015930.5292318,58
1766015930.53023,55
1766015930.53124,55
1766015930.532217,56
1766015930.533243,53
1766015930.534247,55
1766015930.535258,54
1766015930.536255,52
1766015930.537267,51
1766015930.538249,54
1766015930.5392451,52
1766015930.54025,51
1766015930.5412421,54
1766015930.5422552,50
1766015930.5432699,54
1766015930.5442739,53
1766015930.5452769,51
1766015930.546282,50
1766015930.5472782,51
1766015930.548285,51
1766015930.549288,53
1766015930.550291,50
1766015930.551293,49
1766015930.5522969,49
1766015930.5532942,50
1766015930.5542898,50
1766015930.555302,49
1766015930.556308,49
1766015930.557309,49
1766015930.558306,47
1766015930.5593338,46
1766015930.56033,48
1766015930.561326,49
1766015930.562325,46
1766015930.563342,49
