timestamp,emg_value
1766015921.710742,58
1766015921.710757,61
1766015921.710769,60
1766015921.7107809,59
1766015921.710793,57
1766015921.710804,56
1766015921.710816,57
1766015921.710827,59
1766015921.710838,58
1766015921.71085,52
1766015921.710861,55
1766015921.7108722,55
1766015921.710884,55
1766015921.710896,55
1766015921.710907,54
1766015921.710918,54
1766015921.710929,52
1766015921.7109408,50
1766015921.710952,53
1766015921.710963,51
1766015921.710974,51
1766015921.710986,49
1766015921.710997,50
1766015921.711008,51
1766015921.711019,53
1766015921.711031,48
1766015921.7110422,47
1766015921.7110531,50
1766015921.711065,49
1766015921.711076,49
1766015921.711087,49
1766015921.7110982,50
1766015921.711118,47
1766015921.7111301,47
1766015921.711141,46
1766015921.711152,49
1766015921.7111628,48
1766015921.7111738,49
1766015921.711185,51
1766015921.711197,52
1766015921.711209,53
1766015921.711221,50
1766015921.711232,51
1766015921.711243,55
1766015921.7112541,51
1766015921.711265,58
1766015921.711276,55
1766015921.711288,56
1766015921.7112992,60
1766015921.7113101,59
1766015921.711321,59
1766015921.711332,58
1766015921.711343,57
1766015921.711355,62
1766015921.711366,55
1766015921.711377,57
1766015921.7113879,59
1766015921.7114,59
1766015921.711411,59
1766015921.711422,59
1766015921.711433,53
1766015921.711444,58
1766015921.7114549,56
1766015921.711466,55
1766015921.7114801,54
1766015921.711495,57
1766015921.711506,54
1766015921.7115169,54
1766015921.711529,57
1766015921.71154,54
1766015921.711551,56
1766015921.711562,57
1766015921.711573,58
1766015921.711585,58
1766015921.711596,56
1766015921.711607,56
1766015921.7116191,58
1766015921.711633,59
1766015921.711645,60
1766015921.7116559,59
1766015921.711667,62
1766015921.711678,64
1766015921.711689,67
1766015921.711701,67
1766015921.711712,70
1766015921.711723,69
1766015921.711735,67
1766015921.711746,71
1766015921.711757,71
1766015921.7117682,70
1766015921.71178,65
1766015921.711791,67
1766015921.711802,68
1766015921.711814,68
1766015921.7118258,72
1766015921.7118368,82
1766015921.711849,87
1766015921.711863,88
1766015921.711875,90
1766015921.7118862,94
1766015921.711898,94
1766015921.711909,96
1766015921.711921,99
1766015921.711935,100
1766015921.711946,99
1766015921.71196,101
1766015921.711971,97
1766015921.7119832,97
1766015921.7119942,99
1766015921.71201,95
1766015921.712022,97
1766015921.712033,94
1766015921.712045,94
1766015921.7120562,93
1766015921.7120671,89
1766015921.712081,92
1766015921.712092,91
1766015921.7121038,92
1766015921.712115,90
1766015921.712127,88
1766015921.712138,85
1766015921.712149,87
1766015921.71216,84
1766015921.712172,88
1766015921.712183,85
1766015921.712194,83
1766015921.7122052,84
1766015921.712217,82
1766015921.712228,81
1766015921.712246,82
1766015921.712257,80
1766015921.712269,84
1766015921.71228,81
1766015921.712291,82
1766015921.7123032,79
1766015921.7123141,78
1766015921.712325,77
1766015921.7123368,79
1766015921.712348,75
1766015921.712359,76
1766015921.71237,78
1766015921.7123818,77
1766015921.712393,77
1766015921.712404,76
1766015921.712415,74
1766015921.712426,77
1766015921.712437,74
1766015921.712449,74
1766015921.71246,77
1766015921.712472,76
1766015921.7124832,75
1766015921.7124941,72
1766015921.712506,75
1766015921.712517,70
1766015921.712528,72
1766015921.712539,71
1766015921.71255,71
1766015921.712561,69
1766015921.7125719,75
1766015921.712584,70
1766015921.712595,74
1766015921.712608,71
1766015921.712619,72
1766015921.71263,71
1766015921.712641,73
1766015921.712652,72
1766015921.712663,72
1766015921.7126741,71
1766015921.712685,72
1766015921.712696,69
1766015921.712707,71
1766015921.7127192,74
1766015921.7127302,68
1766015921.7127419,68
1766015921.7127528,68
1766015921.712765,66
1766015921.712776,69
1766015921.712787,66
1766015921.7127979,67
1766015921.7128088,65
1766015921.71282,63
1766015921.712832,64
1766015921.712842,62
1766015921.712854,60
1766015921.712865,63
1766015921.712876,62
1766015921.712887,63
1766015921.712898,62
1766015921.712909,63
1766015921.71292,62
1766015921.7129312,63
1766015921.712943,63
1766015921.712954,61
1766015921.712966,62
1766015921.712978,64
1766015921.71299,62
1766015921.713001,61
1766015921.713012,63
1766015921.713023,65
1766015921.713034,61
1766015921.713045,62
1766015921.713057,61
1766015921.713068,60
1766015921.713079,63
1766015921.71309,62
1766015921.713102,63
1766015921.713113,63
1766015921.713124,61
1766015921.713135,63
1766015921.7131462,61
1766015921.7131572,59
1766015921.7131689,58
1766015921.7131798,59
1766015921.7131908,59
1766015921.713202,58
1766015921.713214,58
1766015921.713225,58
1766015921.7132359,58
1766015921.713247,57
1766015921.713259,56
1766015921.71327,56
1766015921.713281,55
1766015921.7132921,53
1766015921.713304,55
1766015921.713315,51
1766015921.713326,53
1766015921.7133398,54
1766015921.713352,51
1766015921.713365,55
1766015921.713378,52
1766015921.713391,50
1766015921.713403,53
1766015921.713417,50
1766015921.71343,52
1766015921.713443,52
1766015921.7134562,52
1766015921.713469,52
1766015921.713482,50
1766015921.713495,52
1766015921.7135081,50
1766015921.71352,54
1766015921.713533,52
1766015921.713546,51
1766015921.7135592,47
1766015921.7135732,52
1766015921.713585,48
1766015921.713598,50
1766015921.7136111,51
1766015921.713624,50
1766015921.713637,49
1766015921.71365,50
1766015921.7136629,46
1766015921.713675,49
1766015921.7136881,49
1766015921.713701,49
1766015921.713714,44
1766015921.713727,46
1766015921.71374,47
1766015921.713758,50
1766015921.713771,44
1766015921.713784,49
1766015921.7137961,45
1766015921.713809,48
1766015921.713822,47
1766015921.713835,47
1766015921.713848,44
1766015921.7138612,46
1766015921.7138739,45
1766015921.713887,45
1766015921.7139,48
1766015921.7139132,44
1766015921.7139258,41
1766015921.713939,45
1766015921.713952,41
1766015921.713965,42
1766015921.713978,44
1766015921.71399,41
1766015921.7140028,41
1766015921.714016,41
1766015921.714029,42
1766015921.7140422,38
1766015921.7140548,42
1766015921.714068,39
1766015921.714081,39
1766015921.7140942,41
1766015921.714106,39
1766015921.714119,38
1766015921.714132,39
1766015921.714145,39
1766015921.714158,39
1766015921.7141728,37
1766015921.714186,39
1766015921.714199,38
1766015921.7142122,39
1766015921.714224,39
1766015921.714237,36
1766015921.71425,40
1766015921.714263,38
1766015921.714276,38
1766015921.714289,39
1766015921.714302,38
1766015921.714315,35
1766015921.714327,36
1766015921.7143402,37
1766015921.7143528,34
1766015921.714366,34
1766015921.714379,32
1766015921.714392,35
1766015921.714405,34
1766015921.714418,33
1766015921.714431,33
1766015921.714444,34
1766015921.714457,35
1766015921.71447,33
1766015921.7144818,38
1766015921.714495,37
1766015921.714508,33
1766015921.7145212,34
1766015921.7145338,35
1766015921.714547,31
1766015921.714559,38
1766015921.714572,35
1766015921.714586,37
1766015921.7145998,35
1766015921.714613,35
1766015921.714626,33
1766015921.7146392,36
1766015921.7146518,36
1766015921.714665,33
1766015921.714678,34
1766015921.7146912,32
1766015921.7147038,34
1766015921.714717,32
1766015921.71473,36
1766015921.7147431,33
1766015921.714756,33
1766015921.714769,33
1766015921.714781,34
1766015921.714794,34
1766015921.714807,33
1766015921.7148201,32
1766015921.7148328,35
1766015921.714846,34
1766015921.714859,32
1766015921.7148721,32
1766015921.714884,34
1766015921.714897,34
1766015921.71491,32
1766015921.714923,32
1766015921.714936,35
1766015921.7149491,32
1766015921.714962,37
1766015921.7149749,35
1766015921.714988,32
1766015921.715001,33
1766015921.715018,32
1766015921.715032,33
1766015921.7150452,33
1766015921.715057,34
1766015921.71507,34
1766015921.7150831,33
1766015921.715096,31
1766015921.715109,32
1766015921.715122,36
1766015921.715134,32
1766015921.715147,33
1766015921.7151601,31
1766015921.715173,33
1766015921.7151859,31
1766015921.715199,32
1766015921.715212,30
1766015921.715224,32
1766015921.7152379,35
1766015921.71525,32
1766015921.715263,33
1766015921.715276,28
1766015921.71529,33
1766015921.715302,33
1766015921.715322,29
1766015921.715335,33
1766015921.715348,31
1766015921.71536,33
1766015921.715373,32
1766015921.7153862,31
1766015921.715399,32
1766015921.715412,30
1766015921.715425,34
1766015921.715443,31
1766015921.715456,32
1766015921.7154691,30
1766015921.715482,33
1766015921.715494,33
1766015921.715507,31
1766015921.71552,32
1766015921.715533,33
1766015921.7155461,31
1766015921.715559,30
1766015921.7155719,33
1766015921.715585,31
1766015921.715598,29
1766015921.71561,32
1766015921.7156239,32
1766015921.715637,32
1766015921.71565,32
1766015921.7156632,32
1766015921.7156758,32
1766015921.715688,31
1766015921.715701,31
1766015921.715714,30
1766015921.715727,31
1766015921.71574,31
1766015921.715753,32
1766015921.715766,34
1766015921.715778,30
1766015921.715791,33
1766015921.7158039,34
1766015921.715817,35
1766015921.71583,32
1766015921.715842,31
1766015921.7158568,33
1766015921.715872,34
1766015921.7158852,32
1766015921.715898,31
1766015921.715911,31
1766015921.715924,31
1766015921.7159371,32
1766015921.715949,32
1766015921.7159622,30
1766015921.7159748,35
1766015921.715988,32
1766015921.716001,31
1766015921.7160141,31
1766015921.7160268,33
1766015921.71604,32
1766015921.716053,29
1766015921.716065,32
1766015921.716078,31
1766015921.716091,33
1766015921.716104,31
1766015921.716117,34
1766015921.71613,30
1766015921.7161431,32
1766015921.7161548,33
1766015921.716168,33
1766015921.716181,32
1766015921.7161942,30
1766015921.716207,33
1766015921.716219,31
1766015921.7162318,33
1766015921.716245,34
1766015921.716258,35
1766015921.7162712,34
1766015921.716285,31
1766015921.7162979,33
1766015921.716311,33
1766015921.7163231,34
1766015921.716336,31
1766015921.716359,32
1766015921.716372,32
1766015921.7163851,30
1766015921.716398,32
1766015921.7164109,31
1766015921.7164228,33
1766015921.716436,35
1766015921.716449,33
1766015921.7164621,37
1766015921.7164748,36
1766015921.716488,35
1766015921.716501,36
1766015921.716514,34
1766015921.716526,34
1766015921.716539,34
1766015921.716552,34
1766015921.716565,33
1766015921.716578,36
1766015921.7165911,33
1766015921.716604,34
1766015921.716616,33
1766015921.716629,32
1766015921.7166421,35
1766015921.716655,34
1766015921.716668,33
1766015921.716681,31
1766015921.716694,32
1766015921.7167099,32
1766015921.716723,34
1766015921.716736,33
1766015921.716748,31
1766015921.716761,34
1766015921.716774,34
1766015921.7167869,29
1766015921.7168,32
1766015921.716813,34
1766015921.7168262,31
1766015921.716838,31
1766015921.716851,33
1766015921.716864,29
1766015921.716877,32
1766015921.71689,31
1766015921.716903,33
1766015921.716916,31
1766015921.716928,32
1766015921.716941,31
1766015921.716954,33
1766015921.7169669,31
1766015921.71698,29
1766015921.716992,31
1766015921.717005,28
1766015921.7170181,31
1766015921.717031,33
1766015921.7170439,30
1766015921.717057,28
1766015921.71707,28
1766015921.717082,31
1766015921.7170959,32
1766015921.717109,30
1766015921.717122,32
1766015921.717136,30
1766015921.717149,33
1766015921.717162,28
1766015921.717175,32
1766015921.717189,31
1766015921.717202,30
1766015921.717215,31
1766015921.717228,29
1766015921.71724,31
1766015921.7172532,28
1766015921.7172658,31
1766015921.717279,28
1766015921.717292,30
1766015921.7173052,31
1766015921.7173178,31
1766015921.717331,30
1766015921.717344,31
1766015921.717356,31
1766015921.717369,28
1766015921.717382,28
1766015921.7173939,29
1766015921.7174048,30
1766015921.717417,29
1766015921.717428,30
1766015921.717439,27
1766015921.71745,28
1766015921.717461,29
1766015921.717472,31
1766015921.717483,28
1766015921.717495,28
1766015921.717506,26
1766015921.7175171,29
1766015921.71753,32
1766015921.7175412,26
1766015921.7175522,29
1766015921.7175639,27
1766015921.7175748,28
1766015921.717587,28
1766015921.717599,29
1766015921.71761,26
1766015921.717622,24
1766015921.717633,29
1766015921.717644,28
1766015921.717655,27
1766015921.7176661,27
1766015921.717678,29
1766015921.717689,29
1766015921.7177,26
1766015921.7177112,29
1766015921.7177222,25
1766015921.7177331,27
1766015921.717744,29
1766015921.7177548,30
1766015921.717767,25
1766015921.717778,27
1766015921.717789,29
1766015921.7178,30
1766015921.7178109,32
1766015921.7178218,30
1766015921.717833,29
1766015921.717845,28
1766015921.717856,30
1766015921.717867,28
1766015921.717878,30
1766015921.717891,28
1766015921.7179022,26
1766015921.7179132,29
1766015921.717925,27
1766015921.717938,29
1766015921.717949,29
1766015921.71796,30
1766015921.7179708,30
1766015921.717982,27
1766015921.717993,29
1766015921.718005,31
1766015921.718016,33
1766015921.718028,32
1766015921.718039,30
1766015921.71805,32
1766015921.718061,33
1766015921.7180722,32
1766015921.718084,35
1766015921.7180958,34
1766015921.718107,33
1766015921.718118,31
1766015921.718129,32
1766015921.7181408,33
1766015921.718152,35
1766015921.718163,35
1766015921.718174,33
1766015921.718185,33
1766015921.718196,36
1766015921.718207,36
1766015921.718218,39
1766015921.71823,38
1766015921.718241,37
1766015921.7182531,39
1766015921.718265,36
1766015921.718276,39
1766015921.718288,42
1766015921.718299,42
1766015921.7183099,43
1766015921.7183208,41
1766015921.7183318,42
1766015921.718344,42
1766015921.718355,44
1766015921.718366,43
1766015921.7183769,41
1766015921.718389,40
1766015921.7184,42
1766015921.718411,39
1766015921.718422,42
1766015921.7184331,38
1766015921.718444,41
1766015921.718455,44
1766015921.718467,42
1766015921.718478,44
1766015921.7184892,45
1766015921.7185018,45
1766015921.718513,45
1766015921.718525,42
1766015921.718536,42
1766015921.7185469,46
1766015921.7185578,44
1766015921.718569,43
1766015921.718581,43
1766015921.718592,47
1766015921.718603,43
1766015921.718614,44
1766015921.718627,44
1766015921.7186382,46
1766015921.7186491,48
1766015921.71866,48
1766015921.7186718,48
1766015921.7186828,48
1766015921.718694,46
1766015921.718705,49
1766015921.7187169,45
1766015921.7187278,44
1766015921.718739,45
1766015921.71875,48
1766015921.718761,47
1766015921.718772,48
1766015921.718783,44
1766015921.718795,45
1766015921.718806,45
1766015921.718817,46
1766015921.718828,45
1766015921.7188401,45
1766015921.718851,45
1766015921.718862,44
1766015921.718873,46
1766015921.718884,43
1766015921.7188952,45
1766015921.7189062,46
1766015921.7189178,47
1766015921.7189288,45
1766015921.71894,43
1766015921.718951,46
1766015921.718963,47
1766015921.7189739,45
1766015921.718986,45
1766015921.718998,48
1766015921.719009,46
1766015921.7190201,47
1766015921.719031,44
1766015921.719042,44
1766015921.719053,47
1766015921.7190652,45
1766015921.7190762,43
1766015921.7190871,45
1766015921.719098,45
1766015921.719109,43
1766015921.7191198,48
1766015921.719132,47
1766015921.719143,46
1766015921.719154,45
1766015921.7191648,48
1766015921.719176,49
1766015921.719188,49
1766015921.719199,50
1766015921.71921,48
1766015921.719222,51
1766015921.719233,49
1766015921.719244,54
1766015921.719255,49
1766015921.719266,53
1766015921.719278,48
1766015921.719289,48
1766015921.7193,46
1766015921.719311,51
1766015921.7193222,50
1766015921.7193332,57
1766015921.7193458,59
1766015921.719358,58
1766015921.719369,54
1766015921.719381,58
1766015921.719392,59
1766015921.719403,57
1766015921.719415,60
1766015921.7194262,54
1766015921.7194371,60
1766015921.719449,57
1766015921.71946,57
1766015921.7194712,55
1766015921.7194822,56
1766015921.7194939,58
1766015921.7195048,54
1766015921.7195158,58
1766015921.719527,53
1766015921.719538,52
1766015921.719549,55
1766015921.71956,57
1766015921.719572,55
1766015921.719583,59
1766015921.719594,54
1766015921.719605,56
1766015921.719616,56
1766015921.719627,50
1766015921.719639,56
1766015921.71965,54
1766015921.719661,55
1766015921.719672,54
1766015921.7196832,54
1766015921.7196941,53
1766015921.7197068,54
1766015921.719719,55
1766015921.71973,53
1766015921.7197409,57
1766015921.719753,50
1766015921.719764,54
1766015921.719775,53
1766015921.719786,56
1766015921.719797,54
1766015921.719809,56
1766015921.71982,56
1766015921.719831,58
1766015921.7198431,58
1766015921.719854,54
1766015921.719865,56
1766015921.719876,59
1766015921.719887,58
1766015921.719899,61
1766015921.71991,57
1766015921.7199218,59
1766015921.719934,58
1766015921.719945,56
1766015921.719956,59
1766015921.719967,57
1766015921.719978,58
1766015921.71999,57
1766015921.720001,57
1766015921.720012,59
1766015921.7200232,60
1766015921.720035,62
1766015921.720046,67
1766015921.720057,68
1766015921.720068,64
1766015921.7200818,70
1766015921.720094,72
1766015921.720105,68
1766015921.720116,68
1766015921.7201269,66
1766015921.720138,64
1766015921.72015,68
1766015921.720161,67
1766015921.720172,67
1766015921.720184,67
1766015921.720195,70
1766015921.720206,66
1766015921.7202182,66
1766015921.7202291,66
1766015921.72024,68
1766015921.7202508,65
1766015921.720263,63
1766015921.720274,67
1766015921.720285,67
1766015921.720296,65
1766015921.7203069,67
1766015921.7203178,63
1766015921.72033,66
1766015921.720341,62
1766015921.720352,64
1766015921.720363,64
1766015921.720375,65
1766015921.720386,65
1766015921.720397,60
1766015921.720408,62
1766015921.7204201,65
1766015921.720431,62
1766015921.7205,58
1766015921.720515,59
1766015921.7205272,59
1766015921.7205389,59
1766015921.7205498,60
1766015921.720562,60
1766015921.720573,59
1766015921.720584,57
1766015921.720596,56
1766015921.720607,56
1766015921.720618,55
1766015921.720629,60
1766015921.72064,61
1766015921.720652,62
1766015921.720663,58
1766015921.720674,57
1766015921.7206862,60
1766015921.7206972,60
1766015921.7207081,59
1766015921.720719,57
1766015921.72073,58
1766015921.720742,58
1766015921.720753,62
1766015921.720764,59
1766015921.7207758,58
1766015921.720787,59
1766015921.720833,55
1766015921.7208478,58
1766015921.72086,59
1766015921.720871,54
1766015921.720883,54
1766015921.7208939,56
1766015921.720909,54
1766015921.72092,50
1766015921.720932,55
1766015921.7209432,53
1766015921.7209542,53
1766015921.7209659,54
1766015921.7209768,55
1766015921.7209878,51
1766015921.720999,51
1766015921.721011,51
1766015921.721022,50
1766015921.7210329,51
1766015921.721044,52
1766015921.721055,51
1766015921.721067,48
1766015921.721078,50
1766015921.7210891,48
1766015921.721101,50
1766015921.721112,50
1766015921.721123,49
1766015921.7211342,47
1766015921.7211452,47
1766015921.72116,50
1766015921.721171,46
1766015921.721183,45
1766015921.721194,51
1766015921.721205,48
1766015921.721216,49
1766015921.7212281,48
1766015921.721239,46
1766015921.72125,47
1766015921.721262,52
1766015921.7212732,45
1766015921.721289,47
1766015921.721301,49
1766015921.721312,48
1766015921.721323,49
1766015921.721335,46
1766015921.7213461,47
1766015921.721357,48
1766015921.7213671,47
1766015921.7213771,50
1766015921.721388,48
1766015921.721398,47
1766015921.721408,47
1766015921.721418,47
1766015921.721429,46
1766015921.721439,44
1766015921.721449,48
1766015921.721459,45
1766015921.721469,43
1766015921.721479,48
1766015921.721489,45
1766015921.7215,45
1766015921.72151,47
1766015921.7215202,45
1766015921.7215302,45
1766015921.7215402,47
1766015921.72155,47
1766015921.72156,49
1766015921.72157,46
1766015921.72158,45
1766015921.72159,44
1766015921.7216,46
1766015921.72161,46
1766015921.721623,43
1766015921.721633,47
1766015921.721644,42
1766015921.721654,46
1766015921.721663,45
1766015921.721673,42
1766015921.721683,47
1766015921.721693,46
1766015921.7217028,43
1766015921.7217128,42
1766015921.7217228,41
1766015921.721733,43
1766015921.721743,41
1766015921.7217531,41
1766015921.7217631,40
1766015921.7217731,38
1766015921.721783,40
1766015921.721793,39
1766015921.721803,41
1766015921.721813,39
1766015921.721823,39
1766015921.721833,42
1766015921.721843,45
1766015921.721853,41
1766015921.7218628,41
1766015921.7218728,43
1766015921.7218828,42
1766015921.721893,43
1766015921.721903,43
1766015921.721913,41
1766015921.721923,40
1766015921.7219331,42
1766015921.7219431,43
1766015921.721955,41
1766015921.721965,39
1766015921.721975,40
1766015921.721985,42
1766015921.721995,40
1766015921.722005,40
1766015921.722015,40
1766015921.722025,40
1766015921.722034,39
1766015921.722044,41
1766015921.722054,41
1766015921.7220638,42
1766015921.722074,39
1766015921.7220852,41
1766015921.722095,40
1766015921.722108,41
1766015921.7221189,42
1766015921.7221289,39
1766015921.722139,42
1766015921.7221491,39
1766015921.7221591,40
1766015921.7221692,41
1766015921.7221792,38
1766015921.722189,43
1766015921.722199,39
1766015921.722209,42
1766015921.722219,38
1766015921.722229,42
1766015921.722239,40
1766015921.722249,38
1766015921.722259,40
1766015921.7222688,38
1766015921.722281,35
1766015921.722292,38
1766015921.722302,40
1766015921.722313,39
1766015921.722324,40
1766015921.722334,38
1766015921.722344,38
1766015921.722354,35
1766015921.722364,36
1766015921.722374,38
1766015921.722384,38
1766015921.7223942,41
1766015921.722404,38
1766015921.722414,37
1766015921.722424,39
1766015921.722434,36
1766015921.722444,36
1766015921.722454,36
1766015921.722464,37
1766015921.722473,36
1766015921.7224839,36
1766015921.722494,38
1766015921.722504,37
1766015921.722514,35
1766015921.722524,37
1766015921.722534,33
1766015921.7225442,38
1766015921.7225542,38
1766015921.7225652,37
1766015921.722574,38
1766015921.722584,37
1766015921.722594,39
1766015921.7226062,36
1766015921.722616,36
1766015921.722626,38
1766015921.722636,35
1766015921.722646,35
1766015921.722656,34
1766015921.722666,34
1766015921.722676,38
1766015921.722686,35
1766015921.7226958,37
1766015921.722709,34
1766015921.72272,35
1766015921.72273,32
1766015921.72274,36
1766015921.72275,35
1766015921.72276,37
1766015921.72277,37
1766015921.72278,35
1766015921.72279,34
1766015921.7228,35
1766015921.72281,38
1766015921.72282,36
1766015921.72283,33
1766015921.722839,32
1766015921.7228491,35
1766015921.722859,33
1766015921.722869,34
1766015921.722879,33
1766015921.722889,33
1766015921.722899,32
1766015921.722909,36
1766015921.722919,34
1766015921.722952,33
1766015921.722979,32
1766015921.72299,33
1766015921.723001,31
1766015921.723011,34
1766015921.723021,35
1766015921.723032,31
1766015921.723042,32
1766015921.723052,31
1766015921.723062,31
1766015921.723072,35
1766015921.723082,31
1766015921.723092,33
1766015921.7231019,32
1766015921.7231119,31
1766015921.723122,30
1766015921.7231328,31
1766015921.7231429,31
1766015921.7231529,29
1766015921.723163,30
1766015921.7231739,28
1766015921.723184,28
1766015921.7231941,29
1766015921.7232041,30
1766015921.7232141,30
1766015921.723225,30
1766015921.7232351,29
1766015921.7232451,28
1766015921.7232552,35
1766015921.723265,28
1766015921.723275,30
1766015921.72335,31
1766015921.723368,28
1766015921.7233868,31
1766015921.723401,29
1766015921.7234151,30
1766015921.723428,26
1766015921.723441,28
1766015921.723454,28
1766015921.723468,27
1766015921.7234812,28
1766015921.7234938,28
1766015921.723507,28
1766015921.72352,26
1766015921.723532,30
1766015921.723545,29
1766015921.723558,25
1766015921.723571,26
1766015921.723584,30
1766015921.723597,28
1766015921.723609,25
1766015921.7236218,25
1766015921.723635,26
1766015921.7236469,25
1766015921.72366,29
1766015921.723673,29
1766015921.723685,28
1766015921.723698,28
1766015921.723711,26
1766015921.7237241,27
1766015921.723736,27
1766015921.7237492,25
1766015921.7237608,24
1766015921.723774,24
1766015921.723787,26
1766015921.7238028,25
1766015921.723818,29
1766015921.7238321,28
1766015921.723849,26
1766015921.7238631,25
1766015921.723876,28
1766015921.7238889,26
1766015921.723902,25
1766015921.723916,29
1766015921.7239292,22
1766015921.7239418,26
1766015921.723955,28
1766015921.723968,26
1766015921.723982,27
1766015921.723995,25
1766015921.7240078,25
1766015921.72402,21
1766015921.724033,25
1766015921.724046,28
1766015921.7240589,25
1766015921.724072,24
1766015921.724085,24
1766015921.724097,26
1766015921.7241101,23
1766015921.7241228,26
1766015921.7241359,25
1766015921.724149,26
1766015921.724162,27
1766015921.724174,27
1766015921.724187,26
1766015921.7242,24
1766015921.724212,26
1766015921.724225,24
1766015921.7242408,27
1766015921.724254,25
1766015921.724267,24
1766015921.724279,25
1766015921.724292,25
1766015921.724305,26
1766015921.724318,25
1766015921.72433,23
1766015921.7243462,24
1766015921.7243578,23
1766015921.724371,25
1766015921.724384,25
1766015921.724397,24
1766015921.724409,23
1766015921.724422,21
1766015921.7244349,24
1766015921.724447,27
1766015921.7244601,27
1766015921.724473,26
1766015921.7244852,24
1766015921.724498,24
1766015921.72451,25
1766015921.724523,25
1766015921.7245362,24
1766015921.724548,23
1766015921.7245598,25
1766015921.724573,25
1766015921.724585,22
1766015921.724598,26
1766015921.724611,25
1766015921.7246232,27
1766015921.7246358,24
1766015921.724649,24
1766015921.7246652,25
1766015921.7246778,23
1766015921.724691,25
1766015921.724703,21
1766015921.724716,23
1766015921.724729,22
1766015921.724742,25
1766015921.724755,23
1766015921.724768,26
1766015921.724781,26
1766015921.7247941,28
1766015921.724807,23
1766015921.72482,26
1766015921.724834,25
1766015921.724847,28
1766015921.72486,27
1766015921.724873,25
1766015921.724886,26
1766015921.7249,23
1766015921.7249138,25
1766015921.724927,28
1766015921.724941,22
1766015921.7249541,27
1766015921.724968,27
1766015921.724982,26
1766015921.7249951,27
1766015921.7250078,27
1766015921.7250218,25
1766015921.725035,28
1766015921.725048,26
1766015921.725062,25
1766015921.725075,27
1766015921.725091,23
1766015921.725106,25
1766015921.725118,26
1766015921.725131,26
1766015921.725145,27
1766015921.725157,23
1766015921.72517,24
1766015921.725182,25
1766015921.725195,25
1766015921.725208,25
1766015921.7252202,27
1766015921.7252328,25
1766015921.725246,25
1766015921.725259,25
1766015921.725271,24
1766015921.725284,27
1766015921.725297,27
1766015921.725309,26
1766015921.725322,28
1766015921.7253351,26
1766015921.725347,29
1766015921.7253602,25
1766015921.725373,27
1766015921.725385,28
1766015921.725398,25
1766015921.72541,26
1766015921.725423,24
1766015921.725436,29
1766015921.725448,29
1766015921.725461,31
1766015921.725474,26
1766015921.725487,26
1766015921.725499,28
1766015921.725512,28
1766015921.725525,27
1766015921.725538,30
1766015921.7255511,27
1766015921.7255628,28
1766015921.725576,25
1766015921.725589,27
1766015921.7256021,28
1766015921.725615,28
1766015921.725627,27
1766015921.7256398,27
1766015921.725653,27
1766015921.725666,23
1766015921.725678,27
1766015921.7256918,29
1766015921.725705,26
1766015921.725719,27
1766015921.7257311,30
1766015921.725744,24
1766015921.725757,27
1766015921.725769,27
1766015921.725782,28
1766015921.725795,28
1766015921.7258072,28
1766015921.7258198,29
1766015921.725833,29
1766015921.725845,29
1766015921.725858,27
1766015921.7258701,27
1766015921.7258828,29
1766015921.725895,29
1766015921.725908,31
1766015921.725921,30
1766015921.725933,29
1766015921.7259462,29
1766015921.7259579,26
1766015921.725971,30
1766015921.725984,27
1766015921.725996,32
1766015921.7260091,28
1766015921.726022,29
1766015921.726034,30
1766015921.726047,28
1766015921.72606,28
1766015921.726072,30
1766015921.7260852,31
1766015921.7260978,29
1766015921.726111,26
1766015921.726123,30
1766015921.726136,33
1766015921.726149,29
1766015921.726162,28
1766015921.7261739,29
1766015921.726187,31
1766015921.7262,29
1766015921.726212,33
1766015921.726225,30
1766015921.726238,31
1766015921.72625,27
1766015921.726263,33
1766015921.7262762,31
1766015921.7262878,31
1766015921.726301,32
1766015921.726314,29
1766015921.726326,31
1766015921.726339,33
1766015921.726352,31
1766015921.7263649,33
1766015921.726377,33
1766015921.7263901,30
1766015921.726402,31
1766015921.7264152,32
1766015921.7264278,31
1766015921.726441,31
1766015921.726454,33
1766015921.726468,33
1766015921.726481,32
1766015921.726495,34
1766015921.7265081,29
1766015921.726521,35
1766015921.726534,31
1766015921.726547,32
1766015921.72656,31
1766015921.7265742,31
1766015921.7265868,32
1766015921.7266,30
1766015921.7266119,31
1766015921.726625,31
1766015921.7266371,32
1766015921.72665,31
1766015921.7266629,32
1766015921.726676,34
1766015921.726689,29
1766015921.726702,31
1766015921.7267148,33
1766015921.726728,33
1766015921.726741,33
1766015921.726754,32
1766015921.726767,28
1766015921.726781,31
1766015921.726794,31
1766015921.726807,34
1766015921.72682,31
1766015921.7268338,34
1766015921.726847,29
1766015921.726859,33
1766015921.726872,33
1766015921.7268841,33
1766015921.726897,34
1766015921.7269099,31
1766015921.726923,30
1766015921.726936,32
1766015921.726948,32
1766015921.726961,31
1766015921.726974,30
1766015921.726986,35
1766015921.726999,32
1766015921.727011,30
1766015921.727024,33
1766015921.727037,31
1766015921.7270489,33
1766015921.727062,30
1766015921.727075,30
1766015921.7270882,32
1766015921.7271,34
1766015921.727113,34
1766015921.727125,29
1766015921.727138,31
1766015921.72715,31
1766015921.7271628,31
1766015921.727176,31
1766015921.7271879,30
1766015921.727201,32
1766015921.727214,33
1766015921.727227,30
1766015921.7272398,29
1766015921.727252,33
1766015921.7272651,31
1766015921.727277,33
1766015921.7272892,32
1766015921.7273002,32
1766015921.7273102,31
1766015921.7273211,30
1766015921.727332,32
1766015921.7273421,31
1766015921.727353,30
1766015921.727364,31
1766015921.727374,33
1766015921.727385,31
1766015921.727395,29
1766015921.727406,29
1766015921.727417,30
1766015921.727427,27
1766015921.727438,32
1766015921.7274492,30
1766015921.7274601,30
1766015921.7274702,31
1766015921.7274811,29
1766015921.727492,33
1766015921.727502,32
1766015921.727513,30
1766015921.727523,28
1766015921.727534,30
1766015921.727545,33
1766015921.727556,29
1766015921.727566,32
1766015921.727577,31
1766015921.727587,32
1766015921.7275982,32
1766015921.7276092,31
1766015921.7276192,29
1766015921.7276301,28
1766015921.727641,30
1766015921.727652,28
1766015921.727662,29
1766015921.727673,32
1766015921.727684,32
1766015921.727695,26
1766015921.7277062,28
1766015921.7277172,28
1766015921.7277272,34
1766015921.7277381,27
1766015921.727749,27
1766015921.7277598,30
1766015921.72777,28
1766015921.727781,28
1766015921.727792,32
1766015921.727803,27
1766015921.727813,29
1766015921.727824,29
1766015921.727835,30
1766015921.7278452,27
1766015921.7278562,28
1766015921.727867,28
1766015921.7278779,26
1766015921.7278879,30
1766015921.7278988,31
1766015921.7279098,32
1766015921.727921,30
1766015921.7279308,28
1766015921.727942,26
1766015921.727953,27
1766015921.727964,27
1766015921.7280471,29
1766015921.728069,29
1766015921.7280798,27
1766015921.728132,29
1766015921.7281768,29
1766015921.728192,29
1766015921.728234,24
1766015921.728245,27
1766015921.728256,28
1766015921.728489,27
1766015921.729493,30
1766015921.73053,27
1766015921.73153,30
1766015921.732548,28
1766015921.733509,28
1766015921.7345228,28
1766015921.73556,26
1766015921.736552,27
1766015921.7375722,26
1766015921.7385652,27
1766015921.739583,27
1766015921.740561,27
1766015921.741591,27
1766015921.7426,28
1766015921.743556,25
1766015921.7445812,29
1766015921.74558,28
1766015921.746571,27
1766015921.7475672,28
1766015921.7485728,29
1766015921.749578,25
1766015921.750587,27
1766015921.7515898,28
1766015921.752555,26
1766015921.753571,24
1766015921.754588,24
1766015921.75559,27
1766015921.756609,27
1766015921.7576041,24
1766015921.758592,26
1766015921.759593,30
1766015921.760594,26
1766015921.761654,28
1766015921.762629,26
1766015921.7636201,27
1766015921.7646139,28
1766015921.765625,28
1766015921.766602,23
1766015921.7675872,26
1766015921.768617,30
1766015921.769602,27
1766015921.7706602,29
1766015921.7716951,26
1766015921.772712,29
1766015921.7736619,27
1766015921.774647,26
1766015921.775637,25
1766015921.7766569,31
1766015921.777664,25
1766015921.778659,26
1766015921.779666,28
1766015921.780641,26
1766015921.7816489,24
1766015921.7826529,25
1766015921.783641,26
1766015921.784655,25
1766015921.785663,27
1766015921.7866619,23
1766015921.787647,25
1766015921.788683,26
1766015921.78966,24
1766015921.790679,28
1766015921.7916842,25
1766015921.792673,25
1766015921.7936661,27
1766015921.7947059,29
1766015921.795713,26
1766015921.79678,25
1766015921.797725,27
1766015921.798702,25
1766015921.7996821,28
1766015921.800724,27
1766015921.801718,25
1766015921.8026922,27
1766015921.8037682,26
1766015921.8047428,25
1766015921.8057458,26
1766015921.806707,27
1766015921.80775,25
1766015921.808717,26
1766015921.809707,25
1766015921.810752,25
1766015921.8117352,26
1766015921.812774,29
1766015921.8137531,25
1766015921.814751,25
1766015921.815756,25
1766015921.8167748,25
1766015921.817783,27
1766015921.818762,25
1766015921.819809,24
1766015921.8207731,29
1766015921.821779,26
1766015921.822788,27
1766015921.8237991,24
1766015921.8247948,26
1766015921.825794,29
1766015921.8267992,32
1766015921.827789,33
1766015921.828785,43
1766015921.829819,45
1766015921.830806,47
1766015921.831799,48
1766015921.83281,52
1766015921.833811,51
1766015921.834817,51
1766015921.835825,51
1766015921.836847,49
1766015921.8378382,51
1766015921.8388119,52
1766015921.839842,52
1766015921.840843,55
1766015921.841862,50
1766015921.8428411,50
1766015921.843811,52
1766015921.844855,57
1766015921.845842,61
1766015921.846876,63
1766015921.847858,71
1766015921.8488488,75
1766015921.8498628,74
1766015921.850857,74
1766015921.851847,79
1766015921.852863,80
1766015921.853864,84
1766015921.8548539,84
1766015921.855864,84
1766015921.856838,87
1766015921.8578691,88
1766015921.858897,87
1766015921.859883,90
1766015921.8608818,93
1766015921.861852,93
1766015921.862988,96
1766015921.863893,95
1766015921.86498,94
1766015921.866003,101
1766015921.867007,104
1766015921.868027,113
1766015921.869018,123
1766015921.870003,128
1766015921.87104,131
1766015921.872034,131
1766015921.873041,132
1766015921.873999,127
1766015921.875008,132
1766015921.876008,135
1766015921.8770418,139
1766015921.878041,139
1766015921.879045,137
1766015921.880044,140
1766015921.8810802,140
1766015921.8820648,139
1766015921.883067,141
1766015921.8840692,138
1766015921.8850508,140
1766015921.886061,138
1766015921.887051,138
1766015921.8880582,135
1766015921.8890722,136
1766015921.890111,144
1766015921.89108,153
1766015921.892075,166
1766015921.893065,179
1766015921.8940969,192
1766015921.895089,205
1766015921.896092,210
1766015921.897114,210
1766015921.898098,215
1766015921.899103,218
1766015921.900119,216
1766015921.901109,217
1766015921.902099,218
1766015921.9030972,220
1766015921.904105,221
1766015921.9051,226
1766015921.906116,232
1766015921.907113,237
1766015921.908124,234
1766015921.9091399,236
1766015921.9101272,230
1766015921.911124,228
1766015921.912128,228
1766015921.913132,223
1766015921.9141388,219
1766015921.9151301,217
1766015921.9161332,217
1766015921.9171488,217
1766015921.918147,216
1766015921.919146,212
1766015921.920161,212
1766015921.921164,217
1766015921.922167,221
1766015921.9231849,229
1766015921.924164,236
1766015921.925165,243
1766015921.9261708,250
1766015921.9271848,249
1766015921.928184,251
1766015921.9291751,255
1766015921.930194,260
1766015921.931176,263
1766015921.932183,260
1766015921.933195,261
1766015921.934199,268
1766015921.935201,275
1766015921.936199,278
1766015921.9372008,281
1766015921.93822,280
1766015921.939202,277
1766015921.9402099,278
1766015921.941215,280
1766015921.942227,277
1766015921.9432251,273
1766015921.944215,273
1766015921.945241,267
1766015921.94623,264
1766015921.947237,263
1766015921.9482298,261
1766015921.949234,258
1766015921.950237,252
1766015921.951234,251
1766015921.952225,246
1766015921.953256,245
1766015921.95423,242
1766015921.955262,236
1766015921.956289,233
1766015921.957272,233
1766015921.9582531,229
1766015921.959254,226
1766015921.9602718,224
1766015921.9612658,219
1766015921.9622579,216
1766015921.963305,218
1766015921.964268,213
1766015921.965295,211
1766015921.966285,207
1766015921.9673119,204
1766015921.968276,202
1766015921.969275,200
1766015921.970284,200
1766015921.971296,195
1766015921.97229,200
1766015921.97329,199
1766015921.974293,199
1766015921.9753048,203
1766015921.976306,205
1766015921.977321,205
1766015921.978314,208
1766015921.979336,203
1766015921.980339,205
1766015921.98132,205
1766015921.982351,201
1766015921.9833589,199
1766015921.984359,199
1766015921.985325,197
1766015921.986336,192
1766015921.987351,190
1766015921.9883552,191
1766015921.9893491,194
1766015921.9904408,194
1766015921.9913669,191
1766015921.992364,189
1766015921.993362,184
1766015921.994389,184
1766015921.9953868,183
1766015921.996375,180
1766015921.997429,182
1766015921.998383,184
1766015921.99941,182
1766015922.000391,179
1766015922.0013921,179
1766015922.002401,175
1766015922.003396,177
1766015922.0043871,177
1766015922.005412,177
1766015922.006398,176
1766015922.007405,174
1766015922.008414,176
1766015922.009404,176
1766015922.0104132,175
1766015922.011428,174
1766015922.012414,174
1766015922.013451,170
1766015922.014428,171
1766015922.015411,170
1766015922.0164149,171
1766015922.017422,173
1766015922.018433,171
1766015922.019438,173
1766015922.020437,170
1766015922.021455,172
1766015922.0224562,168
1766015922.0234601,168
1766015922.0244632,169
1766015922.0254521,164
1766015922.026449,166
1766015922.027458,167
1766015922.028482,166
1766015922.029464,169
1766015922.030494,167
1766015922.031492,166
1766015922.032487,167
1766015922.033482,164
1766015922.0344892,165
1766015922.0354838,165
1766015922.0364811,163
1766015922.037473,159
1766015922.038487,161
1766015922.039485,156
1766015922.040491,155
1766015922.041505,154
1766015922.042491,152
1766015922.0435069,149
1766015922.0444958,148
1766015922.0455098,145
1766015922.0465128,145
1766015922.047494,141
1766015922.0485098,143
1766015922.04952,141
1766015922.050525,140
1766015922.051525,138
1766015922.052544,137
1766015922.0535302,135
1766015922.054529,140
1766015922.055547,138
1766015922.056535,137
1766015922.0575402,139
1766015922.058549,136
1766015922.0595682,136
1766015922.06055,133
1766015922.061545,133
1766015922.062546,132
1766015922.063562,129
1766015922.0645618,130
1766015922.065578,128
1766015922.066566,124
1766015922.0675771,124
1766015922.068568,126
1766015922.0696,124
1766015922.070602,124
1766015922.0716019,121
1766015922.07259,123
1766015922.0735989,124
1766015922.07461,124
1766015922.075617,124
1766015922.0766258,128
1766015922.077635,134
1766015922.0786319,140
1766015922.079633,144
1766015922.080649,147
1766015922.081621,148
1766015922.0826502,153
1766015922.083624,151
1766015922.0846121,153
1766015922.0856168,153
1766015922.086636,153
1766015922.087647,151
1766015922.088649,148
1766015922.0897129,148
1766015922.090647,146
1766015922.0916638,143
1766015922.092683,145
1766015922.093646,143
1766015922.094652,141
1766015922.0956612,139
1766015922.096669,140
1766015922.0976682,138
1766015922.09863,137
1766015922.099659,134
1766015922.100665,135
1766015922.101632,134
1766015922.102658,132
1766015922.1036549,131
1766015922.104664,133
1766015922.105649,133
1766015922.1066508,131
1766015922.107658,128
1766015922.10868,132
1766015922.109691,131
1766015922.110673,133
1766015922.111667,132
1766015922.1126888,132
1766015922.1137211,131
1766015922.114666,132
1766015922.115663,133
1766015922.116672,130
1766015922.117673,133
1766015922.11868,129
1766015922.119686,128
1766015922.120716,129
1766015922.1217291,124
1766015922.122733,123
1766015922.1237361,125
1766015922.124744,122
1766015922.125727,121
1766015922.126732,117
1766015922.127718,117
1766015922.1287029,118
1766015922.129736,118
1766015922.130739,113
1766015922.1317592,115
1766015922.1331499,113
1766015922.134052,111
1766015922.134738,109
1766015922.135734,109
1766015922.136721,105
1766015922.137743,105
1766015922.1388009,104
1766015922.1397572,104
1766015922.140764,103
1766015922.141761,102
1766015922.1427572,102
1766015922.143651,98
1766015922.144754,100
1766015922.1457,97
1766015922.146695,96
1766015922.147668,97
1766015922.148692,96
1766015922.149708,95
1766015922.150691,93
1766015922.151695,91
1766015922.152699,92
1766015922.1537101,88
1766015922.1546931,92
1766015922.155707,90
1766015922.156755,89
1766015922.157737,86
1766015922.1587079,85
1766015922.159729,83
1766015922.160746,86
1766015922.161742,87
1766015922.162776,82
1766015922.163711,85
1766015922.164711,82
1766015922.165725,80
1766015922.166732,80
1766015922.167745,83
1766015922.168726,81
1766015922.169728,79
1766015922.170743,80
1766015922.1717389,75
1766015922.172744,73
1766015922.173752,78
1766015922.1747289,73
1766015922.175749,76
1766015922.1767528,75
1766015922.177759,75
1766015922.178765,76
1766015922.179768,74
1766015922.180777,75
1766015922.181767,72
1766015922.18275,75
1766015922.183769,72
1766015922.184777,71
1766015922.1857831,74
1766015922.1867578,73
1766015922.187783,72
1766015922.1887848,74
1766015922.189801,73
1766015922.190784,72
1766015922.1918159,72
1766015922.1928031,73
1766015922.193805,76
1766015922.1948328,79
1766015922.19584,84
1766015922.196824,87
1766015922.197828,85
1766015922.198847,84
1766015922.199826,90
1766015922.200853,86
1766015922.201828,88
1766015922.202826,88
1766015922.2038321,89
1766015922.204842,90
1766015922.205843,90
1766015922.206843,86
1766015922.207851,88
1766015922.208825,86
1766015922.209856,85
1766015922.2108622,85
1766015922.211864,86
1766015922.2128682,90
1766015922.21387,86
1766015922.214966,85
1766015922.215862,85
1766015922.216953,84
1766015922.2179499,85
1766015922.218859,92
1766015922.219983,94
1766015922.220889,96
1766015922.221969,94
1766015922.22295,93
1766015922.223953,94
1766015922.224958,95
1766015922.225945,93
1766015922.226959,95
1766015922.227943,95
1766015922.2289438,99
1766015922.229942,94
1766015922.230944,95
1766015922.2319381,97
1766015922.232943,98
1766015922.233939,91
1766015922.234944,96
1766015922.235942,93
1766015922.236947,92
1766015922.237943,94
1766015922.2390022,92
1766015922.2399502,91
1766015922.24097,90
1766015922.2419462,85
1766015922.2429461,89
1766015922.243971,84
1766015922.244986,87
1766015922.245961,83
1766015922.246978,82
1766015922.247945,83
1766015922.248935,87
1766015922.249938,83
1766015922.250941,82
1766015922.25197,81
1766015922.2530031,81
1766015922.253987,82
1766015922.25496,82
1766015922.255996,81
1766015922.256997,76
1766015922.257995,79
1766015922.258956,78
1766015922.259996,77
1766015922.261007,74
1766015922.2620108,76
1766015922.262965,75
1766015922.264024,73
1766015922.264985,74
1766015922.265973,73
1766015922.267004,73
1766015922.2679732,73
1766015922.2689862,72
1766015922.269991,73
1766015922.270981,78
1766015922.271998,78
1766015922.273015,75
1766015922.273988,74
1766015922.275031,75
1766015922.2760162,76
1766015922.277029,75
1766015922.278037,76
1766015922.2790642,75
1766015922.2801018,78
1766015922.281076,74
1766015922.282038,78
1766015922.283067,73
1766015922.2840939,75
1766015922.285075,78
1766015922.286035,73
1766015922.287041,75
1766015922.288059,75
1766015922.289072,74
1766015922.290061,71
1766015922.291065,74
1766015922.292074,73
1766015922.2930639,71
1766015922.294071,73
1766015922.295077,71
1766015922.2960908,71
1766015922.297075,74
1766015922.298087,72
1766015922.299092,70
1766015922.30009,68
1766015922.301089,71
1766015922.3020868,69
1766015922.3030999,70
1766015922.304103,72
1766015922.305075,68
1766015922.306101,71
1766015922.307104,67
1766015922.3081138,65
1766015922.309097,69
1766015922.310117,71
1766015922.3110988,72
1766015922.312168,68
1766015922.313123,72
1766015922.314128,69
1766015922.315138,70
1766015922.31615,70
1766015922.317139,70
1766015922.318153,68
1766015922.3191402,67
1766015922.320191,67
1766015922.321175,70
1766015922.3221729,65
1766015922.3231711,68
1766015922.324165,69
1766015922.325171,69
1766015922.326174,71
1766015922.32719,68
1766015922.328203,72
1766015922.3291771,67
1766015922.330204,71
1766015922.3311732,67
1766015922.332181,70
1766015922.33318,66
1766015922.334191,66
1766015922.335169,70
1766015922.3361988,66
1766015922.337219,66
1766015922.338212,66
1766015922.339205,65
1766015922.34021,66
1766015922.341208,65
1766015922.342208,64
1766015922.343199,66
1766015922.344207,68
1766015922.345224,65
1766015922.3462,67
1766015922.347239,64
1766015922.348236,67
1766015922.3492649,65
1766015922.350249,63
1766015922.351223,65
1766015922.352214,66
1766015922.3532422,63
1766015922.354219,67
1766015922.355236,61
1766015922.356249,61
1766015922.357277,63
1766015922.358283,64
1766015922.359256,64
1766015922.360283,61
1766015922.36138,59
1766015922.36225,58
1766015922.363274,58
1766015922.3642519,60
1766015922.365264,59
1766015922.366344,61
1766015922.3673,58
1766015922.368259,63
1766015922.369259,63
1766015922.370262,62
1766015922.3712819,64
1766015922.372389,63
1766015922.3733099,61
1766015922.3742871,60
1766015922.3753228,60
1766015922.3762932,60
1766015922.377305,59
1766015922.3783,56
1766015922.379294,57
1766015922.380374,60
1766015922.381325,60
1766015922.3823118,60
1766015922.383314,59
1766015922.384326,59
1766015922.3853078,59
1766015922.386316,60
1766015922.3873081,58
1766015922.388344,61
1766015922.3893251,60
1766015922.390334,60
1766015922.391315,58
1766015922.392334,58
1766015922.393346,60
1766015922.394343,59
1766015922.39536,59
1766015922.396357,56
1766015922.397352,58
1766015922.3983512,53
1766015922.399364,58
1766015922.400374,57
1766015922.4013739,58
1766015922.4023738,60
1766015922.4033742,57
1766015922.404425,57
1766015922.405365,59
1766015922.406362,60
1766015922.407377,57
1766015922.408368,57
1766015922.409413,63
1766015922.410424,57
1766015922.411405,61
1766015922.41241,63
1766015922.413414,61
1766015922.41446,58
1766015922.4154198,57
1766015922.416457,59
1766015922.417405,58
1766015922.4184582,60
1766015922.4194229,63
1766015922.420429,61
1766015922.421432,61
1766015922.4224372,59
1766015922.423428,60
1766015922.424456,57
1766015922.425437,58
1766015922.4264472,57
1766015922.427444,60
1766015922.428443,60
1766015922.4294631,59
1766015922.430466,59
1766015922.4314601,56
1766015922.4324648,58
1766015922.433467,58
1766015922.434468,59
1766015922.435477,57
1766015922.436459,59
1766015922.437493,60
1766015922.4384909,58
1766015922.43949,57
1766015922.440489,55
1766015922.441494,59
1766015922.4425,55
1766015922.44348,57
1766015922.444488,56
1766015922.445556,58
1766015922.446526,57
1766015922.447507,53
1766015922.448503,60
1766015922.449502,58
1766015922.4505138,62
1766015922.451515,59
1766015922.45252,58
1766015922.4535182,57
1766015922.454526,60
1766015922.45553,60
1766015922.456529,59
1766015922.457539,59
1766015922.45855,53
1766015922.459531,59
1766015922.4605389,59
1766015922.461642,56
1766015922.462592,57
1766015922.4635909,57
1766015922.464544,54
1766015922.465533,57
1766015922.466551,59
1766015922.467562,57
1766015922.468564,60
1766015922.4695601,60
1766015922.470571,62
1766015922.4715729,63
1766015922.4725702,59
1766015922.473581,60
1766015922.474578,59
1766015922.475582,61
1766015922.4765818,59
1766015922.4775941,58
1766015922.478593,58
1766015922.479578,57
1766015922.4805892,55
1766015922.4815848,60
1766015922.48261,59
1766015922.483577,58
1766015922.484627,57
1766015922.485628,59
1766015922.486607,60
1766015922.487634,55
1766015922.488608,58
1766015922.489627,56
1766015922.4906251,58
1766015922.49162,56
1766015922.4926279,54
1766015922.493632,56
1766015922.494644,53
1766015922.4956338,59
1766015922.496653,56
1766015922.4976552,58
1766015922.498691,59
1766015922.499669,56
1766015922.500641,58
1766015922.501657,55
1766015922.5026581,54
1766015922.503646,54
1766015922.504651,55
1766015922.505656,57
1766015922.5066528,56
1766015922.507658,55
1766015922.508663,57
1766015922.509685,55
1766015922.510676,52
1766015922.511678,54
1766015922.512665,52
1766015922.5136662,54
1766015922.5146902,55
1766015922.515718,57
1766015922.516712,53
1766015922.517698,53
1766015922.5186958,54
1766015922.519688,54
1766015922.5206988,52
1766015922.5217679,53
1766015922.5227048,51
1766015922.523711,51
1766015922.524717,51
1766015922.525756,52
1766015922.526727,55
1766015922.527732,49
1766015922.528733,53
1766015922.52974,54
1766015922.530744,56
1766015922.531749,57
1766015922.532727,55
1766015922.533761,54
1766015922.53476,58
1766015922.535768,56
1766015922.5367732,51
1766015922.537768,54
1766015922.5387561,52
1766015922.5397592,53
1766015922.540789,51
1766015922.541777,55
1766015922.542787,53
1766015922.543746,52
1766015922.5447931,49
1766015922.545778,48
1766015922.546777,52
1766015922.547783,52
1766015922.548804,49
1766015922.549794,52
1766015922.550785,52
1766015922.551829,52
1766015922.5528052,52
1766015922.553792,52
1766015922.554796,49
1766015922.555841,52
1766015922.556808,49
1766015922.5578282,53
1766015922.5588322,53
1766015922.559841,53
1766015922.560829,53
1766015922.561825,54
1766015922.5628438,52
1766015922.5638201,53
1766015922.564836,56
1766015922.565834,56
1766015922.566873,53
1766015922.5678349,56
1766015922.5688472,54
1766015922.569844,51
1766015922.5708559,55
1766015922.571848,53
1766015922.572855,50
1766015922.5738509,53
1766015922.574947,52
1766015922.575923,49
1766015922.576971,53
1766015922.5779462,50
1766015922.578942,52
1766015922.579947,53
1766015922.580954,49
1766015922.5819578,47
1766015922.582935,50
1766015922.583953,48
1766015922.584952,49
1766015922.585943,50
1766015922.586944,51
1766015922.5879612,53
1766015922.588959,52
1766015922.589949,53
1766015922.590938,54
1766015922.591966,51
1766015922.59296,55
1766015922.593941,54
1766015922.594948,53
1766015922.595944,52
1766015922.596947,51
1766015922.597947,53
1766015922.598943,52
1766015922.599945,57
1766015922.600959,53
1766015922.6019351,55
1766015922.602942,54
1766015922.603965,54
1766015922.6049569,56
1766015922.605976,56
1766015922.606962,54
1766015922.6079621,55
1766015922.608938,52
1766015922.609965,54
1766015922.611017,53
1766015922.611974,51
1766015922.61298,51
1766015922.6139789,48
1766015922.6150389,53
1766015922.615977,53
1766015922.61702,52
1766015922.617982,51
1766015922.6189818,50
1766015922.619987,51
1766015922.6210098,50
1766015922.621994,48
1766015922.623002,47
1766015922.623988,49
1766015922.6250072,50
1766015922.626003,47
1766015922.627014,48
1766015922.6280189,45
1766015922.6290739,50
1766015922.630008,48
1766015922.6310139,46
1766015922.6320431,47
1766015922.6330712,48
1766015922.634013,45
1766015922.635023,46
1766015922.636056,44
1766015922.637037,46
1766015922.638043,45
1766015922.639054,47
1766015922.6400461,44
1766015922.641037,43
1766015922.6420531,44
1766015922.643064,43
1766015922.6440718,45
1766015922.6450582,46
1766015922.64606,42
1766015922.647079,47
1766015922.648067,44
1766015922.649052,47
1766015922.650083,45
1766015922.651078,44
1766015922.65208,41
1766015922.653077,42
1766015922.6540911,45
1766015922.655089,47
1766015922.656088,51
1766015922.6570659,55
1766015922.658093,53
1766015922.659102,55
1766015922.660105,57
1766015922.6611142,56
1766015922.662094,55
1766015922.663126,59
1766015922.66412,59
1766015922.665118,60
1766015922.666125,60
1766015922.6671438,58
1766015922.668156,60
1766015922.669128,61
1766015922.670125,60
1766015922.6711428,60
1766015922.672128,61
1766015922.673132,61
1766015922.6741152,59
1766015922.675144,58
1766015922.6761541,61
1766015922.6771488,65
1766015922.67814,62
1766015922.679152,62
1766015922.6801548,69
1766015922.681157,63
1766015922.6821692,66
1766015922.6831481,64
1766015922.6841621,68
1766015922.685168,67
1766015922.686176,63
1766015922.687187,64
1766015922.688187,62
1766015922.6891809,62
1766015922.690183,64
1766015922.69116,61
1766015922.69218,62
1766015922.693184,63
1766015922.6941922,60
1766015922.695188,60
1766015922.696202,59
1766015922.697194,57
1766015922.698169,59
1766015922.6992052,60
1766015922.700202,59
1766015922.7012439,57
1766015922.7022002,57
1766015922.703223,59
1766015922.7042098,59
1766015922.705216,60
1766015922.7062268,55
1766015922.707277,60
1766015922.7082188,59
1766015922.7092311,59
1766015922.710221,58
1766015922.711244,55
