timestamp,emg_value
1766015953.753698,40
1766015953.753711,42
1766015953.7537222,41
1766015953.7537322,41
1766015953.753742,40
1766015953.7537532,38
1766015953.753763,41
1766015953.7537742,46
1766015953.7537842,43
1766015953.7537951,45
1766015953.7538052,48
1766015953.753815,48
1766015953.753825,50
1766015953.753835,51
1766015953.753845,51
1766015953.753855,54
1766015953.753865,53
1766015953.753876,56
1766015953.753886,52
1766015953.753896,53
1766015953.753906,53
1766015953.7539158,52
1766015953.7539258,51
1766015953.7539358,52
1766015953.753946,53
1766015953.753956,51
1766015953.753966,51
1766015953.753976,48
1766015953.753987,50
1766015953.753997,50
1766015953.754007,54
1766015953.754017,47
1766015953.7540321,50
1766015953.7540421,50
1766015953.754053,51
1766015953.7540622,48
1766015953.754072,48
1766015953.754082,47
1766015953.754092,47
1766015953.754102,50
1766015953.754112,46
1766015953.754123,49
1766015953.754133,48
1766015953.754143,47
1766015953.754153,45
1766015953.754163,47
1766015953.754173,48
1766015953.7541828,48
1766015953.7541928,48
1766015953.7542021,45
1766015953.754213,47
1766015953.7542222,48
1766015953.7542322,45
1766015953.7542431,47
1766015953.7542531,41
1766015953.754263,45
1766015953.754273,42
1766015953.754283,43
1766015953.754293,46
1766015953.754303,43
1766015953.754312,42
1766015953.7543218,43
1766015953.7543318,41
1766015953.7543418,43
1766015953.754354,44
1766015953.754396,43
1766015953.754406,43
1766015953.7544162,41
1766015953.754426,43
1766015953.754436,44
1766015953.754446,42
1766015953.754456,44
1766015953.754466,45
1766015953.754477,46
1766015953.754488,48
1766015953.754498,49
1766015953.754509,51
1766015953.754522,54
1766015953.754532,50
1766015953.754542,54
1766015953.7545521,53
1766015953.7545621,48
1766015953.754572,52
1766015953.754582,48
1766015953.754591,49
1766015953.754601,51
1766015953.754611,49
1766015953.754621,51
1766015953.7546308,50
1766015953.7546408,48
1766015953.7546508,48
1766015953.754661,47
1766015953.754671,48
1766015953.754681,49
1766015953.754692,48
1766015953.7547011,48
1766015953.7547112,47
1766015953.7547252,48
1766015953.754737,46
1766015953.754747,46
1766015953.754758,46
1766015953.754768,43
1766015953.7547781,45
1766015953.7547882,44
1766015953.7547982,43
1766015953.754808,43
1766015953.754818,44
1766015953.754828,44
1766015953.754838,43
1766015953.754868,44
1766015953.754878,44
1766015953.7548878,42
1766015953.7548978,44
1766015953.7549078,44
1766015953.7549179,43
1766015953.754928,43
1766015953.7549381,42
1766015953.7549472,42
1766015953.754957,41
1766015953.754967,40
1766015953.754977,40
1766015953.754987,41
1766015953.754997,44
1766015953.755007,38
1766015953.755017,39
1766015953.755027,40
1766015953.7550368,40
1766015953.7550468,43
1766015953.7550569,45
1766015953.75507,44
1766015953.755081,43
1766015953.755091,42
1766015953.755101,44
1766015953.755111,42
1766015953.755121,40
1766015953.7551308,43
1766015953.755141,43
1766015953.755151,43
1766015953.755161,43
1766015953.755171,45
1766015953.755181,42
1766015953.755191,45
1766015953.755201,43
1766015953.755211,44
1766015953.755221,40
1766015953.755231,40
1766015953.755241,40
1766015953.755251,42
1766015953.75526,42
1766015953.755271,40
1766015953.755281,41
1766015953.75529,42
1766015953.7553012,42
1766015953.755311,41
1766015953.755321,41
1766015953.75533,42
1766015953.75534,42
1766015953.75535,39
1766015953.75536,39
1766015953.75537,40
1766015953.75538,38
1766015953.75539,40
1766015953.755402,39
1766015953.7554119,35
1766015953.7554219,39
1766015953.755432,39
1766015953.755442,40
1766015953.755452,37
1766015953.755462,39
1766015953.755472,36
1766015953.7554822,35
1766015953.7554922,36
1766015953.755502,36
1766015953.755512,39
1766015953.755522,37
1766015953.755532,33
1766015953.755542,36
1766015953.755552,37
1766015953.755562,34
1766015953.755573,35
1766015953.7555819,32
1766015953.7555919,36
1766015953.755602,36
1766015953.755612,34
1766015953.755622,35
1766015953.7556322,36
1766015953.7556422,38
1766015953.7556522,35
1766015953.755662,34
1766015953.755672,38
1766015953.755682,37
1766015953.755693,38
1766015953.755703,39
1766015953.755714,38
1766015953.755726,36
1766015953.755737,44
1766015953.755747,41
1766015953.755757,43
1766015953.755767,45
1766015953.755778,44
1766015953.755788,45
1766015953.755799,43
1766015953.755809,45
1766015953.755818,44
1766015953.755828,45
1766015953.755838,45
1766015953.755849,45
1766015953.755859,43
1766015953.755869,45
1766015953.755879,45
1766015953.755889,44
1766015953.755899,46
1766015953.7559092,43
1766015953.7559192,45
1766015953.755929,47
1766015953.755939,46
1766015953.755949,46
1766015953.755959,46
1766015953.755969,44
1766015953.7559779,43
1766015953.755988,40
1766015953.755998,44
1766015953.756008,46
1766015953.756018,41
1766015953.756028,44
1766015953.756038,44
1766015953.756048,43
1766015953.7560608,45
1766015953.7560709,42
1766015953.7560809,43
1766015953.7560909,44
1766015953.7561011,42
1766015953.7561111,44
1766015953.7561212,43
1766015953.7561312,45
1766015953.756141,42
1766015953.756151,43
1766015953.756161,42
1766015953.756171,41
1766015953.756182,41
1766015953.756192,41
1766015953.756202,43
1766015953.756212,43
1766015953.756222,44
1766015953.756232,42
1766015953.756242,44
1766015953.7562518,42
1766015953.7562618,37
1766015953.756272,39
1766015953.756282,39
1766015953.756292,40
1766015953.756302,41
1766015953.7563121,38
1766015953.7563221,41
1766015953.756332,40
1766015953.756342,40
1766015953.7563531,43
1766015953.756364,43
1766015953.7563741,37
1766015953.7564,40
1766015953.7564101,39
1766015953.7564201,41
1766015953.7564301,38
1766015953.756441,39
1766015953.7564511,36
1766015953.7564611,39
1766015953.7564712,36
1766015953.756481,39
1766015953.7564921,38
1766015953.756502,37
1766015953.756512,35
1766015953.756522,39
1766015953.756532,36
1766015953.756542,40
1766015953.756552,37
1766015953.756562,34
1766015953.756572,36
1766015953.7565818,36
1766015953.756592,36
1766015953.756602,35
1766015953.756612,34
1766015953.756622,36
1766015953.756632,34
1766015953.756642,35
1766015953.756652,36
1766015953.7566621,35
1766015953.756672,35
1766015953.756683,33
1766015953.756693,32
1766015953.756703,33
1766015953.756713,34
1766015953.7567239,32
1766015953.756734,30
1766015953.756744,32
1766015953.756754,35
1766015953.756764,32
1766015953.756774,34
1766015953.7567842,31
1766015953.7567942,32
1766015953.756804,29
1766015953.756814,33
1766015953.756824,32
1766015953.756834,27
1766015953.756844,30
1766015953.756854,34
1766015953.756864,31
1766015953.756874,31
1766015953.7568839,32
1766015953.7568939,29
1766015953.756905,31
1766015953.7569149,31
1766015953.7569249,29
1766015953.756935,30
1766015953.756945,32
1766015953.7569542,27
1766015953.7569642,30
1766015953.756974,31
1766015953.756984,31
1766015953.756994,30
1766015953.757004,31
1766015953.757015,31
1766015953.757024,30
1766015953.757034,32
1766015953.757045,30
1766015953.757056,29
1766015953.757066,30
1766015953.757076,30
1766015953.757086,31
1766015953.757097,28
1766015953.757107,29
1766015953.757117,30
1766015953.7571268,29
1766015953.7571368,29
1766015953.7571468,28
1766015953.757157,28
1766015953.757167,28
1766015953.757177,28
1766015953.7571871,30
1766015953.7571971,26
1766015953.7572072,26
1766015953.757217,25
1766015953.757227,27
1766015953.757237,30
1766015953.757247,27
1766015953.757257,28
1766015953.757267,29
1766015953.757277,28
1766015953.757287,25
1766015953.7572968,26
1766015953.7573068,26
1766015953.7573178,27
1766015953.757334,26
1766015953.757349,26
1766015953.757364,28
1766015953.757377,28
1766015953.75739,27
1766015953.7574039,25
1766015953.757417,27
1766015953.75743,28
1766015953.7574432,25
1766015953.7574558,27
1766015953.757469,26
1766015953.757482,24
1766015953.757495,28
1766015953.757505,25
1766015953.757515,27
1766015953.757525,27
1766015953.757536,24
1766015953.757546,25
1766015953.757556,25
1766015953.757566,26
1766015953.757576,26
1766015953.757586,26
1766015953.757596,27
1766015953.757605,28
1766015953.757616,24
1766015953.757626,26
1766015953.757636,24
1766015953.757646,25
1766015953.757656,24
1766015953.757666,24
1766015953.7576761,27
1766015953.757686,26
1766015953.757696,24
1766015953.757706,22
1766015953.757716,21
1766015953.757727,23
1766015953.757737,25
1766015953.757749,23
1766015953.757759,23
1766015953.7577689,27
1766015953.75778,26
1766015953.7577899,27
1766015953.7577999,27
1766015953.7578099,23
1766015953.75782,25
1766015953.75783,24
1766015953.75784,24
1766015953.7578502,28
1766015953.7578611,24
1766015953.7578712,26
1766015953.7578828,27
1766015953.757893,26
1766015953.757903,25
1766015953.757913,27
1766015953.7579231,23
1766015953.7579331,25
1766015953.7579432,23
1766015953.757953,24
1766015953.757963,27
1766015953.757973,25
1766015953.757983,21
1766015953.757993,24
1766015953.758003,25
1766015953.758013,23
1766015953.758023,27
1766015953.7580328,24
1766015953.758044,27
1766015953.7580538,26
1766015953.758064,26
1766015953.758074,22
1766015953.758087,26
1766015953.758097,26
1766015953.758107,23
1766015953.7581172,25
1766015953.7581282,25
1766015953.7581382,26
1766015953.7581482,25
1766015953.758158,24
1766015953.758168,25
1766015953.758178,24
1766015953.758188,27
1766015953.758198,27
1766015953.758208,26
1766015953.758218,23
1766015953.758228,26
1766015953.7582378,26
1766015953.7582479,25
1766015953.7582579,26
1766015953.7582679,25
1766015953.758278,25
1766015953.758288,29
1766015953.7582982,28
1766015953.7583082,26
1766015953.7583182,24
1766015953.758328,24
1766015953.758338,26
1766015953.758349,25
1766015953.758359,28
1766015953.758368,26
1766015953.758378,25
1766015953.758388,24
1766015953.758399,23
1766015953.758411,27
1766015953.758421,26
1766015953.758431,27
1766015953.758441,25
1766015953.758452,26
1766015953.758462,27
1766015953.758473,25
1766015953.758482,25
1766015953.758492,27
1766015953.758503,28
1766015953.758513,24
1766015953.758523,29
1766015953.758533,26
1766015953.758543,28
1766015953.758553,26
1766015953.758563,27
1766015953.758573,29
1766015953.758583,25
1766015953.758594,27
1766015953.758603,26
1766015953.758614,28
1766015953.758624,24
1766015953.758634,24
1766015953.7586439,27
1766015953.7586539,25
1766015953.758664,28
1766015953.758674,28
1766015953.758684,26
1766015953.758694,28
1766015953.758708,29
1766015953.758718,28
1766015953.758728,26
1766015953.758741,25
1766015953.758751,29
1766015953.758761,30
1766015953.758772,27
1766015953.758782,35
1766015953.758792,30
1766015953.758802,31
1766015953.758812,32
1766015953.758822,28
1766015953.7588322,31
1766015953.7588422,33
1766015953.758852,31
1766015953.758862,33
1766015953.758872,30
1766015953.758882,30
1766015953.758892,34
1766015953.758902,33
1766015953.758912,30
1766015953.758922,32
1766015953.7589319,32
1766015953.758942,35
1766015953.758952,32
1766015953.758962,31
1766015953.758972,32
1766015953.758982,32
1766015953.758992,34
1766015953.7590022,33
1766015953.759012,33
1766015953.759022,36
1766015953.759032,35
1766015953.759042,34
1766015953.759052,35
1766015953.759064,34
1766015953.759076,30
1766015953.7590861,32
1766015953.7590961,33
1766015953.759107,33
1766015953.7591171,34
1766015953.7591271,34
1766015953.759137,33
1766015953.759147,36
1766015953.7591581,33
1766015953.759168,35
1766015953.759178,33
1766015953.759188,37
1766015953.759198,34
1766015953.759208,36
1766015953.759218,38
1766015953.759228,35
1766015953.759238,33
1766015953.7592478,35
1766015953.759258,35
1766015953.759268,36
1766015953.759278,34
1766015953.759288,32
1766015953.759298,33
1766015953.759308,35
1766015953.759318,34
1766015953.759328,35
1766015953.759338,38
1766015953.759348,35
1766015953.759358,34
1766015953.759368,31
1766015953.759378,32
1766015953.759388,34
1766015953.7594,34
1766015953.75941,35
1766015953.75942,35
1766015953.75943,33
1766015953.75944,35
1766015953.7594502,34
1766015953.7594602,32
1766015953.75947,33
1766015953.75948,33
1766015953.759491,32
1766015953.759501,32
1766015953.759511,31
1766015953.759521,32
1766015953.759531,33
1766015953.759541,35
1766015953.759552,35
1766015953.759562,33
1766015953.759572,33
1766015953.759582,34
1766015953.7595918,36
1766015953.7596018,33
1766015953.7596118,33
1766015953.7596219,35
1766015953.7596319,30
1766015953.7596421,32
1766015953.7596521,34
1766015953.7596622,34
1766015953.7596722,34
1766015953.759682,36
1766015953.759692,33
1766015953.759702,32
1766015953.759712,32
1766015953.759723,33
1766015953.759733,31
1766015953.759743,34
1766015953.759753,32
1766015953.759763,30
1766015953.759773,32
1766015953.759783,31
1766015953.7597928,31
1766015953.7598028,33
1766015953.759813,32
1766015953.759823,35
1766015953.759834,31
1766015953.759844,33
1766015953.759854,33
1766015953.759864,33
1766015953.759874,29
1766015953.759884,31
1766015953.7598941,33
1766015953.759904,34
1766015953.759914,37
1766015953.759924,33
1766015953.759934,34
1766015953.759944,32
1766015953.759954,33
1766015953.759965,31
1766015953.759974,36
1766015953.759985,36
1766015953.759995,33
1766015953.7600052,34
1766015953.760015,30
1766015953.760025,34
1766015953.760054,33
1766015953.7600808,35
1766015953.760092,36
1766015953.7601018,36
1766015953.760112,34
1766015953.760122,32
1766015953.760132,35
1766015953.760142,32
1766015953.760153,32
1766015953.760163,37
1766015953.760173,33
1766015953.760183,35
1766015953.760193,36
1766015953.7602031,36
1766015953.760213,34
1766015953.760223,35
1766015953.760233,37
1766015953.760243,35
1766015953.760253,34
1766015953.760263,37
1766015953.760273,37
1766015953.760283,35
1766015953.760293,36
1766015953.760303,36
1766015953.760313,36
1766015953.760324,37
1766015953.760334,35
1766015953.760344,35
1766015953.760354,34
1766015953.7604082,37
1766015953.760421,36
1766015953.7604322,35
1766015953.760443,33
1766015953.760467,31
1766015953.760479,32
1766015953.76049,37
1766015953.760501,34
1766015953.760511,33
1766015953.760522,38
1766015953.760532,38
1766015953.760542,36
1766015953.760553,37
1766015953.760563,35
1766015953.7605739,37
1766015953.7605839,39
1766015953.760594,34
1766015953.7606049,37
1766015953.7606149,36
1766015953.760625,36
1766015953.7606359,34
1766015953.7606459,34
1766015953.7606568,35
1766015953.7606668,35
1766015953.7606778,38
1766015953.760688,32
1766015953.760698,36
1766015953.760709,38
1766015953.760719,36
1766015953.760729,34
1766015953.76074,37
1766015953.7607539,37
1766015953.760764,37
1766015953.760774,36
1766015953.760784,36
1766015953.7607949,34
1766015953.7608051,35
1766015953.760819,31
1766015953.760829,38
1766015953.760839,34
1766015953.76085,36
1766015953.76086,38
1766015953.76087,35
1766015953.760881,36
1766015953.760891,38
1766015953.7609012,36
1766015953.760912,38
1766015953.7609222,41
1766015953.7609322,42
1766015953.760942,39
1766015953.7609532,41
1766015953.760963,40
1766015953.761002,41
1766015953.761015,39
1766015953.7610261,40
1766015953.761036,40
1766015953.7610471,40
1766015953.7610571,43
1766015953.761068,41
1766015953.761079,42
1766015953.761089,39
1766015953.761099,41
1766015953.76111,42
1766015953.76112,47
1766015953.76113,45
1766015953.7611399,44
1766015953.76115,43
1766015953.7611609,47
1766015953.7611709,45
1766015953.761184,47
1766015953.761195,47
1766015953.761205,48
1766015953.761215,45
1766015953.761225,49
1766015953.761235,49
1766015953.761246,46
1766015953.761256,44
1766015953.761266,44
1766015953.761276,46
1766015953.761287,49
1766015953.761297,44
1766015953.7613068,45
1766015953.761317,44
1766015953.7613282,46
1766015953.761338,46
1766015953.761348,49
1766015953.761358,49
1766015953.761369,48
1766015953.761379,48
1766015953.761389,46
1766015953.761399,46
1766015953.76141,47
1766015953.76142,49
1766015953.76143,47
1766015953.76144,49
1766015953.761451,46
1766015953.761461,46
1766015953.761471,50
1766015953.761482,49
1766015953.761492,53
1766015953.761502,50
1766015953.761513,50
1766015953.761525,51
1766015953.761535,48
1766015953.761545,50
1766015953.761556,49
1766015953.761566,49
1766015953.761576,48
1766015953.761587,51
1766015953.761597,50
1766015953.761607,51
1766015953.761618,48
1766015953.761628,48
1766015953.761638,51
1766015953.7616482,49
1766015953.7616582,48
1766015953.7616692,52
1766015953.7616792,52
1766015953.7616892,49
1766015953.7617018,50
1766015953.761712,49
1766015953.761722,51
1766015953.761733,50
1766015953.761743,49
1766015953.761753,48
1766015953.761764,47
1766015953.761774,46
1766015953.761784,50
1766015953.761794,49
1766015953.761805,47
1766015953.761815,50
1766015953.761825,49
1766015953.761835,47
1766015953.7618449,51
1766015953.761858,51
1766015953.761881,48
1766015953.7618911,53
1766015953.7619011,51
1766015953.7619112,51
1766015953.761921,51
1766015953.761931,51
1766015953.761941,51
1766015953.761952,50
1766015953.761962,52
1766015953.761972,49
1766015953.761982,49
1766015953.761992,49
1766015953.762002,51
1766015953.762012,51
1766015953.7620218,51
1766015953.762032,53
1766015953.7620428,51
1766015953.762053,53
1766015953.762063,52
1766015953.762073,52
1766015953.762083,54
1766015953.762094,52
1766015953.762104,51
1766015953.762114,51
1766015953.762124,52
1766015953.762134,49
1766015953.762144,50
1766015953.762154,53
1766015953.7621639,47
1766015953.762175,52
1766015953.7621849,49
1766015953.7621949,52
1766015953.762207,52
1766015953.762217,49
1766015953.762227,52
1766015953.7622368,50
1766015953.7622468,50
1766015953.7622578,51
1766015953.7622678,48
1766015953.7622778,49
1766015953.762288,49
1766015953.7622988,46
1766015953.762309,49
1766015953.762319,49
1766015953.762329,49
1766015953.76234,49
1766015953.76235,50
1766015953.76236,50
1766015953.76237,50
1766015953.7623801,51
1766015953.76239,50
1766015953.7624,49
1766015953.76241,49
1766015953.76242,48
1766015953.76243,52
1766015953.76244,51
1766015953.76245,45
1766015953.76246,47
1766015953.76247,46
1766015953.76248,48
1766015953.76249,46
1766015953.7625,46
1766015953.76251,47
1766015953.76252,42
1766015953.7625332,47
1766015953.7625432,45
1766015953.762553,45
1766015953.762563,43
1766015953.762573,45
1766015953.762583,43
1766015953.762593,45
1766015953.762603,45
1766015953.762613,44
1766015953.762623,48
1766015953.7626328,45
1766015953.7626429,46
1766015953.7626529,44
1766015953.762663,49
1766015953.762673,45
1766015953.7626839,46
1766015953.762694,45
1766015953.762704,43
1766015953.7627141,46
1766015953.7627242,46
1766015953.76275,45
1766015953.76276,45
1766015953.76277,45
1766015953.76278,44
1766015953.76279,45
1766015953.762801,44
1766015953.762811,44
1766015953.7628212,43
1766015953.7628312,43
1766015953.762841,46
1766015953.762851,48
1766015953.762861,47
1766015953.762872,45
1766015953.7628841,49
1766015953.7628942,52
1766015953.7629042,54
1766015953.762914,54
1766015953.762924,55
1766015953.762934,55
1766015953.762945,54
1766015953.762955,55
1766015953.762965,53
1766015953.762975,51
1766015953.762986,52
1766015953.762996,53
1766015953.763006,56
1766015953.763016,52
1766015953.763027,54
1766015953.763037,53
1766015953.763047,50
1766015953.763057,50
1766015953.7630668,53
1766015953.763077,52
1766015953.763087,54
1766015953.763097,52
1766015953.763107,52
1766015953.763117,54
1766015953.763127,52
1766015953.763137,51
1766015953.763147,51
1766015953.763157,51
1766015953.763167,50
1766015953.763177,49
1766015953.763187,48
1766015953.763197,50
1766015953.7632089,47
1766015953.7632189,49
1766015953.763229,49
1766015953.763239,50
1766015953.763249,50
1766015953.763259,49
1766015953.7632692,51
1766015953.7632792,52
1766015953.763289,47
1766015953.7633002,52
1766015953.7633102,48
1766015953.76332,48
1766015953.76333,51
1766015953.76334,49
1766015953.76335,49
1766015953.76336,47
1766015953.76337,48
1766015953.763381,46
1766015953.763391,49
1766015953.763401,49
1766015953.763411,48
1766015953.7634208,45
1766015953.7634308,46
1766015953.7634408,46
1766015953.7634509,49
1766015953.763461,46
1766015953.7634711,46
1766015953.7634811,46
1766015953.7634912,47
1766015953.7635012,50
1766015953.763511,46
1766015953.7635221,47
1766015953.763533,46
1766015953.7635431,48
1766015953.763554,44
1766015953.763564,44
1766015953.7635741,46
1766015953.763584,48
1766015953.7635992,44
1766015953.7636101,45
1766015953.7636201,45
1766015953.7636302,43
1766015953.7636402,47
1766015953.76365,41
1766015953.76366,42
1766015953.76367,41
1766015953.76368,43
1766015953.76369,43
1766015953.7637,45
1766015953.76371,42
1766015953.76372,45
1766015953.7637298,44
1766015953.7637398,42
1766015953.7637498,43
1766015953.7637608,44
1766015953.7637708,42
1766015953.763781,43
1766015953.763791,41
1766015953.763801,41
1766015953.763811,44
1766015953.7638211,42
1766015953.7638311,43
1766015953.763841,43
1766015953.763851,41
1766015953.763861,40
1766015953.763875,41
1766015953.763885,42
1766015953.763896,42
1766015953.763907,44
1766015953.763917,40
1766015953.763927,45
1766015953.763937,42
1766015953.763947,44
1766015953.763957,44
1766015953.763967,38
1766015953.763977,41
1766015953.763988,41
1766015953.763998,43
1766015953.764008,41
1766015953.7640178,41
1766015953.7640278,39
1766015953.7640378,41
1766015953.7640488,40
1766015953.7640588,41
1766015953.764069,43
1766015953.764079,40
1766015953.764089,39
1766015953.7640991,40
1766015953.7641091,42
1766015953.7641191,43
1766015953.764129,42
1766015953.764139,38
1766015953.76415,40
1766015953.76416,37
1766015953.76417,38
1766015953.76418,43
1766015953.76422,41
1766015953.7642329,41
1766015953.764243,41
1766015953.764253,37
1766015953.7642639,37
1766015953.764274,40
1766015953.764284,38
1766015953.764294,40
1766015953.7643049,40
1766015953.764315,38
1766015953.7643251,40
1766015953.7643352,41
1766015953.7643461,42
1766015953.7643561,38
1766015953.7643661,41
1766015953.7643762,36
1766015953.7643871,42
1766015953.7643971,39
1766015953.7644072,40
1766015953.764417,39
1766015953.764427,41
1766015953.764437,39
1766015953.764447,41
1766015953.764457,39
1766015953.764467,41
1766015953.764478,42
1766015953.764488,40
1766015953.764498,39
1766015953.764508,39
1766015953.764519,42
1766015953.764529,39
1766015953.7645388,40
1766015953.764549,37
1766015953.764559,37
1766015953.764571,39
1766015953.764582,39
1766015953.7645922,37
1766015953.7646022,38
1766015953.7646122,36
1766015953.764622,38
1766015953.7646332,37
1766015953.764643,40
1766015953.764653,36
1766015953.764663,39
1766015953.764673,35
1766015953.764683,36
1766015953.764693,37
1766015953.764703,38
1766015953.764713,38
1766015953.764723,37
1766015953.764734,36
1766015953.764744,36
1766015953.7647538,36
1766015953.7647638,39
1766015953.7647748,36
1766015953.7647848,37
1766015953.7647948,37
1766015953.764805,36
1766015953.764815,38
1766015953.764826,37
1766015953.764836,35
1766015953.764846,36
1766015953.764856,34
1766015953.764866,36
1766015953.764877,35
1766015953.764887,34
1766015953.764899,34
1766015953.764909,36
1766015953.764919,36
1766015953.764929,35
1766015953.76494,37
1766015953.76495,33
1766015953.764961,34
1766015953.764971,35
1766015953.764981,36
1766015953.764991,35
1766015953.765002,35
1766015953.765012,35
1766015953.765022,35
1766015953.765032,39
1766015953.765043,34
1766015953.765053,37
1766015953.7650628,34
1766015953.765074,37
1766015953.7650838,35
1766015953.765095,35
1766015953.765105,34
1766015953.7651148,31
1766015953.765125,36
1766015953.765135,34
1766015953.765146,36
1766015953.765156,37
1766015953.765166,35
1766015953.765176,35
1766015953.765186,34
1766015953.765196,34
1766015953.765206,33
1766015953.765216,33
1766015953.765228,35
1766015953.765289,35
1766015953.7653,33
1766015953.76531,34
1766015953.7653198,36
1766015953.7653298,33
1766015953.765341,35
1766015953.7653508,33
1766015953.7653608,31
1766015953.7653708,32
1766015953.765381,35
1766015953.765391,32
1766015953.7654011,32
1766015953.7654111,32
1766015953.765422,30
1766015953.7654321,32
1766015953.765441,33
1766015953.765451,34
1766015953.765462,31
1766015953.765472,32
1766015953.765482,32
1766015953.765492,33
1766015953.765502,32
1766015953.765513,30
1766015953.765523,33
1766015953.765533,29
1766015953.765543,32
1766015953.765553,35
1766015953.7655628,33
1766015953.765573,31
1766015953.765583,30
1766015953.765593,34
1766015953.765603,30
1766015953.765615,34
1766015953.765625,29
1766015953.765635,30
1766015953.765645,31
1766015953.765655,30
1766015953.765666,30
1766015953.765676,28
1766015953.765686,28
1766015953.765696,29
1766015953.765706,29
1766015953.765716,29
1766015953.7657259,26
1766015953.7657359,33
1766015953.7657459,31
1766015953.765756,31
1766015953.765766,27
1766015953.765776,31
1766015953.765787,32
1766015953.7657971,30
1766015953.7658072,30
1766015953.7658172,31
1766015953.7658272,32
1766015953.765837,29
1766015953.765847,29
1766015953.765857,31
1766015953.765867,29
1766015953.765877,27
1766015953.765887,27
1766015953.765897,28
1766015953.765907,29
1766015953.7659168,30
1766015953.7659268,31
1766015953.765939,28
1766015953.76595,26
1766015953.765959,28
1766015953.76597,28
1766015953.76598,25
1766015953.7659898,28
1766015953.766,26
1766015953.76601,28
1766015953.76602,28
1766015953.766031,27
1766015953.766041,29
1766015953.766051,27
1766015953.766061,28
1766015953.766071,25
1766015953.766081,27
1766015953.766091,27
1766015953.766102,29
1766015953.766112,26
1766015953.766122,27
1766015953.766133,27
1766015953.766143,27
1766015953.7661529,29
1766015953.7661629,26
1766015953.766173,26
1766015953.766183,27
1766015953.766193,24
1766015953.766203,27
1766015953.7662132,25
1766015953.7662232,27
1766015953.7662332,25
1766015953.766243,24
1766015953.766253,27
1766015953.766263,24
1766015953.7662752,29
1766015953.766285,25
1766015953.766295,26
1766015953.7663062,23
1766015953.766316,24
1766015953.766326,25
1766015953.766336,28
1766015953.766346,27
1766015953.766356,29
1766015953.766366,26
1766015953.766376,26
1766015953.766386,23
1766015953.7663958,24
1766015953.7664058,23
1766015953.7664158,26
1766015953.766426,27
1766015953.766436,25
1766015953.766447,22
1766015953.7664561,25
1766015953.7664661,22
1766015953.766477,24
1766015953.7664871,24
1766015953.7664971,23
1766015953.766507,25
1766015953.766517,24
1766015953.766527,24
1766015953.766537,22
1766015953.766547,23
1766015953.766557,22
1766015953.766567,27
1766015953.766577,23
1766015953.7665868,23
1766015953.766599,24
1766015953.76661,23
1766015953.76662,27
1766015953.76663,23
1766015953.7666402,22
1766015953.7666502,21
1766015953.7666602,25
1766015953.76667,23
1766015953.76668,26
1766015953.76669,23
1766015953.7667,23
1766015953.76671,21
1766015953.76672,23
1766015953.76673,24
1766015953.76674,24
1766015953.766752,25
1766015953.766762,22
1766015953.766772,26
1766015953.766782,23
1766015953.7667918,24
1766015953.7668018,25
1766015953.7668118,23
1766015953.7668228,23
1766015953.7668328,25
1766015953.7668428,24
1766015953.766855,24
1766015953.766866,24
1766015953.7668748,25
1766015953.766885,24
1766015953.766895,22
1766015953.766906,26
1766015953.766916,25
1766015953.766926,26
1766015953.766936,26
1766015953.766946,23
1766015953.766956,22
1766015953.766966,23
1766015953.766976,24
1766015953.766986,23
1766015953.766996,23
1766015953.7670069,23
1766015953.767017,22
1766015953.767027,20
1766015953.767037,27
1766015953.767047,23
1766015953.767057,24
1766015953.767067,23
1766015953.767078,22
1766015953.7670882,24
1766015953.7670982,21
1766015953.7671082,21
1766015953.767118,23
1766015953.767128,23
1766015953.767138,25
1766015953.767149,24
1766015953.767159,24
1766015953.767169,21
1766015953.767179,24
1766015953.767189,25
1766015953.767199,23
1766015953.767209,22
1766015953.7672188,22
1766015953.76723,24
1766015953.76724,22
1766015953.7672498,23
1766015953.767261,24
1766015953.7672708,24
1766015953.7672808,25
1766015953.7672908,22
1766015953.767301,25
1766015953.767311,23
1766015953.767321,22
1766015953.767332,23
1766015953.767342,24
1766015953.767352,25
1766015953.767362,21
1766015953.7673721,22
1766015953.767383,23
1766015953.767393,25
1766015953.7674031,20
1766015953.767413,24
1766015953.767423,21
1766015953.767433,23
1766015953.767444,23
1766015953.7674692,22
1766015953.767626,23
1766015953.7676458,22
1766015953.767657,23
1766015953.767668,23
1766015953.767678,24
1766015953.767689,27
1766015953.767699,22
1766015953.767709,24
1766015953.76772,24
1766015953.76773,25
1766015953.76774,23
1766015953.76777,24
1766015953.7678359,21
1766015953.7678468,22
1766015953.7678761,24
1766015953.7678878,23
1766015953.7678988,23
1766015953.76791,24
1766015953.767921,22
1766015953.767932,22
1766015953.767943,24
1766015953.767953,26
1766015953.767964,26
1766015953.768001,24
1766015953.768012,23
1766015953.768023,23
1766015953.768033,24
1766015953.768043,22
1766015953.768054,25
1766015953.768064,25
1766015953.768074,22
1766015953.768084,23
1766015953.768095,23
1766015953.768105,24
1766015953.768115,25
1766015953.7681248,21
1766015953.768136,24
1766015953.768146,24
1766015953.7681558,25
1766015953.7681658,27
1766015953.768176,22
1766015953.768186,21
1766015953.768196,25
1766015953.768207,24
1766015953.768217,23
1766015953.768227,23
1766015953.768237,23
1766015953.7682471,22
1766015953.7682571,23
1766015953.768267,22
1766015953.768277,24
1766015953.768287,20
1766015953.768298,21
1766015953.768308,24
1766015953.768318,23
1766015953.768328,21
1766015953.768338,21
1766015953.768348,24
1766015953.768359,24
1766015953.768369,24
1766015953.768379,24
1766015953.76839,23
1766015953.7684,21
1766015953.7684102,24
1766015953.76842,23
1766015953.7684312,23
1766015953.7684412,20
1766015953.768451,23
1766015953.768461,24
1766015953.768471,23
1766015953.768481,24
1766015953.768493,22
1766015953.7685041,23
1766015953.7685142,22
1766015953.768524,24
1766015953.768534,23
1766015953.768544,22
1766015953.768554,22
1766015953.768564,23
1766015953.768575,23
1766015953.768585,19
1766015953.768595,23
1766015953.768605,25
1766015953.768615,24
1766015953.7686248,24
1766015953.7686348,23
1766015953.768646,22
1766015953.7686558,21
1766015953.768666,24
1766015953.768676,24
1766015953.768689,25
1766015953.7687,24
1766015953.76871,24
1766015953.76872,23
1766015953.7687302,22
1766015953.7687402,22
1766015953.7687502,22
1766015953.76876,24
1766015953.76877,21
1766015953.768781,25
1766015953.768791,22
1766015953.768801,24
1766015953.768811,25
1766015953.768821,22
1766015953.768831,24
1766015953.768843,22
1766015953.768853,23
1766015953.768864,22
1766015953.768874,21
1766015953.768884,23
1766015953.768894,21
1766015953.768904,23
1766015953.768915,22
1766015953.768925,20
1766015953.768935,18
1766015953.768945,24
1766015953.768955,21
1766015953.768965,21
1766015953.768975,22
1766015953.768985,23
1766015953.7689972,22
1766015953.7690072,23
1766015953.769017,21
1766015953.7690282,22
1766015953.769038,22
1766015953.769048,19
1766015953.769058,21
1766015953.769069,24
1766015953.769079,21
1766015953.769094,24
1766015953.769105,25
1766015953.769196,20
1766015953.769213,23
1766015953.769227,22
1766015953.7692401,21
1766015953.769253,20
1766015953.769266,23
1766015953.769279,20
1766015953.769292,22
1766015953.769305,24
1766015953.7693179,21
1766015953.769331,23
1766015953.769344,19
1766015953.769357,21
1766015953.76937,24
1766015953.769383,21
1766015953.769396,23
1766015953.769408,21
1766015953.769421,21
1766015953.769435,24
1766015953.769448,24
1766015953.769461,23
1766015953.769473,24
1766015953.7694862,21
1766015953.7694988,20
1766015953.769512,21
1766015953.769525,20
1766015953.7695382,23
1766015953.7699058,23
1766015953.77089,20
1766015953.7719302,24
1766015953.772919,21
1766015953.773941,23
1766015953.7749429,22
1766015953.775955,23
1766015953.776952,21
1766015953.778025,20
1766015953.7790668,23
1766015953.779968,24
1766015953.7809439,24
1766015953.781934,22
1766015953.782938,22
1766015953.7840111,21
1766015953.7849898,24
1766015953.7859719,24
1766015953.7869818,21
1766015953.787959,21
1766015953.788956,21
1766015953.789974,23
1766015953.790964,22
1766015953.791965,25
1766015953.7929862,23
1766015953.793988,22
1766015953.794976,20
1766015953.795973,22
1766015953.7969542,23
1766015953.797955,23
1766015953.798965,23
1766015953.7999842,22
1766015953.8009658,24
1766015953.801962,21
1766015953.802975,23
1766015953.803974,22
1766015953.804972,19
1766015953.80599,24
1766015953.806995,23
1766015953.808001,22
1766015953.809005,23
1766015953.8100119,23
1766015953.811033,21
1766015953.812017,21
1766015953.813026,23
1766015953.8140538,22
1766015953.815059,21
1766015953.816052,24
1766015953.817038,22
1766015953.818031,20
1766015953.81904,22
1766015953.8200262,21
1766015953.8210828,20
1766015953.8220701,23
1766015953.8231082,25
1766015953.824088,22
1766015953.825055,24
1766015953.826058,22
1766015953.827064,21
1766015953.828066,21
1766015953.829082,22
1766015953.830107,22
1766015953.831109,22
1766015953.832082,24
1766015953.833109,22
1766015953.834111,19
1766015953.835128,23
1766015953.836134,21
1766015953.837142,21
1766015953.838083,23
1766015953.8391418,22
1766015953.840117,22
1766015953.841123,21
1766015953.842134,22
1766015953.843148,22
1766015953.844141,24
1766015953.845145,20
1766015953.8461592,20
1766015953.8471522,20
1766015953.848188,19
1766015953.849182,24
1766015953.8501718,24
1766015953.851222,21
1766015953.852202,23
1766015953.85322,23
1766015953.854223,23
1766015953.855192,25
1766015953.856169,23
1766015953.8571699,25
1766015953.858175,24
1766015953.859188,24
1766015953.8601868,24
1766015953.861186,22
1766015953.862174,23
1766015953.863167,25
1766015953.8641732,25
1766015953.8651788,25
1766015953.866171,25
1766015953.867182,27
1766015953.868187,26
1766015953.869174,24
1766015953.870184,25
1766015953.87118,24
1766015953.8721669,23
1766015953.873173,22
1766015953.8741682,25
1766015953.875227,25
1766015953.8761878,23
1766015953.877179,21
1766015953.87821,21
1766015953.8792179,23
1766015953.8802419,24
1766015953.881231,24
1766015953.8822532,25
1766015953.883241,26
1766015953.8842611,24
1766015953.8852491,27
1766015953.886278,27
1766015953.887257,27
1766015953.888271,29
1766015953.889246,28
1766015953.890291,27
1766015953.891265,28
1766015953.8922722,30
1766015953.893292,28
1766015953.894283,28
1766015953.895295,24
1766015953.896311,30
1766015953.8973172,23
1766015953.8983412,27
1766015953.899338,25
1766015953.900321,27
1766015953.90133,28
1766015953.9023218,26
1766015953.903321,26
1766015953.9043462,25
1766015953.9053068,28
1766015953.906338,27
1766015953.907328,25
1766015953.908304,29
1766015953.909347,31
1766015953.910361,33
1766015953.911349,38
1766015953.9123158,37
1766015953.913356,39
1766015953.914325,38
1766015953.915325,37
1766015953.916337,38
1766015953.917341,40
1766015953.918368,38
1766015953.91937,38
1766015953.920367,39
1766015953.921364,38
1766015953.922369,37
1766015953.923373,38
1766015953.9243789,38
1766015953.9253829,40
1766015953.926378,41
1766015953.927385,46
1766015953.928364,44
1766015953.929395,47
1766015953.930391,48
1766015953.93139,48
1766015953.932389,48
1766015953.9333901,47
1766015953.934409,47
1766015953.935411,51
1766015953.936395,47
1766015953.9374158,46
1766015953.938418,52
1766015953.939411,48
1766015953.9404101,52
1766015953.9414122,47
1766015953.9424179,48
1766015953.943418,47
1766015953.94443,52
1766015953.9454222,54
1766015953.946429,51
1766015953.947436,52
1766015953.9484422,54
1766015953.94944,57
1766015953.9504452,57
1766015953.951446,62
1766015953.952446,57
1766015953.9534562,60
1766015953.954467,59
1766015953.955459,56
1766015953.95646,57
1766015953.9574652,61
1766015953.958455,69
1766015953.959476,77
1766015953.96047,85
1766015953.961479,98
1766015953.962581,103
1766015953.963576,103
1766015953.964581,103
1766015953.9655712,106
1766015953.96659,109
1766015953.967594,112
1766015953.968595,108
1766015953.969594,111
1766015953.970606,111
1766015953.971612,111
1766015953.972608,109
1766015953.9735959,109
1766015953.974623,109
1766015953.975608,107
1766015953.976609,109
1766015953.977623,107
1766015953.978632,106
1766015953.979637,105
1766015953.980629,106
1766015953.9816399,104
1766015953.982647,105
1766015953.9836302,103
1766015953.9846349,101
1766015953.985551,99
1766015953.98666,100
1766015953.9875681,99
1766015953.988564,96
1766015953.989558,94
1766015953.990567,98
1766015953.991573,98
1766015953.99264,94
1766015953.9936,95
1766015953.994585,93
1766015953.9956,93
1766015953.996609,91
1766015953.997636,93
1766015953.998591,89
1766015953.9996119,90
1766015954.000607,89
1766015954.001622,85
1766015954.002648,86
1766015954.0036411,88
1766015954.004611,84
1766015954.005625,82
1766015954.006616,84
1766015954.007624,79
1766015954.0086322,81
1766015954.009701,79
1766015954.010645,78
1766015954.011636,78
1766015954.012615,80
1766015954.013607,78
1766015954.014623,79
1766015954.015609,79
1766015954.016628,76
1766015954.017641,75
1766015954.018621,75
1766015954.019618,77
1766015954.0206358,75
1766015954.021618,75
1766015954.0226371,77
1766015954.023631,74
1766015954.0246432,74
1766015954.025723,72
1766015954.0266619,74
1766015954.0276532,75
1766015954.02864,77
1766015954.02963,74
1766015954.030635,79
1766015954.031615,78
1766015954.032649,74
1766015954.0336452,75
1766015954.034652,75
1766015954.035647,76
1766015954.036642,76
1766015954.037646,74
1766015954.038638,75
1766015954.0396538,76
1766015954.04067,74
1766015954.041667,75
1766015954.042685,77
1766015954.043676,78
1766015954.044688,78
1766015954.045689,84
1766015954.046675,83
1766015954.0476952,87
1766015954.048685,87
1766015954.0497,88
1766015954.050723,87
1766015954.051711,90
1766015954.052712,88
1766015954.053715,88
1766015954.054711,85
1766015954.055715,87
1766015954.056715,86
1766015954.057717,88
1766015954.058731,85
1766015954.059732,84
1766015954.060728,83
1766015954.061734,84
1766015954.062725,85
1766015954.063762,83
1766015954.064775,85
1766015954.065774,83
1766015954.066775,82
1766015954.067787,82
1766015954.0687869,80
1766015954.0698009,84
1766015954.070893,82
1766015954.0718138,81
1766015954.072845,82
1766015954.073772,84
1766015954.07479,81
1766015954.075825,80
1766015954.076836,78
1766015954.0778081,78
1766015954.078781,79
1766015954.0797818,79
1766015954.080773,77
1766015954.0817752,77
1766015954.082783,74
1766015954.083796,76
1766015954.084789,76
1766015954.0857759,76
1766015954.086792,72
1766015954.087784,71
1766015954.088789,74
1766015954.089907,70
1766015954.090809,72
1766015954.091813,70
1766015954.092902,69
1766015954.093908,73
1766015954.09483,69
1766015954.095895,66
1766015954.096912,68
1766015954.0979042,68
1766015954.098895,67
1766015954.099895,67
1766015954.100905,66
1766015954.101896,66
1766015954.102905,68
1766015954.103911,68
1766015954.104931,65
1766015954.1058822,65
1766015954.106891,64
1766015954.1078908,64
1766015954.108886,66
1766015954.109895,63
1766015954.110877,62
1766015954.1118789,64
1766015954.112897,62
1766015954.113893,62
1766015954.114898,61
1766015954.115894,58
1766015954.116895,61
1766015954.1179168,61
1766015954.118927,60
1766015954.1198862,59
1766015954.120888,64
1766015954.121886,62
1766015954.12289,60
1766015954.123899,59
1766015954.124894,58
1766015954.1259031,58
1766015954.1269069,58
1766015954.127904,60
1766015954.128887,56
1766015954.129925,54
1766015954.1309109,59
1766015954.1318982,55
1766015954.132926,54
1766015954.133937,56
1766015954.1349561,54
1766015954.135916,54
1766015954.136927,54
1766015954.1379468,57
1766015954.1389298,56
1766015954.1399739,52
1766015954.14098,54
1766015954.141941,54
1766015954.142965,54
1766015954.14396,53
1766015954.144949,54
1766015954.145948,52
1766015954.146946,51
1766015954.147968,51
1766015954.1489549,51
1766015954.1499782,51
1766015954.1509812,52
1766015954.1519842,50
1766015954.152957,51
1766015954.153976,51
1766015954.154978,50
1766015954.15598,53
1766015954.156994,49
1766015954.157984,50
1766015954.158991,53
1766015954.160008,47
1766015954.160992,52
1766015954.162038,50
1766015954.163025,50
1766015954.164067,53
1766015954.16505,49
1766015954.1660569,48
1766015954.167045,49
1766015954.168014,50
1766015954.169067,49
1766015954.170052,47
1766015954.1710238,50
1766015954.172021,50
1766015954.1730208,48
1766015954.174037,49
1766015954.175073,48
1766015954.176037,49
1766015954.177033,51
1766015954.178056,52
1766015954.179051,51
1766015954.18005,49
1766015954.181061,49
1766015954.182077,50
1766015954.183093,48
1766015954.184093,50
1766015954.1850638,47
1766015954.186095,47
1766015954.187079,49
1766015954.1880891,51
1766015954.189088,48
1766015954.19009,49
1766015954.191089,47
1766015954.192092,48
1766015954.1930811,50
1766015954.19411,46
1766015954.195101,48
1766015954.1961238,46
1766015954.19711,48
1766015954.198119,49
1766015954.199105,48
1766015954.200154,47
1766015954.2011409,45
1766015954.202128,47
1766015954.203151,48
1766015954.2041442,46
1766015954.20513,47
1766015954.206135,46
1766015954.207156,45
1766015954.2081869,45
1766015954.209167,44
1766015954.210156,44
1766015954.211166,45
1766015954.212148,45
1766015954.213145,46
1766015954.2141461,45
1766015954.2151701,45
1766015954.216179,42
1766015954.2171679,45
1766015954.2181802,41
1766015954.219172,46
1766015954.2202082,43
1766015954.221193,40
1766015954.222192,43
1766015954.223221,43
1766015954.224221,44
1766015954.225167,41
1766015954.226194,41
1766015954.227178,40
1766015954.228193,43
1766015954.229184,44
1766015954.230198,40
1766015954.231213,43
1766015954.2322052,45
1766015954.233206,44
1766015954.234206,41
1766015954.235211,40
1766015954.236232,43
1766015954.237221,44
1766015954.238233,42
1766015954.239237,39
1766015954.24025,39
1766015954.241239,43
1766015954.242253,45
1766015954.2433019,43
1766015954.2442849,44
1766015954.245287,41
1766015954.2463,42
1766015954.247301,41
1766015954.2483,41
1766015954.249301,41
1766015954.250287,41
1766015954.2513301,41
1766015954.252307,41
1766015954.253301,42
1766015954.254299,39
1766015954.255292,40
1766015954.256298,38
1766015954.2573051,40
1766015954.2582772,40
1766015954.259295,39
1766015954.260304,39
1766015954.26139,39
1766015954.2623098,39
1766015954.263306,40
1766015954.264309,35
1766015954.2653031,40
1766015954.266298,39
1766015954.267309,38
1766015954.268329,37
1766015954.2693179,38
1766015954.270313,38
1766015954.2713332,39
1766015954.272345,36
1766015954.273338,40
1766015954.274324,34
1766015954.275418,38
1766015954.276361,38
1766015954.2773278,33
1766015954.2783391,35
1766015954.279354,36
1766015954.280405,39
1766015954.281378,36
1766015954.282402,36
1766015954.2833679,40
1766015954.284388,37
1766015954.28544,38
1766015954.286417,38
1766015954.2873979,37
1766015954.28839,38
1766015954.289438,42
1766015954.290411,39
1766015954.291415,39
1766015954.292366,37
1766015954.293376,36
1766015954.294416,40
1766015954.2954109,41
1766015954.296391,43
1766015954.297408,43
1766015954.2984161,43
1766015954.299416,44
1766015954.3004348,43
1766015954.301428,45
1766015954.302401,42
1766015954.3034189,44
1766015954.304446,47
1766015954.305421,44
1766015954.306408,45
1766015954.3074298,45
1766015954.308467,48
1766015954.3094301,43
1766015954.3104231,46
1766015954.311446,46
1766015954.312456,49
1766015954.3134341,48
1766015954.314475,51
1766015954.315441,47
1766015954.31645,49
1766015954.317478,46
1766015954.3184772,49
1766015954.319454,47
1766015954.3204741,48
1766015954.3214521,47
1766015954.322465,50
1766015954.3234718,46
1766015954.324482,46
1766015954.325496,47
1766015954.326485,47
1766015954.3275352,47
1766015954.328522,43
1766015954.329498,44
1766015954.330497,46
1766015954.3315,44
1766015954.3325498,44
1766015954.333518,47
1766015954.334508,48
1766015954.335513,47
1766015954.336511,46
1766015954.337514,46
1766015954.338523,45
1766015954.3395278,46
1766015954.340519,44
1766015954.3415139,46
1766015954.342527,44
1766015954.343543,45
1766015954.344548,45
1766015954.3455439,43
1766015954.346573,41
1766015954.347584,43
1766015954.348555,43
1766015954.349557,45
1766015954.3505611,43
1766015954.351566,44
1766015954.3525739,42
1766015954.3535712,41
1766015954.354572,43
1766015954.355562,43
1766015954.356589,45
1766015954.357586,42
1766015954.3585851,44
1766015954.359581,44
1766015954.360577,44
1766015954.361589,41
1766015954.362589,44
1766015954.363594,43
1766015954.3646011,39
1766015954.365609,42
1766015954.366614,45
1766015954.3676128,45
1766015954.3686159,40
1766015954.3696032,42
1766015954.370665,41
1766015954.3716,43
1766015954.3726258,43
1766015954.37363,39
1766015954.374627,42
1766015954.375621,41
1766015954.3766341,37
1766015954.377643,40
1766015954.378627,38
1766015954.37963,43
1766015954.380651,37
1766015954.381643,38
1766015954.382658,39
1766015954.383651,38
1766015954.384659,41
1766015954.385668,38
1766015954.3866408,40
1766015954.387667,38
1766015954.388661,39
1766015954.3896651,39
1766015954.390669,38
1766015954.391663,37
1766015954.392689,37
1766015954.39369,38
1766015954.3946612,37
1766015954.3956852,35
1766015954.396684,40
1766015954.397703,36
1766015954.39869,36
1766015954.399689,38
1766015954.400706,35
1766015954.401706,39
1766015954.402713,35
1766015954.403706,36
1766015954.404712,34
1766015954.4057028,35
1766015954.406711,37
1766015954.407718,36
1766015954.4087229,37
1766015954.409732,39
1766015954.410719,38
1766015954.411725,36
1766015954.4127328,37
1766015954.413785,38
1766015954.4147358,37
1766015954.415762,39
1766015954.416744,38
1766015954.417748,39
1766015954.418756,38
1766015954.419756,40
1766015954.420768,40
1766015954.421769,41
1766015954.422768,38
1766015954.4237728,39
1766015954.424778,42
1766015954.425781,38
1766015954.426773,41
1766015954.427787,41
1766015954.4287832,39
1766015954.4297931,40
1766015954.4307861,39
1766015954.431852,41
1766015954.432816,40
1766015954.433814,38
1766015954.434807,39
1766015954.4358,37
1766015954.436809,40
1766015954.437799,38
1766015954.4388852,40
1766015954.439884,37
1766015954.440882,38
1766015954.441801,39
1766015954.4428911,38
1766015954.443889,38
1766015954.444874,38
1766015954.445886,34
1766015954.446883,36
1766015954.447888,37
1766015954.448881,37
1766015954.449873,37
1766015954.450903,35
1766015954.4518862,36
1766015954.452922,37
1766015954.453892,34
1766015954.454889,34
1766015954.455891,37
1766015954.456888,38
1766015954.4579022,37
1766015954.458941,39
1766015954.459873,37
1766015954.460864,36
1766015954.4618728,39
1766015954.4628742,35
1766015954.4638898,37
1766015954.4648929,35
1766015954.4658911,38
1766015954.466888,34
1766015954.467936,36
1766015954.468873,33
1766015954.469881,34
1766015954.4709089,40
1766015954.471905,39
1766015954.472876,36
1766015954.4739158,37
1766015954.474889,34
1766015954.475928,37
1766015954.476917,37
1766015954.477951,38
1766015954.478914,35
1766015954.4799051,35
1766015954.480938,34
1766015954.481944,36
1766015954.482921,34
1766015954.483922,37
1766015954.4849339,30
1766015954.4859352,34
1766015954.486934,38
1766015954.4879591,36
1766015954.4889522,33
1766015954.489922,32
1766015954.490931,33
1766015954.4919438,32
1766015954.492959,33
1766015954.4939399,34
1766015954.4949582,31
1766015954.4960032,36
1766015954.497001,35
1766015954.4979699,33
1766015954.4989629,35
1766015954.500003,33
1766015954.500989,33
1766015954.501958,35
1766015954.502978,35
1766015954.5039942,32
1766015954.504993,31
1766015954.506021,35
1766015954.507007,32
1766015954.508019,35
1766015954.508986,33
1766015954.51003,31
1766015954.5110028,33
1766015954.5119932,35
1766015954.51299,36
1766015954.514,36
1766015954.5150678,33
1766015954.516054,34
1766015954.5170271,36
1766015954.518034,38
1766015954.5190039,38
1766015954.520098,37
1766015954.521009,38
1766015954.522023,35
1766015954.5230389,35
1766015954.524033,35
1766015954.5250401,38
1766015954.5260422,37
1766015954.527049,35
1766015954.528074,35
1766015954.529071,36
1766015954.530068,37
1766015954.531052,34
1766015954.53205,37
1766015954.533053,36
1766015954.5340748,33
1766015954.535074,34
1766015954.5360892,37
1766015954.5370722,31
1766015954.538091,35
1766015954.539101,34
1766015954.540079,36
1766015954.5411031,33
1766015954.542115,38
1766015954.543095,37
1766015954.544092,35
1766015954.5451,32
1766015954.5461252,33
1766015954.547116,31
1766015954.548117,36
1766015954.549122,35
1766015954.5501142,32
1766015954.551126,33
1766015954.5521228,31
1766015954.553118,33
1766015954.554133,33
1766015954.555151,35
1766015954.5561469,33
1766015954.557152,33
1766015954.558135,33
1766015954.55915,35
1766015954.560205,34
1766015954.561147,34
1766015954.5621812,35
1766015954.56317,31
1766015954.564159,35
1766015954.565164,32
1766015954.566158,33
1766015954.5671701,32
1766015954.568175,31
1766015954.5692081,34
1766015954.570185,34
1766015954.571168,34
1766015954.572159,33
1766015954.5731819,32
1766015954.574191,32
1766015954.57519,31
1766015954.5761971,31
1766015954.5771892,32
1766015954.578182,34
1766015954.579207,32
1766015954.580221,32
1766015954.581224,28
1766015954.5822148,32
1766015954.583224,32
1766015954.58422,32
1766015954.585223,33
1766015954.5862138,31
1766015954.587255,32
1766015954.5882208,35
1766015954.589216,33
1766015954.590236,31
1766015954.591263,31
1766015954.5922592,29
1766015954.5932631,31
1766015954.594223,31
1766015954.595259,33
1766015954.596249,32
1766015954.597259,29
1766015954.598312,29
1766015954.599256,32
1766015954.600276,33
1766015954.601272,33
1766015954.602282,34
1766015954.6032698,32
1766015954.604291,34
1766015954.605348,34
1766015954.606315,32
1766015954.607372,33
1766015954.608317,35
1766015954.6092942,33
1766015954.610292,33
1766015954.611294,31
1766015954.612318,32
1766015954.613296,31
1766015954.614322,34
1766015954.6153312,30
1766015954.6163058,32
1766015954.617333,29
1766015954.618307,33
1766015954.619359,34
1766015954.620362,31
1766015954.621363,30
1766015954.622347,29
1766015954.6233249,31
1766015954.6243358,34
1766015954.6253362,30
1766015954.626341,32
1766015954.6273391,31
1766015954.628314,33
1766015954.629367,31
1766015954.6303449,30
1766015954.6313431,30
1766015954.632349,33
1766015954.633354,33
1766015954.634367,30
1766015954.635356,32
1766015954.636341,31
1766015954.637364,29
1766015954.638369,30
1766015954.6393669,30
1766015954.640378,32
1766015954.641387,31
1766015954.642436,34
1766015954.643418,34
1766015954.644393,34
1766015954.645395,33
1766015954.6464,35
1766015954.6473799,32
1766015954.648399,36
1766015954.649398,35
1766015954.650408,33
1766015954.651409,33
1766015954.6524081,35
1766015954.653418,34
1766015954.654409,38
1766015954.655424,34
1766015954.656428,36
1766015954.6574259,32
1766015954.658426,36
1766015954.6594272,36
1766015954.660442,36
1766015954.6614232,33
1766015954.662442,34
1766015954.663479,34
1766015954.664442,37
1766015954.665442,34
1766015954.6664572,33
1766015954.667448,32
1766015954.668451,33
1766015954.669475,32
1766015954.670451,36
1766015954.671475,33
1766015954.6724741,36
1766015954.673484,35
1766015954.6744719,30
1766015954.675477,36
1766015954.676477,32
1766015954.677506,34
1766015954.6785269,33
1766015954.679497,32
1766015954.680483,32
1766015954.681507,34
1766015954.682509,35
1766015954.68351,34
1766015954.6845078,32
1766015954.6855109,34
1766015954.686516,32
1766015954.6875038,33
1766015954.688503,36
1766015954.689543,34
1766015954.690511,33
1766015954.6915069,33
1766015954.692533,31
1766015954.693535,33
1766015954.69454,33
1766015954.6955462,35
1766015954.696547,33
1766015954.6975482,35
1766015954.69855,30
1766015954.699546,34
1766015954.7005398,32
1766015954.701542,32
1766015954.702563,31
1766015954.7035468,33
1766015954.7045681,33
1766015954.705566,31
1766015954.7065759,29
1766015954.7076302,34
1766015954.708651,36
1766015954.709614,31
1766015954.710596,37
1766015954.711574,36
1766015954.712607,34
1766015954.713593,34
1766015954.714588,35
1766015954.715582,34
1766015954.716583,37
1766015954.717611,33
1766015954.718602,35
1766015954.719599,34
1766015954.720597,35
1766015954.721605,37
1766015954.722605,35
1766015954.72365,38
1766015954.7246568,38
1766015954.725632,38
1766015954.72666,34
1766015954.727702,35
1766015954.7286441,35
1766015954.729666,36
1766015954.7306612,38
1766015954.7316658,35
1766015954.732648,35
1766015954.7337239,34
1766015954.734724,33
1766015954.7357,35
1766015954.736694,34
1766015954.73774,36
1766015954.738705,34
1766015954.739702,36
1766015954.74072,36
1766015954.741753,36
1766015954.742715,35
1766015954.743707,33
1766015954.74469,35
1766015954.745764,35
1766015954.746732,34
1766015954.747735,35
1766015954.7487202,36
1766015954.74976,36
1766015954.750745,35
1766015954.7517362,39
1766015954.7527082,35
1766015954.7537768,37
