timestamp,emg_value
1766015924.09216,56
1766015924.092221,58
1766015924.0922308,57
1766015924.0922399,55
1766015924.092248,54
1766015924.092257,53
1766015924.092266,53
1766015924.092274,52
1766015924.092282,55
1766015924.092291,52
1766015924.092299,51
1766015924.0923069,52
1766015924.092315,49
1766015924.092324,48
1766015924.0923321,52
1766015924.09234,51
1766015924.0923488,49
1766015924.0923572,50
1766015924.092366,50
1766015924.092374,51
1766015924.092382,51
1766015924.0923898,51
1766015924.0923991,49
1766015924.092407,49
1766015924.092415,52
1766015924.092424,53
1766015924.0924318,50
1766015924.0924401,49
1766015924.092448,51
1766015924.0924559,52
1766015924.0924642,54
1766015924.092473,51
1766015924.0924869,52
1766015924.0924969,55
1766015924.092505,53
1766015924.092513,52
1766015924.092521,52
1766015924.09253,52
1766015924.092546,53
1766015924.092554,53
1766015924.092562,53
1766015924.0925708,50
1766015924.0925791,51
1766015924.092587,53
1766015924.092596,53
1766015924.092604,51
1766015924.092612,52
1766015924.0926201,51
1766015924.092628,50
1766015924.0926359,53
1766015924.0926452,50
1766015924.092653,53
1766015924.092661,53
1766015924.092674,52
1766015924.092682,53
1766015924.09269,51
1766015924.092698,50
1766015924.0927072,52
1766015924.092715,54
1766015924.092723,50
1766015924.092731,51
1766015924.092739,49
1766015924.092747,51
1766015924.0927548,51
1766015924.092763,51
1766015924.0927758,53
1766015924.092785,54
1766015924.092793,53
1766015924.092801,52
1766015924.092809,52
1766015924.092818,49
1766015924.0928261,53
1766015924.092834,51
1766015924.092842,53
1766015924.092851,50
1766015924.0928588,51
1766015924.0928671,54
1766015924.0928771,54
1766015924.092885,51
1766015924.092893,53
1766015924.0929012,50
1766015924.092909,51
1766015924.092918,52
1766015924.092926,51
1766015924.092934,48
1766015924.092942,50
1766015924.09295,51
1766015924.092959,49
1766015924.0929668,47
1766015924.0929751,48
1766015924.092983,45
1766015924.0929909,49
1766015924.093,47
1766015924.0930078,49
1766015924.093017,44
1766015924.093025,45
1766015924.093033,47
1766015924.093041,48
1766015924.093052,47
1766015924.09306,48
1766015924.093069,45
1766015924.093077,45
1766015924.0930848,46
1766015924.0930932,48
1766015924.093101,46
1766015924.09311,45
1766015924.093118,47
1766015924.0931258,46
1766015924.0931342,47
1766015924.0931442,46
1766015924.093152,47
1766015924.09316,44
1766015924.093168,46
1766015924.0931761,49
1766015924.093184,46
1766015924.0931919,48
1766015924.0932,45
1766015924.093208,42
1766015924.0932171,45
1766015924.093225,45
1766015924.0932329,45
1766015924.093241,47
1766015924.093249,45
1766015924.093257,46
1766015924.0932648,44
1766015924.0932732,46
1766015924.093282,46
1766015924.09329,46
1766015924.093298,46
1766015924.093308,44
1766015924.093316,44
1766015924.093327,43
1766015924.0933352,44
1766015924.093343,45
1766015924.093351,41
1766015924.093359,43
1766015924.093367,41
1766015924.093375,43
1766015924.093384,40
1766015924.093392,36
1766015924.0934,43
1766015924.093408,41
1766015924.093416,40
1766015924.093424,39
1766015924.093432,40
1766015924.09344,39
1766015924.093448,40
1766015924.0934558,41
1766015924.0934641,40
1766015924.093473,40
1766015924.093481,41
1766015924.093489,41
1766015924.093497,42
1766015924.093505,41
1766015924.093513,42
1766015924.0935209,40
1766015924.093529,42
1766015924.093537,41
1766015924.093546,40
1766015924.093554,41
1766015924.0935621,42
1766015924.09357,42
1766015924.093578,38
1766015924.093586,40
1766015924.093596,43
1766015924.093605,47
1766015924.0936131,49
1766015924.093621,43
1766015924.093629,47
1766015924.0936372,47
1766015924.093645,47
1766015924.093653,49
1766015924.093662,46
1766015924.09367,46
1766015924.093678,46
1766015924.093687,48
1766015924.093695,48
1766015924.0937028,49
1766015924.0937111,44
1766015924.093719,45
1766015924.0937269,50
1766015924.093735,45
1766015924.093743,48
1766015924.0937521,45
1766015924.09376,45
1766015924.093768,46
1766015924.093776,46
1766015924.093785,46
1766015924.093793,48
1766015924.093801,44
1766015924.093809,47
1766015924.093817,46
1766015924.093825,49
1766015924.093834,45
1766015924.093842,47
1766015924.0938501,43
1766015924.093858,44
1766015924.093868,46
1766015924.093877,44
1766015924.093885,44
1766015924.093893,46
1766015924.0939,44
1766015924.093908,45
1766015924.093917,43
1766015924.0939252,42
1766015924.093933,45
1766015924.093941,42
1766015924.0939488,44
1766015924.0939572,40
1766015924.093965,42
1766015924.093973,42
1766015924.093981,42
1766015924.0939891,41
1766015924.093997,43
1766015924.094005,41
1766015924.094013,39
1766015924.0940218,41
1766015924.0940301,40
1766015924.094038,42
1766015924.0940459,42
1766015924.094054,42
1766015924.094062,44
1766015924.0940711,37
1766015924.094079,39
1766015924.094087,42
1766015924.094095,41
1766015924.094103,39
1766015924.094111,41
1766015924.0941188,41
1766015924.0941272,41
1766015924.0941381,40
1766015924.094146,39
1766015924.094154,40
1766015924.094163,40
1766015924.0941708,43
1766015924.0941792,41
1766015924.094187,42
1766015924.094195,40
1766015924.094204,41
1766015924.094212,37
1766015924.09422,42
1766015924.094228,39
1766015924.094236,41
1766015924.094244,38
1766015924.094252,38
1766015924.09426,39
1766015924.094269,41
1766015924.0942771,43
1766015924.094285,45
1766015924.0942929,43
1766015924.094301,44
1766015924.094309,45
1766015924.094317,48
1766015924.094326,44
1766015924.094334,45
1766015924.094342,45
1766015924.09435,46
1766015924.094358,44
1766015924.0943658,44
1766015924.094375,44
1766015924.094383,46
1766015924.094391,44
1766015924.094399,45
1766015924.094411,45
1766015924.094419,44
1766015924.0944269,45
1766015924.094435,44
1766015924.094444,42
1766015924.094452,43
1766015924.0944588,44
1766015924.094466,42
1766015924.094473,43
1766015924.094481,44
1766015924.0944881,44
1766015924.094495,43
1766015924.094503,40
1766015924.09451,42
1766015924.094517,43
1766015924.094524,42
1766015924.094532,43
1766015924.094539,43
1766015924.0945458,40
1766015924.0945542,44
1766015924.094561,43
1766015924.094568,45
1766015924.0945761,44
1766015924.094583,43
1766015924.09459,44
1766015924.094597,47
1766015924.094605,45
1766015924.094612,42
1766015924.09462,44
1766015924.0946271,41
1766015924.094634,43
1766015924.094642,43
1766015924.09465,43
1766015924.094659,44
1766015924.094666,42
1766015924.094673,43
1766015924.094681,42
1766015924.094688,43
1766015924.0947351,39
1766015924.094792,43
1766015924.094806,39
1766015924.094839,42
1766015924.094849,39
1766015924.094857,37
1766015924.094864,39
1766015924.094872,41
1766015924.09488,35
1766015924.094888,39
1766015924.0948951,38
1766015924.094902,38
1766015924.09491,40
1766015924.094917,36
1766015924.094924,37
1766015924.094931,35
1766015924.094939,39
1766015924.0949461,39
1766015924.094953,37
1766015924.094961,36
1766015924.094968,39
1766015924.094976,35
1766015924.0949829,36
1766015924.09499,36
1766015924.0949981,37
1766015924.095005,34
1766015924.0950122,32
1766015924.095022,34
1766015924.095031,35
1766015924.095038,36
1766015924.095045,35
1766015924.095053,34
1766015924.0950599,32
1766015924.0950668,32
1766015924.0950751,32
1766015924.095082,35
1766015924.095089,32
1766015924.095128,32
1766015924.095136,34
1766015924.0951428,33
1766015924.0951512,31
1766015924.095158,32
1766015924.095165,32
1766015924.0951731,34
1766015924.095181,34
1766015924.095189,32
1766015924.095196,31
1766015924.0952032,33
1766015924.095211,31
1766015924.095218,32
1766015924.095225,34
1766015924.095233,31
1766015924.095241,30
1766015924.095248,32
1766015924.0952551,32
1766015924.095263,33
1766015924.09527,33
1766015924.095277,31
1766015924.095285,33
1766015924.0953321,32
1766015924.095351,31
1766015924.095388,33
1766015924.095399,30
1766015924.095409,28
1766015924.095419,29
1766015924.095447,29
1766015924.0954611,28
1766015924.095469,32
1766015924.095476,31
1766015924.095484,30
1766015924.0954912,27
1766015924.095498,29
1766015924.095506,29
1766015924.095513,31
1766015924.095521,29
1766015924.095528,30
1766015924.0955362,31
1766015924.0955431,31
1766015924.095551,32
1766015924.095558,30
1766015924.095565,29
1766015924.095573,29
1766015924.0955799,31
1766015924.0955882,29
1766015924.0955951,30
1766015924.095602,28
1766015924.0956101,30
1766015924.095617,29
1766015924.095624,32
1766015924.0956318,32
1766015924.095639,34
1766015924.095646,31
1766015924.0956538,29
1766015924.095664,30
1766015924.0956721,32
1766015924.09568,32
1766015924.095687,29
1766015924.095695,33
1766015924.095702,30
1766015924.0957088,29
1766015924.095718,31
1766015924.095725,27
1766015924.095733,30
1766015924.0957398,29
1766015924.095747,28
1766015924.095755,30
1766015924.095762,31
1766015924.0957692,29
1766015924.095777,28
1766015924.095784,29
1766015924.095791,30
1766015924.095799,29
1766015924.095806,29
1766015924.095813,26
1766015924.09582,26
1766015924.095828,29
1766015924.095835,29
1766015924.0958421,30
1766015924.09585,27
1766015924.095857,30
1766015924.095865,30
1766015924.095872,29
1766015924.0958788,29
1766015924.0958872,26
1766015924.095894,29
1766015924.095902,27
1766015924.095911,30
1766015924.0959191,29
1766015924.095926,26
1766015924.095934,27
1766015924.095941,28
1766015924.095948,26
1766015924.095956,25
1766015924.0959628,29
1766015924.095971,26
1766015924.095978,27
1766015924.095985,28
1766015924.095993,27
1766015924.096,30
1766015924.0960069,29
1766015924.0960152,32
1766015924.0960221,29
1766015924.09603,29
1766015924.0960371,27
1766015924.096045,29
1766015924.096052,30
1766015924.0960598,26
1766015924.0960672,30
1766015924.0960739,29
1766015924.096082,30
1766015924.0960891,29
1766015924.096096,31
1766015924.096104,30
1766015924.096111,30
1766015924.096118,30
1766015924.096125,28
1766015924.0961332,27
1766015924.0961401,26
1766015924.096148,29
1766015924.0961611,26
1766015924.09617,29
1766015924.0961769,27
1766015924.096184,29
1766015924.096192,27
1766015924.0961988,31
1766015924.0962062,29
1766015924.096213,29
1766015924.096221,29
1766015924.0962281,30
1766015924.096235,27
1766015924.096243,28
1766015924.09625,30
1766015924.096257,31
1766015924.096265,31
1766015924.0962718,32
1766015924.09628,28
1766015924.096287,30
1766015924.0962949,26
1766015924.096341,29
1766015924.096349,27
1766015924.0963562,29
1766015924.096364,30
1766015924.096371,33
1766015924.0963788,32
1766015924.096386,33
1766015924.096394,32
1766015924.096401,33
1766015924.0964081,34
1766015924.096416,34
1766015924.096423,35
1766015924.09643,29
1766015924.096438,31
1766015924.096451,33
1766015924.096459,31
1766015924.096467,33
1766015924.0964742,31
1766015924.096481,33
1766015924.096489,34
1766015924.096496,35
1766015924.096503,33
1766015924.096511,35
1766015924.0965178,36
1766015924.096525,35
1766015924.096533,32
1766015924.09654,32
1766015924.0965471,36
1766015924.096555,33
1766015924.096562,32
1766015924.09657,35
1766015924.096577,31
1766015924.0965838,34
1766015924.096592,32
1766015924.096599,33
1766015924.096606,30
1766015924.096614,32
1766015924.096621,32
1766015924.096628,34
1766015924.0966358,36
1766015924.096643,32
1766015924.09665,34
1766015924.096658,36
1766015924.096666,34
1766015924.096673,34
1766015924.0966809,35
1766015924.096688,36
1766015924.096697,32
1766015924.096705,31
1766015924.096713,34
1766015924.09672,36
1766015924.096728,29
1766015924.096735,34
1766015924.096742,33
1766015924.09675,32
1766015924.096757,32
1766015924.0967638,32
1766015924.0967722,33
1766015924.096779,30
1766015924.096786,32
1766015924.0967941,32
1766015924.096801,32
1766015924.096808,36
1766015924.096816,31
1766015924.096823,35
1766015924.09683,32
1766015924.096838,34
1766015924.0968451,36
1766015924.096852,33
1766015924.09686,33
1766015924.096867,33
1766015924.096874,34
1766015924.0968819,34
1766015924.096889,37
1766015924.0969212,37
1766015924.096928,39
1766015924.0969348,41
1766015924.0969431,40
1766015924.09695,46
1766015924.096957,44
1766015924.096967,46
1766015924.096975,43
1766015924.096982,46
1766015924.0969899,53
1766015924.096997,51
1766015924.097004,53
1766015924.097012,54
1766015924.097019,52
1766015924.097026,51
1766015924.097034,54
1766015924.097041,54
1766015924.097048,52
1766015924.097056,54
1766015924.0970628,55
1766015924.09707,55
1766015924.097077,57
1766015924.097085,61
1766015924.0970922,63
1766015924.0971,65
1766015924.097107,66
1766015924.097114,65
1766015924.097122,62
1766015924.0971289,68
1766015924.097136,60
1766015924.0971441,63
1766015924.097151,67
1766015924.097159,66
1766015924.097166,66
1766015924.097173,68
1766015924.0971808,73
1766015924.097188,75
1766015924.097195,73
1766015924.0972018,73
1766015924.097213,74
1766015924.0972202,74
1766015924.097228,75
1766015924.097235,69
1766015924.097242,71
1766015924.097249,72
1766015924.097257,70
1766015924.097264,67
1766015924.0972722,69
1766015924.097279,70
1766015924.097286,66
1766015924.097294,66
1766015924.097301,68
1766015924.097308,66
1766015924.097316,66
1766015924.097323,66
1766015924.0973299,63
1766015924.097337,64
1766015924.097344,66
1766015924.097352,65
1766015924.0973592,66
1766015924.0974112,64
1766015924.097461,64
1766015924.097473,63
1766015924.097483,64
1766015924.097492,63
1766015924.097522,63
1766015924.097536,64
1766015924.097544,61
1766015924.097551,60
1766015924.097559,62
1766015924.097566,63
1766015924.097576,66
1766015924.097584,65
1766015924.097591,63
1766015924.097599,63
1766015924.097606,65
1766015924.097614,62
1766015924.097621,67
1766015924.0976288,63
1766015924.097636,61
1766015924.097644,61
1766015924.097651,63
1766015924.0976582,62
1766015924.097666,66
1766015924.097673,64
1766015924.0976808,66
1766015924.097688,64
1766015924.0976949,64
1766015924.097703,66
1766015924.0977101,67
1766015924.097717,61
1766015924.097725,65
1766015924.097732,65
1766015924.09774,65
1766015924.0977468,61
1766015924.097754,62
1766015924.097762,62
1766015924.097769,63
1766015924.0977762,63
1766015924.097784,61
1766015924.097791,59
1766015924.0977979,63
1766015924.097806,61
1766015924.097813,61
1766015924.097822,60
1766015924.097831,59
1766015924.0978382,61
1766015924.097845,59
1766015924.097853,61
1766015924.097861,63
1766015924.097868,62
1766015924.0978749,60
1766015924.097883,61
1766015924.0978901,57
1766015924.097898,58
1766015924.097905,58
1766015924.097912,57
1766015924.09792,57
1766015924.0979269,56
1766015924.0979352,56
1766015924.097943,61
1766015924.097951,62
1766015924.0979578,61
1766015924.097965,61
1766015924.097972,63
1766015924.09798,60
1766015924.0979872,62
1766015924.097994,63
1766015924.098001,64
1766015924.098009,62
1766015924.098016,66
1766015924.098023,66
1766015924.098031,64
1766015924.098038,64
1766015924.0980449,63
1766015924.0980532,60
1766015924.0980601,63
1766015924.098069,63
1766015924.098078,63
1766015924.0980852,60
1766015924.098093,59
1766015924.0981,61
1766015924.098109,61
1766015924.098117,59
1766015924.098124,60
1766015924.098132,59
1766015924.0981388,60
1766015924.098146,60
1766015924.0981529,62
1766015924.098161,61
1766015924.0981681,62
1766015924.098176,62
1766015924.098183,60
1766015924.09819,60
1766015924.098198,59
1766015924.0982049,63
1766015924.098212,63
1766015924.09822,61
1766015924.098227,60
1766015924.0982342,58
1766015924.098241,60
1766015924.098249,61
1766015924.0982559,59
1766015924.098264,59
1766015924.098271,57
1766015924.0982778,62
1766015924.0982862,61
1766015924.098293,59
1766015924.0983,58
1766015924.098308,59
1766015924.0983171,57
1766015924.098325,58
1766015924.098332,59
1766015924.098339,58
1766015924.098347,59
1766015924.0983539,57
1766015924.0983622,58
1766015924.0983691,57
1766015924.098376,57
1766015924.0983832,55
1766015924.098391,56
1766015924.098398,55
1766015924.0984051,55
1766015924.098412,56
1766015924.09842,57
1766015924.0984268,54
1766015924.098434,57
1766015924.098442,55
1766015924.098449,56
1766015924.098457,55
1766015924.098464,56
1766015924.0984719,56
1766015924.098479,52
1766015924.098486,55
1766015924.098494,53
1766015924.0985012,54
1766015924.0985081,52
1766015924.098516,55
1766015924.098523,53
1766015924.09853,55
1766015924.098538,56
1766015924.0985448,53
1766015924.098552,55
1766015924.098562,51
1766015924.0985699,54
1766015924.098578,55
1766015924.0985851,56
1766015924.098593,52
1766015924.0986,53
1766015924.098607,55
1766015924.098615,54
1766015924.0986218,53
1766015924.0986292,55
1766015924.098654,54
1766015924.098752,51
1766015924.0987961,54
1766015924.098807,54
1766015924.098818,54
1766015924.09883,52
1766015924.09884,55
1766015924.098851,52
1766015924.098861,54
1766015924.098871,54
1766015924.098881,53
1766015924.098891,52
1766015924.098902,53
1766015924.098912,50
1766015924.098934,50
1766015924.098942,53
1766015924.09895,53
1766015924.098957,51
1766015924.098965,52
1766015924.0989718,52
1766015924.0989802,52
1766015924.098987,51
1766015924.098994,53
1766015924.0990021,54
1766015924.0990138,53
1766015924.099021,55
1766015924.099029,55
1766015924.099036,52
1766015924.099044,51
1766015924.099051,51
1766015924.099058,55
1766015924.099066,51
1766015924.099073,54
1766015924.0990798,53
1766015924.099088,54
1766015924.099096,53
1766015924.099103,52
1766015924.0991108,54
1766015924.099118,52
1766015924.099126,51
1766015924.099133,53
1766015924.0991402,54
1766015924.099148,53
1766015924.099155,54
1766015924.099162,50
1766015924.099169,50
1766015924.099177,50
1766015924.099184,51
1766015924.099204,52
1766015924.099217,52
1766015924.099225,50
1766015924.099233,49
1766015924.0992398,50
1766015924.0992482,52
1766015924.099255,49
1766015924.099263,54
1766015924.0992699,50
1766015924.0992808,52
1766015924.099288,53
1766015924.099296,51
1766015924.099303,50
1766015924.0993102,50
1766015924.099318,54
1766015924.099325,52
1766015924.099332,52
1766015924.09934,51
1766015924.0993469,50
1766015924.099354,49
1766015924.0993621,53
1766015924.099369,52
1766015924.0993762,50
1766015924.099384,52
1766015924.099391,54
1766015924.099398,48
1766015924.099406,52
1766015924.099413,51
1766015924.099421,54
1766015924.0994282,52
1766015924.099469,53
1766015924.0994911,51
1766015924.0995011,48
1766015924.0995111,52
1766015924.099521,48
1766015924.099531,48
1766015924.099541,50
1766015924.099553,49
1766015924.099565,52
1766015924.099576,51
1766015924.099587,50
1766015924.0995991,49
1766015924.099614,48
1766015924.099626,47
1766015924.099638,52
1766015924.099649,50
1766015924.099661,50
1766015924.099676,51
1766015924.099686,49
1766015924.0996962,49
1766015924.099707,48
1766015924.0997171,48
1766015924.0997272,48
1766015924.0997388,46
1766015924.099749,50
1766015924.09976,50
1766015924.09977,48
1766015924.09978,47
1766015924.09979,46
1766015924.0998,47
1766015924.0998101,49
1766015924.0998201,49
1766015924.099831,48
1766015924.099841,47
1766015924.099851,46
1766015924.099861,45
1766015924.099885,45
1766015924.099895,48
1766015924.0999029,47
1766015924.0999098,46
1766015924.0999181,46
1766015924.099925,48
1766015924.099933,43
1766015924.09994,45
1766015924.0999491,46
1766015924.099958,44
1766015924.0999649,44
1766015924.0999732,47
1766015924.09998,47
1766015924.099988,46
1766015924.099995,46
1766015924.100002,44
1766015924.10001,45
1766015924.1000168,44
1766015924.100024,43
1766015924.100032,43
1766015924.100039,44
1766015924.1000462,43
1766015924.100054,43
1766015924.100061,44
1766015924.100069,45
1766015924.100076,43
1766015924.1000829,44
1766015924.100091,42
1766015924.1000981,41
1766015924.100106,43
1766015924.100113,41
1766015924.10012,40
1766015924.100128,42
1766015924.1001348,42
1766015924.100142,41
1766015924.10015,41
1766015924.100157,42
1766015924.1001642,41
1766015924.100172,37
1766015924.100179,41
1766015924.100186,40
1766015924.1001952,41
1766015924.100204,39
1766015924.100211,39
1766015924.100218,39
1766015924.100225,39
1766015924.100233,40
1766015924.1002398,40
1766015924.1002471,38
1766015924.100255,40
1766015924.100262,38
1766015924.100269,38
1766015924.100277,36
1766015924.1002839,38
1766015924.100291,36
1766015924.1002991,33
1766015924.100306,34
1766015924.1003132,36
1766015924.100321,36
1766015924.100328,36
1766015924.1003351,34
1766015924.100343,37
1766015924.10035,34
1766015924.100357,34
1766015924.100364,38
1766015924.100372,38
1766015924.100379,34
1766015924.100385,36
1766015924.1003919,38
1766015924.100398,35
1766015924.100405,35
1766015924.100412,34
1766015924.100418,34
1766015924.100425,32
1766015924.1004329,36
1766015924.100441,36
1766015924.100448,33
1766015924.1004539,35
1766015924.100461,33
1766015924.100468,33
1766015924.100474,35
1766015924.100481,31
1766015924.100488,33
1766015924.1004941,31
1766015924.100501,31
1766015924.1005068,35
1766015924.100514,34
1766015924.1005208,34
1766015924.100527,33
1766015924.100534,33
1766015924.1005409,32
1766015924.100548,31
1766015924.100555,33
1766015924.100563,32
1766015924.1005702,31
1766015924.100576,31
1766015924.1005828,30
1766015924.10059,30
1766015924.100596,30
1766015924.1006029,32
1766015924.100609,30
1766015924.100616,32
1766015924.1006231,32
1766015924.100629,32
1766015924.100636,31
1766015924.1006432,30
1766015924.1006489,32
1766015924.100658,31
1766015924.100665,33
1766015924.100672,31
1766015924.100678,28
1766015924.1006851,32
1766015924.100692,32
1766015924.100698,29
1766015924.100705,31
1766015924.1007109,32
1766015924.100718,33
1766015924.100725,33
1766015924.1007318,30
1766015924.100738,33
1766015924.100745,29
1766015924.1007512,31
1766015924.100758,34
1766015924.100765,34
1766015924.1007712,32
1766015924.100778,33
1766015924.1007848,34
1766015924.100791,31
1766015924.100798,30
1766015924.100804,29
1766015924.100811,29
1766015924.100818,31
1766015924.100824,32
1766015924.100831,34
1766015924.100838,32
1766015924.1008441,28
1766015924.100851,32
1766015924.100857,33
1766015924.100864,33
1766015924.1008708,29
1766015924.1008792,31
1766015924.100886,32
1766015924.100893,30
1766015924.1009002,30
1766015924.100906,31
1766015924.1009128,33
1766015924.10092,31
1766015924.100926,28
1766015924.100933,30
1766015924.100939,29
1766015924.100946,30
1766015924.100953,29
1766015924.100959,29
1766015924.100966,29
1766015924.1009731,28
1766015924.1009789,29
1766015924.100986,28
1766015924.100993,28
1766015924.1009989,26
1766015924.101006,28
1766015924.101012,31
1766015924.101019,28
1766015924.101026,28
1766015924.101032,27
1766015924.1010392,29
1766015924.101046,28
1766015924.1010518,29
1766015924.101059,25
1766015924.101065,28
1766015924.1010718,31
1766015924.101079,27
1766015924.101085,28
1766015924.101092,27
1766015924.1011012,27
1766015924.101109,27
1766015924.101115,29
1766015924.1011221,28
1766015924.101129,27
1766015924.101135,25
1766015924.101142,28
1766015924.1011488,27
1766015924.101155,27
1766015924.101162,26
1766015924.1011689,25
1766015924.101175,25
1766015924.101182,29
1766015924.1011882,25
1766015924.101195,28
1766015924.101202,28
1766015924.101208,27
1766015924.101215,23
1766015924.1012218,24
1766015924.101228,26
1766015924.101263,25
1766015924.101315,25
1766015924.1013288,25
1766015924.1013398,24
1766015924.1013498,28
1766015924.10136,25
1766015924.10137,24
1766015924.101381,23
1766015924.101394,23
1766015924.101404,21
1766015924.1014369,26
1766015924.10145,26
1766015924.101461,25
1766015924.1014779,24
1766015924.101491,28
1766015924.101514,25
1766015924.101542,23
1766015924.101561,24
1766015924.101572,23
1766015924.101582,27
1766015924.101593,24
1766015924.1016169,26
1766015924.1016252,24
1766015924.101632,28
1766015924.1016378,25
1766015924.101645,30
1766015924.101652,26
1766015924.101658,29
1766015924.101666,24
1766015924.101673,27
1766015924.101679,27
1766015924.101686,26
1766015924.101692,26
1766015924.101699,26
1766015924.101706,25
1766015924.101712,26
1766015924.1017191,27
1766015924.1017249,26
1766015924.101732,25
1766015924.101739,22
1766015924.101771,27
1766015924.101783,25
1766015924.101793,26
1766015924.101803,25
1766015924.101813,26
1766015924.101822,27
1766015924.101836,28
1766015924.1018481,26
1766015924.101859,28
1766015924.1018722,27
1766015924.101883,28
1766015924.1018932,25
1766015924.1019032,25
1766015924.101913,25
1766015924.101923,25
1766015924.101932,26
1766015924.101942,23
1766015924.101952,23
1766015924.101971,23
1766015924.101983,25
1766015924.1020002,27
1766015924.102012,22
1766015924.1020339,25
1766015924.102047,24
1766015924.1020591,27
1766015924.102071,25
1766015924.102082,24
1766015924.1020942,27
1766015924.102106,23
1766015924.1021178,22
1766015924.102133,26
1766015924.102145,29
1766015924.102157,25
1766015924.102169,24
1766015924.10218,28
1766015924.10219,24
1766015924.1022,26
1766015924.10221,25
1766015924.102222,25
1766015924.1022341,27
1766015924.1022458,25
1766015924.102256,25
1766015924.102266,28
1766015924.102276,25
1766015924.1022851,25
1766015924.102298,26
1766015924.102308,24
1766015924.1023202,22
1766015924.1023302,22
1766015924.10234,26
1766015924.10235,23
1766015924.10236,24
1766015924.1023722,23
1766015924.102384,26
1766015924.102396,25
1766015924.102426,24
1766015924.102437,23
1766015924.102447,24
1766015924.102457,22
1766015924.102467,25
1766015924.10248,26
1766015924.1024919,24
1766015924.1025019,23
1766015924.1025121,23
1766015924.1025221,25
1766015924.1025321,25
1766015924.1025422,25
1766015924.1025522,27
1766015924.102562,26
1766015924.102572,22
1766015924.102582,22
1766015924.102592,25
1766015924.102602,22
1766015924.102612,22
1766015924.102622,26
1766015924.102632,23
1766015924.1026418,25
1766015924.1026518,23
1766015924.1026618,21
1766015924.1026719,25
1766015924.1026812,22
1766015924.1026912,26
1766015924.102701,23
1766015924.102711,25
1766015924.102721,22
1766015924.102731,22
1766015924.102741,22
1766015924.102751,23
1766015924.102761,25
1766015924.102771,26
1766015924.1027808,25
1766015924.1027899,21
1766015924.1028,22
1766015924.1028101,25
1766015924.1028202,24
1766015924.1028302,26
1766015924.10284,27
1766015924.10285,22
1766015924.10286,23
1766015924.10287,25
1766015924.10288,20
1766015924.10289,25
1766015924.1029,23
1766015924.10291,24
1766015924.1029198,23
1766015924.1029298,25
1766015924.1029398,24
1766015924.1029499,25
1766015924.1029592,24
1766015924.1029692,23
1766015924.1029792,27
1766015924.102989,27
1766015924.102999,24
1766015924.103009,23
1766015924.103019,23
1766015924.103028,25
1766015924.1030378,22
1766015924.1030478,26
1766015924.1030579,24
1766015924.10307,23
1766015924.103082,25
1766015924.103094,25
1766015924.103104,27
1766015924.103114,27
1766015924.103124,25
1766015924.103134,28
1766015924.103144,25
1766015924.103154,26
1766015924.103164,25
1766015924.103174,25
1766015924.103183,28
1766015924.103193,26
1766015924.103206,25
1766015924.1032162,23
1766015924.103225,26
1766015924.103235,23
1766015924.103245,26
1766015924.103255,25
1766015924.103265,24
1766015924.103275,25
1766015924.103284,26
1766015924.103294,25
1766015924.103304,25
1766015924.103314,23
1766015924.103324,25
1766015924.103334,23
1766015924.103343,25
1766015924.103353,24
1766015924.103363,24
1766015924.103373,24
1766015924.103383,25
1766015924.103392,22
1766015924.103402,21
1766015924.103412,24
1766015924.103422,25
1766015924.103432,23
1766015924.103442,27
1766015924.1034508,29
1766015924.103461,23
1766015924.103471,26
1766015924.103481,23
1766015924.103491,26
1766015924.103501,25
1766015924.103511,26
1766015924.10352,26
1766015924.10353,26
1766015924.10354,29
1766015924.10355,25
1766015924.10356,26
1766015924.10357,26
1766015924.10358,25
1766015924.1035898,27
1766015924.1036,27
1766015924.10361,25
1766015924.10362,26
1766015924.103644,23
1766015924.103651,26
1766015924.103658,24
1766015924.1036649,21
1766015924.103671,25
1766015924.103678,23
1766015924.1036851,24
1766015924.103691,25
1766015924.103698,27
1766015924.1037052,25
1766015924.103711,25
1766015924.1037178,25
1766015924.103724,24
1766015924.103731,26
1766015924.103737,27
1766015924.103744,24
1766015924.10375,25
1766015924.1037571,25
1766015924.103764,25
1766015924.10377,25
1766015924.103777,27
1766015924.103783,25
1766015924.10379,25
1766015924.103797,22
1766015924.103803,25
1766015924.10381,24
1766015924.103817,24
1766015924.103851,25
1766015924.103859,25
1766015924.103866,25
1766015924.103872,28
1766015924.103879,25
1766015924.1038861,26
1766015924.103893,23
1766015924.1039,24
1766015924.103907,27
1766015924.103913,25
1766015924.1039202,25
1766015924.1039271,23
1766015924.103934,25
1766015924.103967,24
1766015924.103992,26
1766015924.1040032,24
1766015924.104026,25
1766015924.104034,26
1766015924.1040409,26
1766015924.104048,24
1766015924.104055,24
1766015924.104061,25
1766015924.104068,26
1766015924.104075,25
1766015924.1040819,22
1766015924.104088,24
1766015924.104095,28
1766015924.104102,26
1766015924.104108,26
1766015924.104115,25
1766015924.1041222,28
1766015924.104128,25
1766015924.1041348,27
1766015924.1041422,25
1766015924.104148,22
1766015924.1041548,27
1766015924.104161,28
1766015924.104168,25
1766015924.104175,25
1766015924.104181,26
1766015924.104188,26
1766015924.1041942,26
1766015924.104201,24
1766015924.1042078,26
1766015924.1042151,24
1766015924.1042209,24
1766015924.104228,23
1766015924.104234,26
1766015924.104241,22
1766015924.104248,24
1766015924.104254,25
1766015924.1042612,26
1766015924.104268,24
1766015924.104274,24
1766015924.1042812,24
1766015924.104287,25
1766015924.1042938,22
1766015924.104301,27
1766015924.104307,25
1766015924.104314,22
1766015924.104321,22
1766015924.104327,24
1766015924.104334,26
1766015924.104341,27
1766015924.104347,22
1766015924.1043541,26
1766015924.1043599,25
1766015924.104367,24
1766015924.104374,25
1766015924.10438,25
1766015924.104387,26
1766015924.104394,23
1766015924.1044,26
1766015924.104407,22
1766015924.1051462,25
1766015924.1061819,25
1766015924.107231,27
1766015924.108187,24
1766015924.109162,27
1766015924.110166,27
1766015924.111182,22
1766015924.112174,24
1766015924.113182,26
1766015924.1141891,24
1766015924.1151721,26
1766015924.116184,27
1766015924.117176,25
1766015924.118171,26
1766015924.119199,23
1766015924.1202502,24
1766015924.121221,26
1766015924.1221929,26
1766015924.123203,28
1766015924.124197,22
1766015924.1251872,25
1766015924.126187,27
1766015924.127208,24
1766015924.128213,23
1766015924.1292071,24
1766015924.130267,24
1766015924.131222,27
1766015924.132255,25
1766015924.1332512,25
1766015924.1342132,25
1766015924.1352189,24
1766015924.1362271,24
1766015924.137253,22
1766015924.138258,23
1766015924.139245,24
1766015924.140258,26
1766015924.141268,25
1766015924.1422698,25
1766015924.1432588,26
1766015924.1442518,25
1766015924.145261,24
1766015924.146274,21
1766015924.147252,25
1766015924.148258,23
1766015924.1492941,25
1766015924.1502872,25
1766015924.1512802,25
1766015924.1522949,21
1766015924.1532822,23
1766015924.154325,25
1766015924.1552908,22
1766015924.1563,23
1766015924.157283,22
1766015924.158307,25
1766015924.159307,22
1766015924.1602938,24
1766015924.161303,25
1766015924.162308,24
1766015924.163305,24
1766015924.164299,23
1766015924.1653209,24
1766015924.166312,23
1766015924.1673138,20
1766015924.168315,22
1766015924.169322,25
1766015924.170333,23
1766015924.1713622,27
1766015924.172333,25
1766015924.1733272,22
1766015924.174332,28
1766015924.175366,20
1766015924.1763468,24
1766015924.177351,23
1766015924.17837,24
1766015924.179384,23
1766015924.1803699,24
1766015924.181358,23
1766015924.1823559,22
1766015924.1833432,23
1766015924.1843572,23
1766015924.185365,25
1766015924.186382,21
1766015924.187447,27
1766015924.18841,25
1766015924.1893919,25
1766015924.1903958,24
1766015924.1914089,24
1766015924.192395,25
1766015924.193393,26
1766015924.1943932,28
1766015924.195414,27
1766015924.1964538,29
1766015924.1974301,33
1766015924.1984231,32
1766015924.199431,34
1766015924.200413,37
1766015924.201428,37
1766015924.202423,41
1766015924.2035892,45
1766015924.2044601,47
1766015924.2054179,51
1766015924.206418,54
1766015924.207428,58
1766015924.20846,71
1766015924.2094579,75
1766015924.210463,80
1766015924.2114828,86
1766015924.212512,88
1766015924.213501,85
1766015924.214474,87
1766015924.2154932,87
1766015924.216483,92
1766015924.217458,95
1766015924.2184498,96
1766015924.219472,96
1766015924.2204869,97
1766015924.221482,98
1766015924.22259,104
1766015924.223642,106
1766015924.224614,111
1766015924.225609,114
1766015924.226548,120
1766015924.227574,124
1766015924.228578,122
1766015924.229584,122
1766015924.230573,122
1766015924.231603,123
1766015924.232631,124
1766015924.233613,128
1766015924.234593,133
1766015924.235605,132
1766015924.236616,133
1766015924.23765,131
1766015924.238631,129
1766015924.23963,131
1766015924.240604,130
1766015924.24162,128
1766015924.2426019,126
1766015924.2436101,128
1766015924.244627,125
1766015924.2456388,128
1766015924.2466571,128
1766015924.247639,128
1766015924.248634,129
1766015924.249623,127
1766015924.250627,129
1766015924.2516139,128
1766015924.252665,127
1766015924.2536378,125
1766015924.254663,124
1766015924.255643,122
1766015924.256659,119
1766015924.257675,119
1766015924.258671,118
1766015924.259655,118
1766015924.2606568,117
1766015924.261683,120
1766015924.262711,124
1766015924.2636878,132
1766015924.264672,147
1766015924.265701,165
1766015924.266691,181
1766015924.267689,195
1766015924.2686899,208
1766015924.269681,214
1766015924.270698,214
1766015924.271691,214
1766015924.272693,220
1766015924.273695,221
1766015924.274709,226
1766015924.27573,225
1766015924.276716,231
1766015924.2777019,231
1766015924.2787101,233
1766015924.279754,231
1766015924.2807198,233
1766015924.281735,230
1766015924.282728,226
1766015924.283725,224
1766015924.284725,220
1766015924.285734,224
1766015924.286773,226
1766015924.287786,234
1766015924.2887738,239
1766015924.289776,248
1766015924.29072,254
1766015924.291732,256
1766015924.292755,257
1766015924.293758,258
1766015924.2947571,256
1766015924.295777,258
1766015924.296782,254
1766015924.297778,261
1766015924.298926,266
1766015924.299794,265
1766015924.30077,265
1766015924.301815,266
1766015924.302798,262
1766015924.30379,259
1766015924.304846,257
1766015924.3058162,257
1766015924.306844,257
1766015924.30787,261
1766015924.308846,266
1766015924.309839,269
1766015924.310878,272
1766015924.311817,271
1766015924.3128572,268
1766015924.31383,266
1766015924.31483,265
1766015924.3158479,262
1766015924.316823,259
1766015924.317827,256
1766015924.3188422,252
1766015924.319844,254
1766015924.3208709,255
1766015924.3218482,252
1766015924.322859,251
1766015924.3238678,254
1766015924.324896,251
1766015924.32592,248
1766015924.3269079,247
1766015924.327911,244
1766015924.328897,245
1766015924.3298728,240
1766015924.3308978,238
1766015924.3318799,235
1766015924.332895,234
1766015924.333895,230
1766015924.334986,227
1766015924.336095,228
1766015924.337057,229
1766015924.33801,227
1766015924.3389912,227
1766015924.339979,226
1766015924.341032,221
1766015924.3419662,220
1766015924.3429708,221
1766015924.343967,228
1766015924.3450181,243
1766015924.34598,255
1766015924.346974,261
1766015924.3479521,260
1766015924.3489761,263
1766015924.3499599,267
1766015924.350964,271
1766015924.3519628,270
1766015924.3529532,265
1766015924.3539479,264
1766015924.3549461,262
1766015924.355952,260
1766015924.357023,261
1766015924.358016,257
1766015924.358966,256
1766015924.359958,251
1766015924.360938,251
1766015924.361978,244
1766015924.362995,243
1766015924.363977,241
1766015924.364961,241
1766015924.365974,237
1766015924.366959,238
1766015924.367993,233
1766015924.368973,230
1766015924.369975,237
1766015924.370982,238
1766015924.371993,235
1766015924.372997,232
1766015924.373964,232
1766015924.3750458,224
1766015924.3760462,223
1766015924.376987,221
1766015924.378003,218
1766015924.379006,215
1766015924.380024,212
1766015924.381016,214
1766015924.382012,212
1766015924.383059,209
1766015924.38407,208
1766015924.385016,206
1766015924.386034,210
1766015924.3870249,213
1766015924.3880131,217
1766015924.389014,221
1766015924.390041,223
1766015924.391042,223
1766015924.392024,224
1766015924.393055,222
1766015924.394042,221
1766015924.395054,218
1766015924.396033,215
1766015924.3970509,214
1766015924.398057,213
1766015924.399046,217
1766015924.400068,216
1766015924.401068,217
1766015924.40206,216
1766015924.40307,214
1766015924.404122,216
1766015924.405074,216
1766015924.4061608,211
1766015924.4070652,209
1766015924.408064,206
1766015924.409088,208
1766015924.410073,206
1766015924.411094,205
1766015924.412169,207
1766015924.413118,205
1766015924.414134,204
1766015924.415148,200
1766015924.416105,197
1766015924.41711,198
1766015924.418135,195
1766015924.419116,196
1766015924.4201128,191
1766015924.42112,189
1766015924.4221299,188
1766015924.423103,187
1766015924.424098,183
1766015924.425119,184
1766015924.4261172,184
1766015924.427138,184
1766015924.428148,184
1766015924.429219,181
1766015924.430122,180
1766015924.431138,182
1766015924.432141,179
1766015924.4331598,177
1766015924.434135,177
1766015924.435206,175
1766015924.436165,170
1766015924.437166,169
1766015924.4382348,170
1766015924.439189,164
1766015924.440186,165
1766015924.441196,167
1766015924.442183,168
1766015924.443189,172
1766015924.444187,168
1766015924.445185,168
1766015924.446178,171
1766015924.447189,171
1766015924.448189,174
1766015924.4491708,170
1766015924.450197,166
1766015924.451209,168
1766015924.452213,164
1766015924.453234,162
1766015924.454248,162
1766015924.4552808,161
1766015924.456233,162
1766015924.4572248,158
1766015924.458293,159
1766015924.459231,156
1766015924.460215,155
1766015924.46123,151
1766015924.4622169,150
1766015924.463223,146
1766015924.464211,145
1766015924.4652429,146
1766015924.466223,140
1766015924.4672189,144
1766015924.4682372,143
1766015924.4692638,140
1766015924.4702542,138
1766015924.471284,137
1766015924.472218,137
1766015924.473253,133
1766015924.474247,136
1766015924.475276,137
1766015924.4762769,135
1766015924.477277,134
1766015924.478281,135
1766015924.479279,133
1766015924.480273,134
1766015924.481298,130
1766015924.482265,128
1766015924.48334,126
1766015924.484282,125
1766015924.485353,124
1766015924.486304,124
1766015924.487355,123
1766015924.488333,120
1766015924.489318,121
1766015924.490386,119
1766015924.491339,118
1766015924.492331,116
1766015924.493324,119
1766015924.4943419,115
1766015924.495309,114
1766015924.496362,112
1766015924.49739,111
1766015924.498323,111
1766015924.4993238,108
1766015924.500318,107
1766015924.501327,109
1766015924.502326,105
1766015924.503339,104
1766015924.5043688,104
1766015924.5053492,105
1766015924.506249,98
1766015924.507298,99
1766015924.5083609,100
1766015924.509376,100
1766015924.51036,100
1766015924.5113611,100
1766015924.5124228,103
1766015924.513414,102
1766015924.514427,100
1766015924.515321,99
1766015924.516296,98
1766015924.517368,102
1766015924.518303,97
1766015924.519296,96
1766015924.52032,96
1766015924.521342,99
1766015924.522326,96
1766015924.523284,93
1766015924.5242949,93
1766015924.525293,93
1766015924.526303,95
1766015924.527301,95
1766015924.528321,92
1766015924.529324,93
1766015924.530328,95
1766015924.531323,99
1766015924.53232,97
1766015924.533341,96
1766015924.5343401,94
1766015924.535339,95
1766015924.5363572,95
1766015924.53734,94
1766015924.538347,93
1766015924.53936,94
1766015924.540422,93
1766015924.541353,90
1766015924.5423539,92
1766015924.543343,93
1766015924.544356,92
1766015924.5453598,91
1766015924.5463848,92
1766015924.547385,92
1766015924.5483809,91
1766015924.549361,93
1766015924.550399,94
1766015924.5514,93
1766015924.552383,96
1766015924.55338,99
1766015924.554398,95
1766015924.555397,97
1766015924.5564108,95
1766015924.557411,95
1766015924.558381,94
1766015924.559386,91
1766015924.560416,91
1766015924.561422,89
1766015924.562423,91
1766015924.563426,91
1766015924.564432,92
1766015924.5654268,90
1766015924.5664158,84
1766015924.567425,86
1766015924.5684469,86
1766015924.569449,83
1766015924.5704472,84
1766015924.571455,86
1766015924.5724318,85
1766015924.573465,83
1766015924.5744371,86
1766015924.575472,82
1766015924.576467,82
1766015924.5774632,83
1766015924.578506,82
1766015924.579498,81
1766015924.5804741,81
1766015924.581471,82
1766015924.5824819,81
1766015924.58351,78
1766015924.584487,80
1766015924.585474,79
1766015924.5864909,77
1766015924.587484,77
1766015924.5884979,74
1766015924.589499,73
1766015924.590506,74
1766015924.591516,72
1766015924.5924962,73
1766015924.593507,73
1766015924.59451,74
1766015924.5955148,71
1766015924.5965319,69
1766015924.597524,68
1766015924.598505,71
1766015924.5995278,69
1766015924.6005309,65
1766015924.601547,69
1766015924.602506,66
1766015924.603571,70
1766015924.6045902,65
1766015924.605532,65
1766015924.606554,69
1766015924.607525,66
1766015924.608595,71
1766015924.609552,72
1766015924.6105652,73
1766015924.6115599,75
1766015924.612604,75
1766015924.613625,74
1766015924.614594,77
1766015924.615582,76
1766015924.616577,73
1766015924.617572,74
1766015924.6185758,73
1766015924.6195788,72
1766015924.620585,72
1766015924.621591,72
1766015924.622565,74
1766015924.6236002,75
1766015924.6245801,79
1766015924.625599,80
1766015924.6266031,82
1766015924.627599,83
1766015924.6286001,83
1766015924.629618,85
1766015924.63061,83
1766015924.631597,83
1766015924.632593,86
1766015924.633615,82
1766015924.634624,80
1766015924.635628,83
1766015924.636632,82
1766015924.637633,81
1766015924.638634,79
1766015924.639626,81
1766015924.640615,78
1766015924.641634,77
1766015924.642638,74
1766015924.643649,76
1766015924.644647,74
1766015924.645657,74
1766015924.646656,74
1766015924.647664,73
1766015924.6486568,72
1766015924.6496892,74
1766015924.650665,73
1766015924.651662,68
1766015924.6526668,69
1766015924.653675,70
1766015924.654685,69
1766015924.6556742,69
1766015924.656723,67
1766015924.6576798,66
1766015924.658703,69
1766015924.659688,68
1766015924.6607091,69
1766015924.661691,64
1766015924.6626902,70
1766015924.663705,68
1766015924.664703,66
1766015924.6656861,71
1766015924.666711,67
1766015924.667723,68
1766015924.668726,67
1766015924.669711,67
1766015924.670707,65
1766015924.671723,66
1766015924.672717,66
1766015924.673722,68
1766015924.674727,69
1766015924.675746,68
1766015924.6767309,72
1766015924.677732,70
1766015924.6787379,69
1766015924.679747,68
1766015924.680762,64
1766015924.6817322,64
1766015924.68275,66
1766015924.6837702,68
1766015924.6847649,66
1766015924.685764,65
1766015924.686768,66
1766015924.6877708,62
1766015924.68878,65
1766015924.6897862,63
1766015924.6907468,65
1766015924.691756,64
1766015924.692781,67
1766015924.693784,67
1766015924.694787,69
1766015924.695795,70
1766015924.6967921,70
1766015924.697793,71
1766015924.698784,70
1766015924.699808,73
1766015924.7008178,72
1766015924.701813,71
1766015924.702812,70
1766015924.703818,69
1766015924.704834,69
1766015924.705826,69
1766015924.7068539,68
1766015924.707805,64
1766015924.7088141,64
1766015924.709842,68
1766015924.7108722,66
1766015924.7118819,65
1766015924.712929,65
1766015924.713881,65
1766015924.714889,67
1766015924.715832,69
1766015924.7168572,70
1766015924.717963,67
1766015924.718892,70
1766015924.719989,68
1766015924.7208588,67
1766015924.7219799,67
1766015924.722986,67
1766015924.723862,66
1766015924.7249432,68
1766015924.725995,67
1766015924.7269819,72
1766015924.727988,69
1766015924.728984,67
1766015924.729984,70
1766015924.7309859,72
1766015924.731984,71
1766015924.733016,71
1766015924.7339609,72
1766015924.73498,71
1766015924.735979,72
1766015924.737031,72
1766015924.738024,67
1766015924.739007,69
1766015924.7399821,68
1766015924.741031,65
1766015924.742025,69
1766015924.743027,69
1766015924.743985,70
1766015924.745026,69
1766015924.746026,70
1766015924.747033,72
1766015924.747993,70
1766015924.748961,74
1766015924.750035,70
1766015924.750981,71
1766015924.7519848,69
1766015924.7530172,72
1766015924.754047,69
1766015924.7549691,69
1766015924.756032,68
1766015924.756982,69
1766015924.7580569,65
1766015924.758987,67
1766015924.760027,65
1766015924.760973,67
1766015924.762027,66
1766015924.7630012,64
1766015924.764024,61
1766015924.764999,64
1766015924.766022,61
1766015924.767034,64
1766015924.7680829,62
1766015924.7690392,61
1766015924.7700748,62
1766015924.771046,61
1766015924.772075,63
1766015924.7730439,60
1766015924.7740421,59
1766015924.7751071,62
1766015924.776087,61
1766015924.777075,61
1766015924.778091,63
1766015924.779072,62
1766015924.7801049,64
1766015924.781069,65
1766015924.782062,65
1766015924.783089,65
1766015924.784127,67
1766015924.785063,65
1766015924.786096,66
1766015924.787106,61
1766015924.788136,59
1766015924.7890801,62
1766015924.790208,63
1766015924.7911181,65
1766015924.7921479,59
1766015924.793117,61
1766015924.794142,63
1766015924.795116,59
1766015924.796151,62
1766015924.7971148,60
1766015924.798164,61
1766015924.7990952,60
1766015924.800169,58
1766015924.801128,58
1766015924.802104,58
1766015924.8031301,61
1766015924.8041642,61
1766015924.8051462,58
1766015924.8061771,61
1766015924.8071291,58
1766015924.808185,55
1766015924.809164,58
1766015924.8101919,57
1766015924.811154,57
1766015924.812186,58
1766015924.813165,59
1766015924.814187,55
1766015924.815182,57
1766015924.8161888,58
1766015924.817204,59
1766015924.8182132,57
1766015924.819201,59
1766015924.820208,59
1766015924.821218,56
1766015924.82223,56
1766015924.8232079,59
1766015924.824223,60
1766015924.825221,57
1766015924.826226,58
1766015924.827216,57
1766015924.828204,59
1766015924.829192,55
1766015924.830196,57
1766015924.831199,54
1766015924.832187,56
1766015924.8332338,54
1766015924.8342028,56
1766015924.835209,58
1766015924.836201,57
1766015924.837234,56
1766015924.838188,56
1766015924.839241,52
1766015924.840207,52
1766015924.841254,55
1766015924.8422341,54
1766015924.843251,57
1766015924.844275,59
1766015924.8452532,61
1766015924.846216,60
1766015924.847275,61
1766015924.848265,62
1766015924.8492858,67
1766015924.850267,63
1766015924.851278,63
1766015924.852266,64
1766015924.8532648,63
1766015924.854243,62
1766015924.8552692,65
1766015924.856278,62
1766015924.857257,60
1766015924.8582919,62
1766015924.859297,59
1766015924.860283,61
1766015924.861294,59
1766015924.862297,59
1766015924.863269,63
1766015924.864297,56
1766015924.865331,58
1766015924.866316,58
1766015924.867323,58
1766015924.8683279,58
1766015924.869311,59
1766015924.870295,59
1766015924.8713112,57
1766015924.872328,57
1766015924.873322,59
1766015924.874331,56
1766015924.875346,57
1766015924.876331,58
1766015924.877345,56
1766015924.87834,54
1766015924.8793468,57
1766015924.880318,53
1766015924.881352,53
1766015924.882338,57
1766015924.883358,56
1766015924.8843572,55
1766015924.885365,56
1766015924.8863559,56
1766015924.887358,54
1766015924.8883688,54
1766015924.88935,56
1766015924.8903732,53
1766015924.8913631,57
1766015924.892382,53
1766015924.893381,55
1766015924.894367,55
1766015924.895373,53
1766015924.89638,54
1766015924.897368,52
1766015924.898391,54
1766015924.899373,53
1766015924.900395,49
1766015924.901397,54
1766015924.9024,51
1766015924.903389,49
1766015924.904406,50
1766015924.9054139,49
1766015924.906423,53
1766015924.907392,47
1766015924.9084191,47
1766015924.909419,50
1766015924.910421,50
1766015924.911437,49
1766015924.9124448,45
1766015924.913439,50
1766015924.914442,47
1766015924.915423,47
1766015924.916446,50
1766015924.917488,50
1766015924.9184299,49
1766015924.919421,52
1766015924.920449,53
1766015924.921398,53
1766015924.9224389,52
1766015924.923479,53
1766015924.924451,54
1766015924.925473,54
1766015924.9264698,52
1766015924.927466,52
1766015924.928468,51
1766015924.929476,51
1766015924.93049,51
1766015924.931454,53
1766015924.9324749,52
1766015924.9334989,49
1766015924.9344919,51
1766015924.935508,47
1766015924.936516,53
1766015924.937535,49
1766015924.9385211,47
1766015924.9395359,51
1766015924.940531,49
1766015924.941482,49
1766015924.942518,49
1766015924.9435232,52
1766015924.9445271,54
1766015924.945493,54
1766015924.946502,57
1766015924.947507,56
1766015924.948522,56
1766015924.949524,56
1766015924.950492,59
1766015924.951509,55
1766015924.952539,56
1766015924.953541,53
1766015924.954537,58
1766015924.955511,60
1766015924.9565172,60
1766015924.957543,60
1766015924.958518,54
1766015924.9595551,58
1766015924.960574,61
1766015924.9615529,57
1766015924.962545,57
1766015924.9635499,57
1766015924.964538,56
1766015924.965576,53
1766015924.9665961,55
1766015924.9675782,56
1766015924.968608,53
1766015924.969572,54
1766015924.970597,52
1766015924.971602,53
1766015924.9725819,51
1766015924.973581,53
1766015924.974607,53
1766015924.975588,50
1766015924.97661,52
1766015924.977605,51
1766015924.9786081,53
1766015924.979609,48
1766015924.980625,52
1766015924.9816298,49
1766015924.9826171,51
1766015924.983606,49
1766015924.984627,49
1766015924.985632,51
1766015924.986638,48
1766015924.987625,48
1766015924.988649,47
1766015924.989652,48
1766015924.9906461,45
1766015924.9916532,45
1766015924.99264,46
1766015924.993643,45
1766015924.994665,45
1766015924.995659,42
1766015924.9966688,44
1766015924.997675,44
1766015924.998671,42
1766015924.999678,44
1766015925.000679,45
1766015925.001683,43
1766015925.0026891,45
1766015925.003686,43
1766015925.004699,43
1766015925.0057018,42
1766015925.0067,45
1766015925.0076978,45
1766015925.008697,47
1766015925.00971,49
1766015925.010716,48
1766015925.0117278,47
1766015925.012726,45
1766015925.013715,44
1766015925.0147111,48
1766015925.0157208,49
1766015925.016725,48
1766015925.0177128,53
1766015925.0187159,51
1766015925.019744,50
1766015925.020742,49
1766015925.0217469,50
1766015925.022729,50
1766015925.023732,53
1766015925.024742,52
1766015925.025745,50
1766015925.026753,47
1766015925.027755,49
1766015925.028754,52
1766015925.0297642,54
1766015925.0307682,53
1766015925.031761,53
1766015925.032753,51
1766015925.033757,53
1766015925.034771,55
1766015925.035788,52
1766015925.0367749,54
1766015925.037787,51
1766015925.038782,52
1766015925.039794,52
1766015925.0407832,51
1766015925.041794,50
1766015925.042801,49
1766015925.043809,48
1766015925.044806,50
1766015925.0457978,50
1766015925.046804,48
1766015925.0478022,52
1766015925.048807,49
1766015925.049806,48
1766015925.050827,49
1766015925.0518248,47
1766015925.0528262,49
1766015925.053824,46
1766015925.054831,46
1766015925.0558238,47
1766015925.0568168,46
1766015925.0578308,47
1766015925.05883,45
1766015925.05984,44
1766015925.060842,46
1766015925.06185,43
1766015925.06285,44
1766015925.063858,45
1766015925.064845,47
1766015925.065845,42
1766015925.066852,44
1766015925.0678499,46
1766015925.068853,44
1766015925.0698571,44
1766015925.070861,44
1766015925.071862,43
1766015925.072875,44
1766015925.0738611,43
1766015925.074861,42
1766015925.0758889,43
1766015925.076881,42
1766015925.0778828,45
1766015925.078888,41
1766015925.079981,45
1766015925.080885,43
1766015925.081983,40
1766015925.082979,43
1766015925.083979,42
1766015925.0849762,40
1766015925.085979,42
1766015925.0869818,38
1766015925.0879848,38
1766015925.088983,41
1766015925.089979,40
1766015925.090986,39
1766015925.0919821,41
1766015925.0929852,40
