timestamp,emg_value
1766015911.7558558,47
1766015911.755871,48
1766015911.755882,52
1766015911.755893,49
1766015911.755903,51
1766015911.755914,52
1766015911.755924,53
1766015911.755934,51
1766015911.755944,54
1766015911.755955,54
1766015911.755965,56
1766015911.755975,56
1766015911.755986,58
1766015911.755996,57
1766015911.756006,58
1766015911.756016,54
1766015911.756026,52
1766015911.756038,58
1766015911.756048,59
1766015911.756059,56
1766015911.7560692,55
1766015911.7560792,55
1766015911.756089,54
1766015911.756099,53
1766015911.756109,52
1766015911.756122,51
1766015911.7561321,54
1766015911.7561421,52
1766015911.7561522,50
1766015911.7561622,52
1766015911.756172,53
1766015911.756182,54
1766015911.756201,53
1766015911.756214,49
1766015911.756225,52
1766015911.7562351,52
1766015911.756245,54
1766015911.756255,53
1766015911.756265,50
1766015911.756275,52
1766015911.756285,52
1766015911.7563012,51
1766015911.756311,52
1766015911.756321,48
1766015911.756331,51
1766015911.756341,52
1766015911.756351,51
1766015911.756361,52
1766015911.756372,54
1766015911.756381,52
1766015911.7563908,53
1766015911.756402,56
1766015911.7564118,55
1766015911.756425,56
1766015911.7564359,56
1766015911.756446,56
1766015911.756456,53
1766015911.756466,55
1766015911.756476,52
1766015911.756486,52
1766015911.756497,51
1766015911.756507,51
1766015911.7565172,53
1766015911.7565272,49
1766015911.756542,53
1766015911.75657,53
1766015911.756581,54
1766015911.756591,51
1766015911.756601,51
1766015911.756611,53
1766015911.756623,53
1766015911.756634,55
1766015911.756644,52
1766015911.756654,50
1766015911.756664,53
1766015911.756675,47
1766015911.756685,50
1766015911.7566972,49
1766015911.756707,49
1766015911.756717,49
1766015911.7567282,51
1766015911.756738,50
1766015911.756748,47
1766015911.756834,51
1766015911.756854,50
1766015911.7568672,52
1766015911.756881,47
1766015911.7568939,49
1766015911.756907,49
1766015911.75692,51
1766015911.756937,49
1766015911.75695,48
1766015911.7569652,50
1766015911.756981,51
1766015911.756995,47
1766015911.7570078,47
1766015911.75702,44
1766015911.75704,46
1766015911.757053,45
1766015911.757066,47
1766015911.757081,45
1766015911.757096,42
1766015911.757108,45
1766015911.757121,43
1766015911.7571342,44
1766015911.7571468,45
1766015911.75716,45
1766015911.7571719,44
1766015911.757185,45
1766015911.757217,45
1766015911.75723,47
1766015911.7572422,42
1766015911.7572548,43
1766015911.757268,43
1766015911.757281,45
1766015911.757293,48
1766015911.757306,44
1766015911.757319,51
1766015911.757332,44
1766015911.757345,45
1766015911.757358,46
1766015911.757371,45
1766015911.7573829,47
1766015911.757396,45
1766015911.757409,45
1766015911.757421,44
1766015911.7574341,45
1766015911.757447,45
1766015911.7574599,43
1766015911.757499,44
1766015911.757514,46
1766015911.757526,44
1766015911.757539,44
1766015911.7575521,44
1766015911.757565,48
1766015911.757578,46
1766015911.75759,44
1766015911.7576032,45
1766015911.757615,41
1766015911.757628,44
1766015911.757641,43
1766015911.757653,45
1766015911.757666,42
1766015911.757678,43
1766015911.757691,47
1766015911.757704,47
1766015911.757717,47
1766015911.757729,46
1766015911.7577422,49
1766015911.757754,46
1766015911.757767,49
1766015911.75778,49
1766015911.757792,49
1766015911.757805,49
1766015911.7578182,49
1766015911.75783,49
1766015911.757843,48
1766015911.757856,45
1766015911.757868,47
1766015911.7578812,48
1766015911.7578938,47
1766015911.757906,49
1766015911.757925,48
1766015911.757938,47
1766015911.757951,46
1766015911.7579641,49
1766015911.757976,46
1766015911.7579892,45
1766015911.7580009,47
1766015911.758014,49
1766015911.758027,45
1766015911.758039,47
1766015911.758052,46
1766015911.758066,44
1766015911.758079,48
1766015911.758092,45
1766015911.758104,47
1766015911.7581172,46
1766015911.7581298,49
1766015911.758142,46
1766015911.758155,48
1766015911.758168,47
1766015911.7581801,44
1766015911.7581928,46
1766015911.758206,46
1766015911.758218,43
1766015911.758231,42
1766015911.758243,46
1766015911.7582562,44
1766015911.7582688,43
1766015911.758282,43
1766015911.758294,40
1766015911.758307,43
1766015911.7583191,44
1766015911.758336,41
1766015911.7583501,42
1766015911.7583628,43
1766015911.758375,44
1766015911.758388,41
1766015911.7584,43
1766015911.758413,43
1766015911.7584262,42
1766015911.7584388,41
1766015911.758451,43
1766015911.758464,44
1766015911.758476,44
1766015911.7584891,42
1766015911.758502,42
1766015911.758514,40
1766015911.758527,39
1766015911.75854,42
1766015911.758552,41
1766015911.7585652,39
1766015911.7585778,39
1766015911.75859,42
1766015911.758603,40
1766015911.758615,39
1766015911.7586281,40
1766015911.75864,38
1766015911.758653,40
1766015911.7586648,40
1766015911.758678,40
1766015911.758691,39
1766015911.7587042,38
1766015911.7587159,37
1766015911.758729,36
1766015911.758742,39
1766015911.758759,38
1766015911.758772,37
1766015911.758785,39
1766015911.7587981,36
1766015911.75881,36
1766015911.758823,39
1766015911.758837,40
1766015911.758849,38
1766015911.758862,36
1766015911.7588742,36
1766015911.7588868,34
1766015911.7589,36
1766015911.758913,37
1766015911.758925,36
1766015911.758938,36
1766015911.758951,38
1766015911.7589629,35
1766015911.758976,36
1766015911.758989,36
1766015911.7590022,35
1766015911.759014,36
1766015911.759027,36
1766015911.75904,36
1766015911.759052,33
1766015911.7590652,36
1766015911.759077,33
1766015911.75909,35
1766015911.759103,35
1766015911.759115,33
1766015911.759128,32
1766015911.7591412,31
1766015911.7591538,32
1766015911.75917,35
1766015911.759184,35
1766015911.7591958,31
1766015911.759209,35
1766015911.759222,34
1766015911.759236,34
1766015911.759249,36
1766015911.759261,35
1766015911.759274,36
1766015911.759287,34
1766015911.759299,34
1766015911.759312,34
1766015911.759325,36
1766015911.759337,32
1766015911.75935,33
1766015911.759362,36
1766015911.759375,32
1766015911.759388,34
1766015911.7594,33
1766015911.759413,35
1766015911.759426,38
1766015911.759438,34
1766015911.759451,37
1766015911.7594628,34
1766015911.759476,35
1766015911.759489,32
1766015911.759501,33
1766015911.759514,35
1766015911.759527,37
1766015911.75954,31
1766015911.759553,32
1766015911.759566,32
1766015911.7595782,33
1766015911.759596,34
1766015911.759609,35
1766015911.7596211,34
1766015911.759634,35
1766015911.759647,33
1766015911.75966,32
1766015911.759673,35
1766015911.759686,36
1766015911.7596989,36
1766015911.759712,31
1766015911.759725,34
1766015911.759739,38
1766015911.759752,33
1766015911.759765,34
1766015911.759778,35
1766015911.759792,33
1766015911.759805,32
1766015911.759819,32
1766015911.759833,36
1766015911.759845,32
1766015911.7598588,34
1766015911.759872,35
1766015911.759884,35
1766015911.759897,32
1766015911.7599099,37
1766015911.759922,34
1766015911.759935,31
1766015911.759948,35
1766015911.7599602,34
1766015911.759973,31
1766015911.759986,35
1766015911.759999,35
1766015911.7600121,35
1766015911.76003,33
1766015911.760043,34
1766015911.760055,34
1766015911.7600682,34
1766015911.7600808,33
1766015911.760094,35
1766015911.760106,32
1766015911.760119,35
1766015911.760132,33
1766015911.760145,36
1766015911.7601569,33
1766015911.76017,34
1766015911.760183,35
1766015911.760195,36
1766015911.760208,31
1766015911.760221,34
1766015911.7602339,32
1766015911.760247,35
1766015911.76026,32
1766015911.7602718,39
1766015911.760287,34
1766015911.760302,35
1766015911.760315,34
1766015911.760328,36
1766015911.760341,35
1766015911.760354,34
1766015911.760366,38
1766015911.7603788,33
1766015911.760393,36
1766015911.760405,34
1766015911.760418,32
1766015911.760431,36
1766015911.760447,31
1766015911.7604601,32
1766015911.760473,34
1766015911.760486,35
1766015911.760499,35
1766015911.760511,32
1766015911.760524,34
1766015911.7605371,33
1766015911.7605498,35
1766015911.760563,31
1766015911.760576,33
1766015911.7605891,31
1766015911.760602,35
1766015911.760614,35
1766015911.760627,34
1766015911.76064,33
1766015911.760653,31
1766015911.7606661,36
1766015911.760679,35
1766015911.760692,34
1766015911.760705,31
1766015911.760718,33
1766015911.760729,35
1766015911.76074,31
1766015911.76075,35
1766015911.760761,34
1766015911.760772,32
1766015911.7607832,33
1766015911.7607942,33
1766015911.7608058,31
1766015911.7608168,33
1766015911.760828,32
1766015911.760839,33
1766015911.760854,30
1766015911.760865,35
1766015911.760876,32
1766015911.7608871,33
1766015911.760898,32
1766015911.760909,34
1766015911.760921,29
1766015911.7609322,33
1766015911.7609432,33
1766015911.7609549,33
1766015911.7609658,29
1766015911.7609768,30
1766015911.760988,32
1766015911.7609978,31
1766015911.761009,32
1766015911.76102,31
1766015911.761031,31
1766015911.7610419,33
1766015911.761052,30
1766015911.7610629,29
1766015911.7610738,30
1766015911.761085,32
1766015911.761096,32
1766015911.761107,29
1766015911.761118,33
1766015911.761128,30
1766015911.761139,31
1766015911.76115,33
1766015911.7611609,29
1766015911.761172,34
1766015911.761182,30
1766015911.761193,32
1766015911.761208,30
1766015911.7612212,32
1766015911.761232,35
1766015911.7612429,29
1766015911.7612538,32
1766015911.7612648,32
1766015911.761276,31
1766015911.761287,31
1766015911.761297,30
1766015911.761308,32
1766015911.761319,30
1766015911.76133,31
1766015911.76134,32
1766015911.7613509,30
1766015911.7613618,32
1766015911.761373,30
1766015911.761384,33
1766015911.761394,32
1766015911.761405,33
1766015911.761416,33
1766015911.761427,33
1766015911.761438,28
1766015911.761448,29
1766015911.7614589,29
1766015911.7614698,32
1766015911.761481,30
1766015911.761492,32
1766015911.761502,29
1766015911.761513,29
1766015911.761524,28
1766015911.761535,31
1766015911.761546,30
1766015911.761557,29
1766015911.7615712,28
1766015911.761583,28
1766015911.761594,29
1766015911.761605,32
1766015911.761615,32
1766015911.761626,29
1766015911.7616372,28
1766015911.761647,30
1766015911.7616582,27
1766015911.7616682,30
1766015911.7616792,29
1766015911.7616892,26
1766015911.7617002,28
1766015911.7617111,28
1766015911.7617211,29
1766015911.761732,29
1766015911.761743,26
1766015911.761753,28
1766015911.761764,29
1766015911.761775,27
1766015911.761785,28
1766015911.761796,25
1766015911.761806,28
1766015911.761817,32
1766015911.7618282,26
1766015911.7618382,26
1766015911.7618492,29
1766015911.7618601,26
1766015911.7618701,29
1766015911.761881,25
1766015911.761892,27
1766015911.761902,26
1766015911.761913,28
1766015911.7619278,27
1766015911.7619379,26
1766015911.7619488,27
1766015911.76196,25
1766015911.7619698,27
1766015911.761981,27
1766015911.761991,29
1766015911.762002,25
1766015911.762012,28
1766015911.762023,30
1766015911.762034,26
1766015911.762045,26
1766015911.762055,29
1766015911.762066,24
1766015911.762076,28
1766015911.7620869,26
1766015911.7620978,27
1766015911.7621078,24
1766015911.7621188,25
1766015911.76213,23
1766015911.762141,27
1766015911.762151,27
1766015911.762162,28
1766015911.762173,28
1766015911.762183,27
1766015911.762194,27
1766015911.762205,27
1766015911.7622159,28
1766015911.7622259,25
1766015911.7622368,27
1766015911.762248,28
1766015911.7622578,29
1766015911.762271,26
1766015911.762283,29
1766015911.762293,26
1766015911.762304,30
1766015911.762315,28
1766015911.762326,27
1766015911.762385,26
1766015911.76241,27
1766015911.762422,28
1766015911.762433,27
1766015911.762444,29
1766015911.762455,31
1766015911.762465,26
1766015911.762476,27
1766015911.762487,26
1766015911.7624981,29
1766015911.762509,28
1766015911.7625191,25
1766015911.76253,28
1766015911.762541,29
1766015911.762551,24
1766015911.762562,24
1766015911.762572,32
1766015911.762583,32
1766015911.762594,28
1766015911.762605,28
1766015911.762615,29
1766015911.762626,25
1766015911.7626371,30
1766015911.7626472,26
1766015911.762658,29
1766015911.7626681,30
1766015911.762681,28
1766015911.762697,28
1766015911.762708,31
1766015911.762719,27
1766015911.762729,31
1766015911.76274,30
1766015911.7627509,27
1766015911.7627609,29
1766015911.762772,31
1766015911.7627819,28
1766015911.762793,31
1766015911.762804,30
1766015911.762814,30
1766015911.762825,29
1766015911.762835,30
1766015911.762846,29
1766015911.762857,31
1766015911.762867,31
1766015911.762878,30
1766015911.762888,29
1766015911.762903,27
1766015911.762916,30
1766015911.762928,31
1766015911.762941,28
1766015911.762954,30
1766015911.762965,29
1766015911.762975,30
1766015911.762986,31
1766015911.762996,31
1766015911.763007,26
1766015911.763017,31
1766015911.763028,29
1766015911.7630389,28
1766015911.763052,29
1766015911.763063,30
1766015911.7630742,30
1766015911.7630851,32
1766015911.7630951,30
1766015911.763106,27
1766015911.763117,30
1766015911.763127,29
1766015911.763139,28
1766015911.76315,31
1766015911.7631612,30
1766015911.763171,32
1766015911.7631822,29
1766015911.7631931,34
1766015911.7632031,28
1766015911.763214,27
1766015911.763225,28
1766015911.763235,29
1766015911.763246,30
1766015911.763257,29
1766015911.763267,28
1766015911.763278,28
1766015911.763289,31
1766015911.763299,31
1766015911.7633102,32
1766015911.7633212,28
1766015911.7633321,31
1766015911.7633421,27
1766015911.763353,30
1766015911.763364,29
1766015911.763374,27
1766015911.763385,29
1766015911.763396,30
1766015911.763411,27
1766015911.763423,32
1766015911.763433,31
1766015911.763444,30
1766015911.763454,29
1766015911.763465,32
1766015911.763476,31
1766015911.7634869,29
1766015911.7634969,28
1766015911.763508,32
1766015911.763519,25
1766015911.76353,30
1766015911.76354,28
1766015911.763551,28
1766015911.763562,31
1766015911.763572,30
1766015911.763583,30
1766015911.763594,30
1766015911.763604,28
1766015911.763615,29
1766015911.763626,31
1766015911.7636359,28
1766015911.763647,30
1766015911.763658,27
1766015911.763669,29
1766015911.763679,31
1766015911.76369,30
1766015911.763701,32
1766015911.763712,30
1766015911.763722,31
1766015911.763733,31
1766015911.763743,30
1766015911.763754,29
1766015911.7637691,31
1766015911.76378,28
1766015911.763791,31
1766015911.763802,31
1766015911.763813,29
1766015911.7638242,28
1766015911.763834,28
1766015911.7638452,31
1766015911.763856,27
1766015911.763867,27
1766015911.7638779,31
1766015911.7638888,29
1766015911.7638998,29
1766015911.7639098,29
1766015911.7639208,29
1766015911.7639308,26
1766015911.763942,29
1766015911.763953,30
1766015911.763964,29
1766015911.763975,30
1766015911.763985,27
1766015911.763996,30
1766015911.7640069,28
1766015911.7640178,31
1766015911.764029,31
1766015911.7640388,27
1766015911.76405,30
1766015911.764061,28
1766015911.764071,31
1766015911.764082,29
1766015911.764093,31
1766015911.764104,30
1766015911.764117,27
1766015911.764131,29
1766015911.764141,27
1766015911.764152,27
1766015911.764163,28
1766015911.764173,29
1766015911.764184,28
1766015911.764195,25
1766015911.764205,29
1766015911.764216,28
1766015911.7642272,29
1766015911.7642372,27
1766015911.7642481,29
1766015911.7642581,26
1766015911.764269,27
1766015911.7642791,27
1766015911.76429,27
1766015911.7643,28
1766015911.764311,27
1766015911.764322,29
1766015911.764332,28
1766015911.764343,28
1766015911.764353,30
1766015911.764364,25
1766015911.764374,28
1766015911.764385,25
1766015911.764395,29
1766015911.764406,25
1766015911.764417,27
1766015911.764427,26
1766015911.764438,27
1766015911.7644491,29
1766015911.764459,27
1766015911.7644742,27
1766015911.7644851,27
1766015911.7644958,26
1766015911.7645068,30
1766015911.764517,28
1766015911.764528,29
1766015911.764538,27
1766015911.76455,28
1766015911.76456,28
1766015911.764571,26
1766015911.764582,26
1766015911.764593,26
1766015911.7646039,27
1766015911.7646139,26
1766015911.7646248,29
1766015911.7646358,28
1766015911.764647,26
1766015911.7646568,29
1766015911.764668,29
1766015911.76468,26
1766015911.7646909,32
1766015911.7647018,28
1766015911.7647119,28
1766015911.764723,27
1766015911.764734,28
1766015911.764745,25
1766015911.764756,30
1766015911.764766,28
1766015911.764777,26
1766015911.764788,29
1766015911.764798,30
1766015911.764809,25
1766015911.7648199,31
1766015911.764836,28
1766015911.764847,29
1766015911.764857,28
1766015911.764868,30
1766015911.764878,28
1766015911.764889,27
1766015911.764899,27
1766015911.76491,27
1766015911.7649212,27
1766015911.7649322,24
1766015911.7649422,28
1766015911.7649531,26
1766015911.764964,28
1766015911.764975,25
1766015911.764985,28
1766015911.764996,28
1766015911.765007,29
1766015911.765017,27
1766015911.765028,29
1766015911.7650392,25
1766015911.7650502,28
1766015911.7650602,27
1766015911.7650712,27
1766015911.7650821,28
1766015911.7650921,28
1766015911.765103,29
1766015911.765114,27
1766015911.765125,26
1766015911.765135,25
1766015911.765146,28
1766015911.7651572,25
1766015911.7651682,29
1766015911.765182,29
1766015911.765194,27
1766015911.765205,27
1766015911.765215,25
1766015911.765226,28
1766015911.765237,27
1766015911.765248,26
1766015911.765258,23
1766015911.765269,27
1766015911.76528,25
1766015911.76529,26
1766015911.765301,26
1766015911.765312,28
1766015911.765323,25
1766015911.765333,29
1766015911.765344,26
1766015911.765354,25
1766015911.765365,25
1766015911.765376,24
1766015911.7653859,27
1766015911.765397,24
1766015911.765408,26
1766015911.765419,26
1766015911.765429,29
1766015911.76544,27
1766015911.765451,24
1766015911.765462,26
1766015911.7654731,31
1766015911.765484,26
1766015911.765494,30
1766015911.765505,28
1766015911.765515,28
1766015911.765526,27
1766015911.7655401,28
1766015911.765553,30
1766015911.765568,29
1766015911.765579,29
1766015911.76559,29
1766015911.7656,25
1766015911.765611,26
1766015911.765622,30
1766015911.765633,28
1766015911.765644,25
1766015911.765655,28
1766015911.765665,28
1766015911.765676,28
1766015911.765686,27
1766015911.765697,29
1766015911.765708,30
1766015911.765718,29
1766015911.765729,27
1766015911.76574,30
1766015911.7657511,26
1766015911.7657611,30
1766015911.765772,29
1766015911.765782,27
1766015911.765793,29
1766015911.765804,25
1766015911.765814,28
1766015911.765825,28
1766015911.765836,27
1766015911.765846,27
1766015911.765857,26
1766015911.765868,30
1766015911.765878,29
1766015911.765889,28
1766015911.7659059,27
1766015911.7659159,29
1766015911.7659268,26
1766015911.7659369,28
1766015911.7659478,29
1766015911.765959,27
1766015911.76597,28
1766015911.765981,28
1766015911.765991,29
1766015911.766002,31
1766015911.766013,27
1766015911.7660239,31
1766015911.766034,29
1766015911.7660449,28
1766015911.7660558,30
1766015911.766067,27
1766015911.766077,29
1766015911.766088,30
1766015911.766098,28
1766015911.766109,30
1766015911.76612,30
1766015911.76613,27
1766015911.766141,29
1766015911.766151,30
1766015911.766162,27
1766015911.766172,30
1766015911.766183,31
1766015911.7661939,29
1766015911.7662039,28
1766015911.7662148,30
1766015911.7662249,31
1766015911.7662358,28
1766015911.76625,30
1766015911.766262,26
1766015911.766273,33
1766015911.766284,28
1766015911.766294,29
1766015911.766305,27
1766015911.766315,33
1766015911.766326,31
1766015911.766337,29
1766015911.766347,32
1766015911.766358,32
1766015911.766368,30
1766015911.766379,32
1766015911.76639,34
1766015911.7664,34
1766015911.766411,31
1766015911.766421,34
1766015911.766432,34
1766015911.766442,33
1766015911.766453,36
1766015911.766464,34
1766015911.766474,34
1766015911.766485,33
1766015911.766495,34
1766015911.766506,36
1766015911.766516,35
1766015911.766527,35
1766015911.766537,35
1766015911.766548,36
1766015911.766558,34
1766015911.766567,37
1766015911.766576,41
1766015911.766585,42
1766015911.766598,41
1766015911.7666078,40
1766015911.766617,41
1766015911.7666261,42
1766015911.766635,43
1766015911.766644,43
1766015911.7666528,42
1766015911.766662,45
1766015911.7666712,45
1766015911.7666812,42
1766015911.76669,42
1766015911.766699,42
1766015911.766708,42
1766015911.766717,45
1766015911.7667258,43
1766015911.7667358,47
1766015911.766745,48
1766015911.7667542,47
1766015911.766763,50
1766015911.766772,44
1766015911.7667809,47
1766015911.76679,44
1766015911.7667992,44
1766015911.766808,47
1766015911.766818,46
1766015911.766827,44
1766015911.766836,43
1766015911.766845,46
1766015911.7668538,46
1766015911.766863,48
1766015911.7668722,47
1766015911.766881,47
1766015911.76689,46
1766015911.766905,44
1766015911.7669141,46
1766015911.766923,48
1766015911.766932,44
1766015911.766942,51
1766015911.7669508,45
1766015911.7669592,47
1766015911.766968,48
1766015911.766978,47
1766015911.766987,44
1766015911.766996,47
1766015911.767005,46
1766015911.7670138,47
1766015911.767023,46
1766015911.7670321,44
1766015911.767041,45
1766015911.767051,45
1766015911.76706,44
1766015911.7670689,47
1766015911.767078,51
1766015911.7670872,47
1766015911.767097,46
1766015911.767106,44
1766015911.767115,47
1766015911.767124,49
1766015911.767134,49
1766015911.767143,50
1766015911.767152,48
1766015911.767164,54
1766015911.767173,53
1766015911.767182,50
1766015911.767191,51
1766015911.767204,57
1766015911.767215,58
1766015911.767224,54
1766015911.7672331,56
1766015911.767243,55
1766015911.767252,55
1766015911.767261,54
1766015911.7672698,53
1766015911.7672791,51
1766015911.767288,51
1766015911.767298,58
1766015911.767307,55
1766015911.7673159,56
1766015911.7673259,59
1766015911.767335,57
1766015911.7673442,57
1766015911.767353,57
1766015911.767362,58
1766015911.7673721,59
1766015911.767381,57
1766015911.76739,59
1766015911.7673988,59
1766015911.7674088,61
1766015911.7674181,62
1766015911.767427,60
1766015911.767436,59
1766015911.767445,61
1766015911.7674549,61
1766015911.767464,59
1766015911.767473,63
1766015911.767482,61
1766015911.767491,64
1766015911.767501,66
1766015911.767513,65
1766015911.767524,65
1766015911.767533,68
1766015911.767543,70
1766015911.767552,72
1766015911.767561,74
1766015911.76757,75
1766015911.7675788,78
1766015911.7675881,80
1766015911.7675982,81
1766015911.767607,81
1766015911.767616,82
1766015911.767626,85
1766015911.7676349,85
1766015911.767644,88
1766015911.767654,88
1766015911.767663,89
1766015911.767672,90
1766015911.7676811,91
1766015911.767691,89
1766015911.7677,88
1766015911.767709,89
1766015911.767719,89
1766015911.7677271,89
1766015911.7677372,89
1766015911.767746,87
1766015911.767755,86
1766015911.7677639,86
1766015911.767773,83
1766015911.767782,87
1766015911.7677922,86
1766015911.767801,85
1766015911.76781,86
1766015911.7678232,92
1766015911.767835,94
1766015911.7678442,93
1766015911.767853,94
1766015911.767862,93
1766015911.767871,94
1766015911.76788,94
1766015911.76789,95
1766015911.7678988,98
1766015911.76791,101
1766015911.767922,101
1766015911.767933,101
1766015911.7679439,101
1766015911.7679548,103
1766015911.767967,103
1766015911.767978,102
1766015911.767989,102
1766015911.768001,101
1766015911.768012,103
1766015911.768024,102
1766015911.7680352,104
1766015911.768044,98
1766015911.768054,97
1766015911.768063,97
1766015911.768072,96
1766015911.768081,96
1766015911.768091,95
1766015911.768103,91
1766015911.7681122,95
1766015911.7681239,91
1766015911.768136,94
1766015911.768147,92
1766015911.7681558,90
1766015911.768165,92
1766015911.7681751,90
1766015911.768184,90
1766015911.768193,89
1766015911.768202,92
1766015911.768212,90
1766015911.768221,88
1766015911.76823,86
1766015911.768239,84
1766015911.768249,85
1766015911.768258,86
1766015911.768267,83
1766015911.768277,83
1766015911.768286,83
1766015911.7682948,80
1766015911.7683048,84
1766015911.7683141,80
1766015911.7683232,83
1766015911.768332,79
1766015911.768342,77
1766015911.768351,79
1766015911.7683609,77
1766015911.76837,75
1766015911.76838,77
1766015911.7683892,76
1766015911.768399,74
1766015911.768408,75
1766015911.768418,74
1766015911.768428,75
1766015911.768437,72
1766015911.768449,72
1766015911.768459,71
1766015911.768468,69
1766015911.768478,71
1766015911.768487,70
1766015911.768496,69
1766015911.768506,71
1766015911.768515,70
1766015911.768524,67
1766015911.768534,67
1766015911.768543,69
1766015911.768553,65
1766015911.7685618,71
1766015911.768571,68
1766015911.7685802,65
1766015911.76859,65
1766015911.768599,65
1766015911.768608,66
1766015911.7686179,65
1766015911.768627,65
1766015911.768636,64
1766015911.768646,63
1766015911.768655,61
1766015911.7686641,65
1766015911.768673,63
1766015911.768683,61
1766015911.768692,62
1766015911.768791,58
1766015911.768801,62
1766015911.768811,60
1766015911.76882,57
1766015911.76883,60
1766015911.768839,60
1766015911.768863,59
1766015911.768873,58
1766015911.768882,60
1766015911.7688909,57
1766015911.768901,58
1766015911.7689111,59
1766015911.7689202,59
1766015911.768929,59
1766015911.768938,58
1766015911.768947,59
1766015911.768957,58
1766015911.768966,58
1766015911.768976,59
1766015911.768985,54
1766015911.768994,55
1766015911.769004,54
1766015911.769013,53
1766015911.769022,54
1766015911.7690308,55
1766015911.7690399,53
1766015911.7690492,54
1766015911.7690592,51
1766015911.769068,54
1766015911.769077,55
1766015911.769086,53
1766015911.769095,51
1766015911.769105,52
1766015911.769114,52
1766015911.769123,53
1766015911.7691321,51
1766015911.769142,51
1766015911.769151,49
1766015911.769163,48
1766015911.769173,51
1766015911.769182,52
1766015911.769191,48
1766015911.7692,52
1766015911.76921,50
1766015911.7692192,48
1766015911.769228,48
1766015911.769237,51
1766015911.769247,50
1766015911.7692559,50
1766015911.769266,47
1766015911.769275,46
1766015911.7692852,47
1766015911.769294,48
1766015911.769303,46
1766015911.769312,48
1766015911.769321,45
1766015911.76933,44
1766015911.7693398,45
1766015911.769349,45
1766015911.7693582,47
1766015911.7693682,44
1766015911.769377,43
1766015911.769386,47
1766015911.7693949,48
1766015911.769405,48
1766015911.769414,44
1766015911.769423,42
1766015911.769432,44
1766015911.7694411,46
1766015911.76945,44
1766015911.76946,47
1766015911.769474,45
1766015911.769484,45
1766015911.769493,41
1766015911.769502,45
1766015911.769512,43
1766015911.769521,43
1766015911.76953,41
1766015911.76954,41
1766015911.7695491,43
1766015911.769558,44
1766015911.769567,43
1766015911.7695758,42
1766015911.769585,39
1766015911.7695942,39
1766015911.7696462,38
1766015911.769675,39
1766015911.769685,43
1766015911.7696939,41
1766015911.769703,42
1766015911.7697122,40
1766015911.769721,43
1766015911.769731,40
1766015911.76974,41
1766015911.769749,42
1766015911.769758,40
1766015911.7697668,42
1766015911.769776,44
1766015911.7697852,42
1766015911.769794,39
1766015911.769803,43
1766015911.7698119,39
1766015911.769821,38
1766015911.7698328,39
1766015911.769862,38
1766015911.769875,41
1766015911.7698848,40
1766015911.7698948,42
1766015911.7699049,42
1766015911.7699149,42
1766015911.7699242,41
1766015911.769933,38
1766015911.769944,38
1766015911.769954,38
1766015911.769963,39
1766015911.769973,37
1766015911.7699819,40
1766015911.7699919,41
1766015911.770001,39
1766015911.7700212,40
1766015911.770041,38
1766015911.770051,36
1766015911.770061,40
1766015911.77007,39
1766015911.770079,39
1766015911.770089,36
1766015911.770098,38
1766015911.7701068,35
1766015911.770117,37
1766015911.770126,35
1766015911.770135,37
1766015911.770144,38
1766015911.770154,36
1766015911.770163,40
1766015911.7701719,37
1766015911.7701812,37
1766015911.770196,39
1766015911.770205,36
1766015911.7702138,37
1766015911.7702231,37
1766015911.770232,33
1766015911.770242,37
1766015911.770251,37
1766015911.7702599,38
1766015911.7702699,35
1766015911.770279,38
1766015911.7702882,36
1766015911.770298,34
1766015911.770307,38
1766015911.7703161,39
1766015911.770325,35
1766015911.770334,35
1766015911.770344,36
1766015911.7703528,35
1766015911.7703621,32
1766015911.7703722,34
1766015911.770381,34
1766015911.77039,38
1766015911.770399,33
1766015911.7704089,34
1766015911.770418,37
1766015911.770427,34
1766015911.770436,35
1766015911.770445,34
1766015911.7704551,34
1766015911.770464,35
1766015911.770473,39
1766015911.7704818,37
1766015911.770494,36
1766015911.770505,34
1766015911.770514,35
1766015911.7705228,35
1766015911.7705321,35
1766015911.770541,32
1766015911.77055,31
1766015911.770559,34
1766015911.770568,31
1766015911.770578,31
1766015911.770587,33
1766015911.770596,35
1766015911.770605,35
1766015911.770614,35
1766015911.770624,32
1766015911.770633,34
1766015911.770643,33
1766015911.7706518,34
1766015911.770661,35
1766015911.7706702,33
1766015911.770679,33
1766015911.770689,33
1766015911.7707,33
1766015911.77071,33
1766015911.770721,30
1766015911.770732,34
1766015911.770742,32
1766015911.770751,32
1766015911.7707598,33
1766015911.7707698,33
1766015911.770779,31
1766015911.7707882,34
1766015911.770797,32
1766015911.7708101,33
1766015911.770821,32
1766015911.7708302,32
1766015911.7708402,33
1766015911.770849,33
1766015911.770858,28
1766015911.770868,32
1766015911.770877,30
1766015911.770886,32
1766015911.770895,33
1766015911.770905,30
1766015911.770914,29
1766015911.770924,29
1766015911.770933,31
1766015911.770942,29
1766015911.7709508,30
1766015911.7709599,28
1766015911.77097,28
1766015911.7709792,30
1766015911.770988,29
1766015911.770997,32
1766015911.7710059,28
1766015911.771016,31
1766015911.771025,29
1766015911.771034,27
1766015911.771044,29
1766015911.771053,27
1766015911.771062,29
1766015911.771072,32
1766015911.771081,27
1766015911.77109,27
1766015911.7710989,29
1766015911.771109,30
1766015911.771122,27
1766015911.7711308,28
1766015911.771141,29
1766015911.77115,28
1766015911.771159,30
1766015911.771168,25
1766015911.771178,31
1766015911.7711868,29
1766015911.771196,28
1766015911.7712052,28
1766015911.771214,29
1766015911.771224,27
1766015911.771233,28
1766015911.771242,25
1766015911.771251,28
1766015911.77126,25
1766015911.771269,28
1766015911.771279,28
1766015911.7712882,26
1766015911.771297,26
1766015911.771307,27
1766015911.771316,25
1766015911.7713249,26
1766015911.771334,24
1766015911.771344,24
1766015911.771353,26
1766015911.771363,27
1766015911.771372,27
1766015911.771381,27
1766015911.77139,24
1766015911.771399,27
1766015911.7714088,25
1766015911.771421,25
1766015911.771432,27
1766015911.771442,25
1766015911.771451,25
1766015911.77146,25
1766015911.771469,26
1766015911.7714791,23
1766015911.771488,24
1766015911.771498,26
1766015911.771507,21
1766015911.7715158,25
1766015911.7715251,27
1766015911.771534,21
1766015911.771544,29
1766015911.771553,24
1766015911.771562,23
1766015911.771571,26
1766015911.771581,24
1766015911.77159,22
1766015911.771599,26
1766015911.771608,24
1766015911.7716181,23
1766015911.771627,24
1766015911.771636,24
1766015911.7716448,23
1766015911.7716548,24
1766015911.771664,24
1766015911.7716732,23
1766015911.771682,29
1766015911.771691,26
1766015911.7717,25
1766015911.77171,25
1766015911.77172,22
1766015911.7717319,23
1766015911.7717419,24
1766015911.771751,25
1766015911.7717602,25
1766015911.77177,26
1766015911.771779,23
1766015911.7717881,21
1766015911.771797,22
1766015911.771806,25
1766015911.771816,21
1766015911.7718248,23
1766015911.7718341,24
1766015911.771843,22
1766015911.771853,23
1766015911.771862,21
1766015911.771871,25
1766015911.77188,22
1766015911.771889,25
1766015911.771898,23
1766015911.771908,22
1766015911.771917,23
1766015911.771926,26
1766015911.771935,26
1766015911.771944,21
1766015911.7719538,23
1766015911.771963,23
1766015911.7719722,20
1766015911.771981,24
1766015911.77199,22
1766015911.772,20
1766015911.772009,25
1766015911.772018,22
1766015911.7720268,22
1766015911.7720408,24
1766015911.77205,21
1766015911.772059,22
1766015911.772068,23
1766015911.772078,22
1766015911.772087,20
1766015911.772096,25
1766015911.772105,22
1766015911.772114,23
1766015911.7721238,21
1766015911.772133,22
1766015911.7721422,22
1766015911.772151,23
1766015911.772161,23
1766015911.77217,22
1766015911.772179,19
1766015911.772188,22
1766015911.772198,26
1766015911.772207,24
1766015911.772216,23
1766015911.772226,22
1766015911.772235,24
1766015911.772244,23
1766015911.772253,20
1766015911.7722619,23
1766015911.772272,23
1766015911.7722812,23
1766015911.77229,24
1766015911.7723,20
1766015911.772309,22
1766015911.772318,24
1766015911.772327,24
1766015911.77234,23
1766015911.772351,21
1766015911.7723598,22
1766015911.772369,22
1766015911.772379,20
1766015911.772388,21
1766015911.772396,25
1766015911.772404,19
1766015911.7724118,22
1766015911.7724202,21
1766015911.772428,22
1766015911.772437,21
1766015911.772445,25
1766015911.772453,23
1766015911.772461,25
1766015911.772469,23
1766015911.772477,21
1766015911.772485,23
1766015911.772494,23
1766015911.772502,25
1766015911.77251,19
1766015911.772518,23
1766015911.772526,19
1766015911.7725341,24
1766015911.772543,23
1766015911.7725508,24
1766015911.7725592,24
1766015911.772567,21
1766015911.772575,21
1766015911.772583,25
1766015911.772592,25
1766015911.7726002,24
1766015911.772608,25
1766015911.772619,23
1766015911.772628,22
1766015911.772636,24
1766015911.7726452,22
1766015911.772653,23
1766015911.772661,23
1766015911.7726688,21
1766015911.772678,25
1766015911.772686,22
1766015911.772694,24
1766015911.772702,24
1766015911.7727098,25
1766015911.772806,26
1766015911.772816,24
1766015911.772824,22
1766015911.772832,24
1766015911.772841,24
1766015911.7728488,26
1766015911.7728572,21
1766015911.772892,23
1766015911.772927,21
1766015911.772935,26
1766015911.772944,22
1766015911.772952,24
1766015911.77296,20
1766015911.77297,23
1766015911.7729778,21
1766015911.772987,24
1766015911.772995,25
1766015911.7730188,24
1766015911.773029,23
1766015911.7730381,22
1766015911.773046,25
1766015911.773056,22
1766015911.7731168,24
1766015911.773126,23
1766015911.773134,24
1766015911.773143,20
1766015911.773151,27
1766015911.773159,22
1766015911.7731671,24
1766015911.773176,20
1766015911.773184,25
1766015911.773193,24
1766015911.773201,24
1766015911.773209,24
1766015911.7732182,21
1766015911.773226,23
1766015911.773234,25
1766015911.773242,23
1766015911.77325,26
1766015911.773258,22
1766015911.773267,24
1766015911.773275,26
1766015911.773283,22
1766015911.773292,25
1766015911.7733,22
1766015911.7733078,22
1766015911.7733161,25
1766015911.773324,24
1766015911.773333,22
1766015911.773341,23
1766015911.773349,22
1766015911.773361,22
1766015911.77337,21
1766015911.7733781,22
1766015911.773389,24
1766015911.773397,25
1766015911.7734048,23
1766015911.7734132,22
1766015911.773422,22
1766015911.77343,25
1766015911.773438,22
1766015911.7734458,23
1766015911.7734542,25
1766015911.773463,22
1766015911.7734709,25
1766015911.773479,23
1766015911.773487,21
1766015911.773495,23
1766015911.773503,25
1766015911.773512,25
1766015911.7735198,24
1766015911.773528,26
1766015911.773536,24
1766015911.7735438,24
1766015911.7735522,25
1766015911.773561,25
1766015911.773569,22
1766015911.773577,20
1766015911.7735848,21
1766015911.7735932,19
1766015911.773601,23
1766015911.7736099,23
1766015911.773618,23
1766015911.773626,24
1766015911.773634,25
1766015911.773642,23
1766015911.773652,24
1766015911.773661,22
1766015911.773669,23
1766015911.773678,24
1766015911.773686,22
1766015911.773694,21
1766015911.773702,21
1766015911.7737112,22
1766015911.773719,25
1766015911.773727,24
1766015911.7737348,24
1766015911.7737432,23
1766015911.773752,24
1766015911.77376,25
1766015911.773768,22
1766015911.7737758,20
1766015911.773785,24
1766015911.773793,22
1766015911.7738008,23
1766015911.773809,26
1766015911.773817,22
1766015911.773825,24
1766015911.773834,22
1766015911.7738419,24
1766015911.7738502,26
1766015911.773858,21
1766015911.773866,22
1766015911.7738738,22
1766015911.7738829,21
1766015911.773891,22
1766015911.773899,25
1766015911.773907,26
1766015911.7739148,23
1766015911.773927,24
1766015911.773935,22
1766015911.773943,24
1766015911.773951,26
1766015911.773959,25
1766015911.773967,21
1766015911.773976,23
1766015911.773984,25
1766015911.7739918,22
1766015911.7740002,25
1766015911.774008,24
1766015911.774016,23
1766015911.774024,27
1766015911.7740319,23
1766015911.7740412,26
1766015911.774049,24
1766015911.774057,24
1766015911.7740648,22
1766015911.7740731,23
1766015911.774081,26
1766015911.77409,24
1766015911.774098,24
1766015911.774106,23
1766015911.7741141,26
1766015911.774123,22
1766015911.774131,22
1766015911.774139,23
1766015911.774148,23
1766015911.774156,26
1766015911.774164,24
1766015911.7741718,25
1766015911.7741802,22
1766015911.774189,24
1766015911.774197,23
1766015911.774205,22
1766015911.774213,23
1766015911.774221,23
1766015911.77423,23
1766015911.7742379,22
1766015911.774246,22
1766015911.774254,25
1766015911.774262,22
1766015911.774271,26
1766015911.7742789,22
1766015911.774287,22
1766015911.774295,22
1766015911.774303,22
1766015911.7743108,26
1766015911.7743201,24
1766015911.774328,24
1766015911.774336,22
1766015911.774344,20
1766015911.7743518,22
1766015911.7743602,22
1766015911.774369,23
1766015911.7743769,25
1766015911.774385,23
1766015911.774393,26
1766015911.7744021,22
1766015911.77441,20
1766015911.7744179,20
1766015911.7744262,24
1766015911.774434,22
1766015911.774442,23
1766015911.7744498,22
1766015911.774459,21
1766015911.774467,26
1766015911.774475,20
1766015911.774484,20
1766015911.7744918,24
1766015911.7745001,25
1766015911.774508,24
1766015911.7745159,22
1766015911.774525,24
1766015911.774533,24
1766015911.7745411,25
1766015911.774549,22
1766015911.7745569,23
1766015911.7745652,23
1766015911.774573,22
1766015911.774582,25
1766015911.77459,23
1766015911.774598,23
1766015911.774606,24
1766015911.774614,25
1766015911.774622,22
1766015911.774631,23
1766015911.7746391,23
1766015911.774647,24
1766015911.7746549,22
1766015911.774663,23
1766015911.7746718,24
1766015911.7746801,26
1766015911.774688,23
1766015911.7746959,25
1766015911.7747042,22
1766015911.774713,25
1766015911.774721,24
1766015911.774729,25
1766015911.774737,25
1766015911.774745,25
1766015911.774754,23
1766015911.774762,22
1766015911.77477,23
1766015911.7747781,24
1766015911.7747872,25
1766015911.774795,28
1766015911.774803,24
1766015911.7748108,23
1766015911.7748191,24
1766015911.774828,25
1766015911.774836,23
1766015911.774844,25
1766015911.7748532,27
1766015911.774861,26
1766015911.774869,25
1766015911.7748768,25
1766015911.7748852,26
1766015911.774893,23
1766015911.774901,26
1766015911.77491,24
1766015911.7749178,24
1766015911.7749262,28
1766015911.774934,27
1766015911.774942,28
1766015911.774951,25
1766015911.774959,28
1766015911.774967,22
1766015911.774975,25
1766015911.774983,26
1766015911.774992,26
1766015911.775,26
1766015911.775008,26
1766015911.7750158,26
1766015911.7750242,27
1766015911.775032,27
1766015911.775041,27
1766015911.775049,25
1766015911.7750568,27
1766015911.7750652,26
1766015911.775073,26
1766015911.775081,28
1766015911.77509,25
1766015911.775098,26
1766015911.775106,29
1766015911.775115,25
1766015911.775123,27
1766015911.775131,27
1766015911.775139,27
1766015911.775148,25
1766015911.775156,27
1766015911.775164,28
1766015911.775172,27
1766015911.77518,25
1766015911.775188,26
1766015911.775197,30
1766015911.7752051,30
1766015911.775213,27
1766015911.775221,25
1766015911.775229,26
1766015911.7752378,26
1766015911.7752461,26
1766015911.775254,28
1766015911.775263,27
1766015911.775271,27
1766015911.775279,27
1766015911.7752872,23
1766015911.775295,27
1766015911.7753038,27
1766015911.775312,26
1766015911.77532,29
1766015911.775328,30
1766015911.775336,26
1766015911.7753441,24
1766015911.775352,29
1766015911.77536,25
1766015911.775369,25
1766015911.7753768,28
1766015911.7753851,29
1766015911.775393,28
1766015911.7754009,29
1766015911.77541,27
1766015911.775418,29
1766015911.7754261,30
1766015911.775434,27
1766015911.775442,28
1766015911.7754502,24
1766015911.775458,30
1766015911.775467,27
1766015911.775475,27
1766015911.775483,28
1766015911.775491,27
1766015911.775499,26
1766015911.775508,27
1766015911.7755158,29
1766015911.7755241,29
1766015911.775532,27
1766015911.775541,28
1766015911.775549,29
1766015911.775557,28
1766015911.7755651,25
1766015911.775573,27
1766015911.7755818,27
1766015911.77559,28
1766015911.775598,25
1766015911.775606,28
1766015911.775614,25
1766015911.7756228,28
1766015911.7756312,27
1766015911.775639,30
1766015911.775647,27
1766015911.775655,27
1766015911.7756631,26
1766015911.775671,28
1766015911.7756789,28
1766015911.775687,29
1766015911.7756958,29
1766015911.7757041,30
1766015911.775712,28
1766015911.77572,26
1766015911.775729,28
1766015911.775737,28
1766015911.775745,26
1766015911.775753,26
1766015911.775761,26
1766015911.7757702,30
1766015911.775861,26
1766015911.776886,28
1766015911.777899,29
1766015911.7788641,29
1766015911.779935,27
1766015911.7809,27
1766015911.781903,30
1766015911.782905,30
1766015911.783951,29
1766015911.784896,30
1766015911.7859268,26
1766015911.7869818,29
1766015911.7879848,29
1766015911.7890382,29
1766015911.790012,28
1766015911.790988,28
1766015911.7919931,25
1766015911.793015,31
1766015911.793995,30
1766015911.794961,30
1766015911.795997,32
1766015911.797002,28
1766015911.7979672,29
1766015911.798982,30
1766015911.799999,29
1766015911.801037,32
1766015911.8020082,26
1766015911.802988,29
1766015911.8039901,29
1766015911.805012,27
1766015911.806009,28
1766015911.806987,29
1766015911.80801,28
1766015911.809031,27
1766015911.810025,28
1766015911.811027,25
1766015911.811991,29
1766015911.812997,27
1766015911.813992,29
1766015911.815014,29
1766015911.8160179,30
1766015911.81702,29
1766015911.818045,28
1766015911.8190222,29
1766015911.819981,25
1766015911.8209789,28
1766015911.8219872,25
1766015911.8230212,27
1766015911.8240352,27
1766015911.825052,27
1766015911.8260238,24
1766015911.8270621,27
1766015911.8280268,28
1766015911.829039,27
1766015911.8300521,30
1766015911.8310442,25
1766015911.832045,24
1766015911.833049,29
1766015911.834046,29
1766015911.835071,26
1766015911.8360598,28
1766015911.837068,27
1766015911.838063,28
1766015911.8390698,29
1766015911.840078,28
1766015911.841077,27
1766015911.842088,28
1766015911.84308,31
1766015911.844084,29
1766015911.8450902,28
1766015911.846103,28
1766015911.847101,29
1766015911.848089,29
1766015911.8491101,27
1766015911.850113,29
1766015911.851111,29
1766015911.8520992,32
1766015911.853097,26
1766015911.854103,29
1766015911.8551092,29
1766015911.8561149,29
1766015911.85712,26
1766015911.858204,27
1766015911.859124,31
1766015911.860079,31
1766015911.861114,36
1766015911.8621252,37
1766015911.863133,39
1766015911.864079,42
1766015911.865141,47
1766015911.866126,49
1766015911.8671439,52
1766015911.8681002,51
1766015911.8691041,55
1766015911.870108,55
1766015911.871116,56
1766015911.872152,57
1766015911.87313,53
1766015911.874157,57
1766015911.8751261,59
1766015911.8761878,57
1766015911.877129,59
1766015911.878137,59
1766015911.87918,62
1766015911.880167,63
1766015911.8811798,60
1766015911.8821728,59
1766015911.883179,62
1766015911.884178,65
1766015911.885186,68
1766015911.886186,76
1766015911.8871942,84
1766015911.8881788,90
1766015911.8892002,96
1766015911.890202,95
1766015911.8912032,91
1766015911.892204,95
1766015911.893213,97
1766015911.8942,96
1766015911.895183,95
1766015911.896213,92
1766015911.897218,94
1766015911.8982131,98
1766015911.8992078,99
1766015911.900311,101
1766015911.9012852,105
1766015911.902324,107
1766015911.903295,109
1766015911.9043179,109
1766015911.905344,114
1766015911.906344,114
1766015911.907354,112
1766015911.908354,109
1766015911.909354,110
1766015911.910369,110
1766015911.911357,110
1766015911.912367,107
1766015911.913354,109
1766015911.914361,110
1766015911.915367,107
1766015911.916383,106
1766015911.917365,106
1766015911.918376,108
1766015911.919374,109
1766015911.920376,105
1766015911.9213881,103
1766015911.922369,104
1766015911.9234,100
1766015911.924404,100
1766015911.925295,99
1766015911.9262981,98
1766015911.927402,102
1766015911.928417,103
1766015911.929457,103
1766015911.930331,98
1766015911.9314282,100
1766015911.9324212,102
1766015911.933407,100
1766015911.934369,98
1766015911.935356,99
1766015911.936426,100
1766015911.937324,96
1766015911.938424,101
1766015911.9394429,101
1766015911.940458,103
1766015911.941472,104
1766015911.942461,105
1766015911.9434628,105
1766015911.9444458,103
1766015911.945466,103
1766015911.946455,104
1766015911.9474611,104
1766015911.9484658,103
1766015911.94946,102
1766015911.950454,102
1766015911.9514618,103
1766015911.952461,101
1766015911.953376,96
1766015911.954368,96
1766015911.955363,95
1766015911.95639,93
1766015911.957393,95
1766015911.9583738,93
1766015911.9593909,94
1766015911.960418,94
1766015911.9616342,93
1766015911.962417,94
1766015911.9634109,93
1766015911.964413,97
1766015911.965421,95
1766015911.9664278,93
1766015911.967416,94
1766015911.968411,93
1766015911.969414,93
1766015911.970408,95
1766015911.971426,97
1766015911.972484,106
1766015911.973515,110
1766015911.974505,120
1766015911.9754822,127
1766015911.9765172,136
1766015911.977514,136
1766015911.978513,141
1766015911.979508,142
1766015911.9805179,139
1766015911.981517,140
1766015911.982508,138
1766015911.9835331,137
1766015911.984519,138
1766015911.985526,135
1766015911.986586,135
1766015911.987533,138
1766015911.988574,139
1766015911.989581,136
1766015911.990583,131
1766015911.991578,130
1766015911.992576,130
1766015911.993577,130
1766015911.9945831,129
1766015911.995595,128
1766015911.996591,129
1766015911.997597,129
1766015911.9985988,124
1766015911.999585,124
1766015912.000588,123
1766015912.0015922,125
1766015912.0025952,123
1766015912.0036092,123
1766015912.004621,122
1766015912.0056078,116
1766015912.006618,116
1766015912.00763,117
1766015912.0086248,114
1766015912.0096169,113
1766015912.0106251,113
1766015912.0116348,113
1766015912.012618,112
1766015912.013629,109
1766015912.0146391,111
1766015912.0156438,109
1766015912.016626,107
1766015912.017658,107
1766015912.0186481,106
1766015912.019638,107
1766015912.020638,104
1766015912.021645,104
1766015912.02265,102
1766015912.023666,103
1766015912.024589,99
1766015912.025676,101
1766015912.0266812,103
1766015912.027671,100
1766015912.028683,103
1766015912.02958,98
1766015912.0306802,102
1766015912.031679,104
1766015912.0326898,103
1766015912.033702,105
1766015912.0346801,104
1766015912.035603,98
1766015912.0366988,101
1766015912.0377011,104
1766015912.0387032,107
1766015912.039721,109
1766015912.040715,112
1766015912.041715,118
1766015912.042718,120
1766015912.043735,120
1766015912.0447192,118
1766015912.0457401,119
1766015912.046726,117
1766015912.0477371,119
1766015912.048737,120
1766015912.0497348,121
1766015912.050743,120
1766015912.0517492,117
1766015912.0527549,118
1766015912.053765,116
1766015912.0547562,115
1766015912.0557592,115
1766015912.056766,114
1766015912.057759,119
1766015912.058767,127
1766015912.0597708,136
1766015912.06077,147
1766015912.061769,150
1766015912.062769,152
1766015912.063769,150
1766015912.06479,150
1766015912.0657878,146
1766015912.066797,147
1766015912.0678039,143
1766015912.068798,144
1766015912.069802,141
1766015912.07081,139
1766015912.071811,140
1766015912.072809,141
1766015912.073808,140
1766015912.074823,142
1766015912.0758212,137
1766015912.07682,141
1766015912.077812,139
1766015912.078822,140
1766015912.0798268,137
1766015912.080823,135
1766015912.081849,136
1766015912.082835,132
1766015912.08384,132
1766015912.084859,129
1766015912.085867,129
1766015912.086853,126
1766015912.087856,124
1766015912.088854,126
1766015912.089869,129
1766015912.090865,127
1766015912.091879,128
1766015912.092888,125
1766015912.093878,127
1766015912.094869,127
1766015912.095878,124
1766015912.096884,122
1766015912.097882,122
1766015912.098903,123
1766015912.099885,119
1766015912.1009102,119
1766015912.101907,118
1766015912.10291,118
1766015912.1039202,117
1766015912.104896,115
1766015912.105901,116
1766015912.10692,114
1766015912.107923,115
1766015912.1089149,109
1766015912.109919,109
1766015912.110911,109
1766015912.111923,105
1766015912.11292,106
1766015912.1139169,106
1766015912.115009,106
1766015912.1160161,104
1766015912.117003,101
1766015912.117921,102
1766015912.119017,100
1766015912.120018,101
1766015912.120848,97
1766015912.1220129,100
1766015912.122862,96
1766015912.123874,99
1766015912.1248682,98
1766015912.126011,100
1766015912.127007,105
1766015912.1280131,109
1766015912.129009,117
1766015912.130004,116
1766015912.131003,118
1766015912.132002,119
1766015912.133004,116
1766015912.1340318,117
1766015912.135016,120
1766015912.13601,120
1766015912.137015,116
1766015912.138007,117
1766015912.13901,117
1766015912.140019,115
1766015912.141013,113
1766015912.1420128,111
1766015912.1430132,111
1766015912.1440158,109
1766015912.14502,109
1766015912.146019,104
1766015912.14701,106
1766015912.148014,105
1766015912.149011,105
1766015912.150027,104
1766015912.151034,102
1766015912.1520221,100
1766015912.153041,100
1766015912.154009,98
1766015912.154997,97
1766015912.15601,96
1766015912.157016,95
1766015912.158004,96
1766015912.159009,96
1766015912.16,97
1766015912.1610281,97
1766015912.162017,95
1766015912.1630201,96
1766015912.164024,95
1766015912.1650162,95
1766015912.166027,95
1766015912.167009,92
1766015912.167999,93
1766015912.1690009,92
1766015912.169986,92
1766015912.170969,87
1766015912.1720011,88
1766015912.173017,88
1766015912.1739662,86
1766015912.1749701,86
1766015912.175974,86
1766015912.176988,84
1766015912.177968,84
1766015912.1789691,84
1766015912.179991,83
1766015912.1810079,82
1766015912.1820061,81
1766015912.1830242,81
1766015912.183996,79
1766015912.1849952,81
1766015912.1860201,84
1766015912.1870432,85
1766015912.1880288,86
1766015912.189047,90
1766015912.1900558,90
1766015912.19102,88
1766015912.192045,87
1766015912.193047,89
1766015912.19406,86
1766015912.195053,88
1766015912.196051,85
1766015912.1970649,87
1766015912.198071,83
1766015912.199053,82
1766015912.200062,83
1766015912.201069,83
1766015912.202059,83
1766015912.2030709,79
1766015912.204063,78
1766015912.205069,80
1766015912.2060952,78
1766015912.207092,81
1766015912.208079,79
1766015912.2090828,78
1766015912.2100961,78
1766015912.211095,77
1766015912.212097,80
1766015912.213095,76
1766015912.214099,80
1766015912.215101,81
1766015912.216095,84
1766015912.217101,89
1766015912.218102,85
1766015912.21912,86
1766015912.220129,91
1766015912.2211142,91
1766015912.222118,89
1766015912.223146,88
1766015912.2241201,89
1766015912.225125,84
1766015912.2261388,86
1766015912.2271528,87
1766015912.228139,88
1766015912.229145,83
1766015912.2301388,83
1766015912.2311392,85
1766015912.2321439,83
1766015912.23315,81
1766015912.234153,79
1766015912.235162,82
1766015912.236157,82
1766015912.237153,79
1766015912.238166,79
1766015912.2391648,79
1766015912.2401679,79
1766015912.2411761,79
1766015912.242186,79
1766015912.243186,78
1766015912.244194,74
1766015912.245176,76
1766015912.246194,75
1766015912.247197,74
1766015912.248207,75
1766015912.249194,74
1766015912.250209,71
1766015912.251195,73
1766015912.252209,73
1766015912.253201,71
1766015912.254216,70
1766015912.2552161,70
1766015912.256217,68
1766015912.257216,71
1766015912.258218,67
1766015912.2592251,68
1766015912.2602189,69
1766015912.261239,65
1766015912.262227,66
1766015912.263239,65
1766015912.26424,64
1766015912.265244,64
1766015912.266243,62
1766015912.267246,61
1766015912.2682502,63
1766015912.269248,61
1766015912.270256,60
1766015912.271264,60
1766015912.272269,64
1766015912.273258,64
1766015912.2742631,61
1766015912.275276,62
1766015912.276275,61
1766015912.277281,59
1766015912.278292,63
1766015912.279287,63
1766015912.280267,66
1766015912.281285,67
1766015912.282279,65
1766015912.283295,62
1766015912.284299,63
1766015912.28531,64
1766015912.2863,66
1766015912.287308,61
1766015912.288307,63
1766015912.2893078,63
1766015912.290314,60
1766015912.291321,63
1766015912.292328,63
1766015912.29332,62
1766015912.294334,64
1766015912.295325,62
1766015912.296343,62
1766015912.2973409,62
1766015912.298342,61
1766015912.2993438,63
1766015912.300354,64
1766015912.301375,61
1766015912.302366,61
1766015912.303357,59
1766015912.3043551,55
1766015912.305368,60
1766015912.3063738,59
1766015912.3073652,58
1766015912.308367,60
1766015912.30936,59
1766015912.310356,61
1766015912.3113668,62
1766015912.312372,60
1766015912.313386,59
1766015912.314377,60
1766015912.3153589,57
1766015912.316349,57
1766015912.3173912,56
1766015912.31838,58
1766015912.319392,58
1766015912.320395,58
1766015912.3214028,58
1766015912.32239,56
1766015912.323392,54
1766015912.324404,57
1766015912.325408,56
1766015912.3264089,53
1766015912.327408,55
1766015912.3284018,57
1766015912.329406,55
1766015912.330424,58
1766015912.331424,57
1766015912.3324218,56
1766015912.3334222,59
1766015912.3344262,55
1766015912.3354309,51
1766015912.336436,55
1766015912.337431,53
1766015912.338443,56
1766015912.339443,57
1766015912.340449,53
1766015912.341453,54
1766015912.342442,51
1766015912.343436,52
1766015912.344455,52
1766015912.345462,52
1766015912.346462,54
1766015912.347466,54
1766015912.3484669,55
1766015912.34948,51
1766015912.350482,50
1766015912.351487,49
1766015912.35248,52
1766015912.353477,51
1766015912.354479,49
1766015912.355496,47
1766015912.3564959,48
1766015912.3574872,48
1766015912.358498,50
1766015912.359484,47
1766015912.360511,45
1766015912.361494,46
1766015912.362498,48
1766015912.363499,49
1766015912.3645089,54
1766015912.365508,54
1766015912.3665159,52
1766015912.36752,52
1766015912.368521,53
1766015912.369517,56
1766015912.370518,54
1766015912.3715231,56
1766015912.372523,54
1766015912.3735192,56
1766015912.374537,58
1766015912.37553,57
1766015912.376532,56
1766015912.377527,59
1766015912.3785322,60
1766015912.3795478,56
1766015912.3805382,59
1766015912.3815522,56
1766015912.3825521,57
1766015912.383571,58
1766015912.3845701,58
1766015912.385567,57
1766015912.3865652,56
1766015912.3875709,56
1766015912.388569,55
1766015912.3895779,55
1766015912.390583,56
1766015912.3915908,55
1766015912.392576,55
1766015912.393582,54
1766015912.3945868,53
1766015912.395603,56
1766015912.3965929,55
1766015912.39759,52
1766015912.398606,53
1766015912.399603,52
1766015912.4006069,52
1766015912.4016068,52
1766015912.402624,53
1766015912.4036229,49
1766015912.404629,50
1766015912.405625,50
1766015912.406626,47
1766015912.407637,51
1766015912.4086359,44
1766015912.409638,47
1766015912.410642,43
1766015912.411639,46
1766015912.412639,50
1766015912.4136388,46
1766015912.414638,47
1766015912.415657,45
1766015912.416642,47
1766015912.4176471,44
1766015912.418659,48
1766015912.419654,48
1766015912.4206662,51
1766015912.421655,50
1766015912.4226649,53
1766015912.423671,51
1766015912.424674,50
1766015912.425688,49
1766015912.4266932,48
1766015912.4276962,52
1766015912.428703,52
1766015912.4296918,51
1766015912.430702,50
1766015912.4317079,55
1766015912.432708,57
1766015912.433706,54
1766015912.434695,58
1766015912.43571,57
1766015912.436716,59
1766015912.437715,55
1766015912.438735,54
1766015912.4397361,54
1766015912.440707,57
1766015912.4417138,55
1766015912.44273,54
1766015912.443736,56
1766015912.4447439,58
1766015912.445735,56
1766015912.44673,57
1766015912.4477491,58
1766015912.448742,56
1766015912.449746,57
1766015912.450751,56
1766015912.4517481,57
1766015912.452758,56
1766015912.453755,59
1766015912.454763,53
1766015912.455762,55
1766015912.456768,53
1766015912.457768,55
1766015912.458768,54
1766015912.459769,52
1766015912.460787,53
1766015912.461789,53
1766015912.46278,53
1766015912.463787,51
1766015912.464787,53
1766015912.465784,51
1766015912.4667819,52
1766015912.467788,50
1766015912.468813,51
1766015912.46981,49
1766015912.4708202,52
1766015912.471819,50
1766015912.472818,49
1766015912.4738162,45
1766015912.474821,47
1766015912.475853,48
1766015912.47683,48
1766015912.4778318,42
1766015912.478845,46
1766015912.4798322,47
1766015912.480835,45
1766015912.481838,44
1766015912.4828422,43
1766015912.4838521,42
1766015912.4848619,44
1766015912.485858,45
1766015912.4868648,43
1766015912.4878662,45
1766015912.488878,43
1766015912.4898791,44
1766015912.490855,44
1766015912.491859,45
1766015912.492893,45
1766015912.493875,47
1766015912.494899,50
1766015912.4958851,55
1766015912.496873,60
1766015912.497888,58
1766015912.4988859,60
1766015912.499897,63
1766015912.500903,60
1766015912.5019011,65
1766015912.5029042,62
1766015912.5038972,63
1766015912.5049112,60
1766015912.5059059,61
1766015912.506915,64
1766015912.507916,59
1766015912.508899,61
1766015912.509907,62
1766015912.511005,62
1766015912.512008,62
1766015912.5130088,64
1766015912.513912,63
1766015912.515007,65
1766015912.516006,66
1766015912.517013,62
1766015912.5180001,62
1766015912.5190048,63
1766015912.5200052,62
1766015912.521012,61
1766015912.522004,61
1766015912.523009,62
1766015912.5240052,59
1766015912.5250041,61
1766015912.526003,60
1766015912.527005,62
1766015912.528008,59
1766015912.5290098,56
1766015912.530005,55
1766015912.531005,58
1766015912.532002,58
1766015912.533,55
1766015912.5340018,58
1766015912.535006,57
1766015912.536004,53
1766015912.537005,52
1766015912.538003,54
1766015912.5390122,55
1766015912.540003,53
1766015912.5410008,53
1766015912.542002,55
1766015912.5430222,55
1766015912.544024,54
1766015912.5450199,54
1766015912.5460181,52
1766015912.54702,52
1766015912.548031,52
1766015912.549015,55
1766015912.55003,49
1766015912.551044,53
1766015912.5520551,51
1766015912.553042,50
1766015912.554057,52
1766015912.5550551,52
1766015912.556065,48
1766015912.5570612,49
1766015912.55807,52
1766015912.5590458,48
1766015912.560061,43
1766015912.5610769,48
1766015912.562075,48
1766015912.5630789,47
1766015912.564091,47
1766015912.5650718,48
1766015912.566079,48
1766015912.567072,45
1766015912.568085,45
1766015912.569074,46
1766015912.5701041,48
1766015912.571094,43
1766015912.572098,45
1766015912.573107,48
1766015912.574095,44
1766015912.575093,48
1766015912.576097,46
1766015912.577122,45
1766015912.578124,45
1766015912.579127,46
1766015912.580112,47
1766015912.581126,46
1766015912.58212,47
1766015912.583122,45
1766015912.584158,45
1766015912.585144,47
1766015912.586151,50
1766015912.587157,44
1766015912.5881531,46
1766015912.589153,49
1766015912.5901508,47
1766015912.591163,45
1766015912.592151,46
1766015912.593164,46
1766015912.5941708,49
1766015912.59517,46
1766015912.5961652,46
1766015912.597176,47
1766015912.5981781,47
1766015912.599168,47
1766015912.600173,44
1766015912.601194,45
1766015912.602207,43
1766015912.60318,45
1766015912.604191,48
1766015912.605209,45
1766015912.6062038,45
1766015912.60721,45
1766015912.608202,44
1766015912.609209,45
1766015912.610205,44
1766015912.611212,41
1766015912.6122181,45
1766015912.613227,43
1766015912.614229,41
1766015912.6152089,42
1766015912.6162229,43
1766015912.617237,42
1766015912.6182342,43
1766015912.619234,45
1766015912.620244,47
1766015912.621235,42
1766015912.622228,44
1766015912.62324,42
1766015912.624227,45
1766015912.6252549,45
1766015912.626249,45
1766015912.627257,44
1766015912.628256,44
1766015912.629258,46
1766015912.630274,44
1766015912.63126,41
1766015912.632261,45
1766015912.633277,44
1766015912.634262,41
1766015912.6352682,43
1766015912.636271,41
1766015912.637291,44
1766015912.638305,43
1766015912.639282,43
1766015912.640288,48
1766015912.641291,43
1766015912.642289,47
1766015912.643308,46
1766015912.644305,49
1766015912.645296,47
1766015912.646305,48
1766015912.6473,46
1766015912.648314,48
1766015912.6493099,50
1766015912.650316,49
1766015912.651312,46
1766015912.6523242,48
1766015912.653332,47
1766015912.654326,48
1766015912.655345,50
1766015912.656319,47
1766015912.6573272,44
1766015912.658336,49
1766015912.659355,45
1766015912.660348,44
1766015912.661342,46
1766015912.662346,45
1766015912.663358,47
1766015912.664355,47
1766015912.665364,47
1766015912.666359,45
1766015912.6673548,46
1766015912.668365,43
1766015912.669374,44
1766015912.670356,43
1766015912.671375,44
1766015912.6723819,45
1766015912.6733818,44
1766015912.674371,43
1766015912.6753962,42
1766015912.676391,43
1766015912.677404,42
1766015912.67839,43
1766015912.679408,45
1766015912.680386,44
1766015912.6813922,45
1766015912.682401,41
1766015912.6834009,40
1766015912.684408,43
1766015912.685416,43
1766015912.686425,39
1766015912.68742,41
1766015912.688406,42
1766015912.6894321,41
1766015912.690428,41
1766015912.691448,38
1766015912.692439,39
1766015912.693442,42
1766015912.694452,40
1766015912.695432,39
1766015912.6964521,43
1766015912.697451,41
1766015912.6984441,43
1766015912.699454,43
1766015912.7004611,39
1766015912.7014642,41
1766015912.702464,43
1766015912.703464,41
1766015912.704467,40
1766015912.705468,40
1766015912.7064698,41
1766015912.707476,41
1766015912.708481,40
1766015912.709483,41
1766015912.710476,42
1766015912.711487,41
1766015912.712456,39
1766015912.71346,39
1766015912.714448,40
1766015912.715449,39
1766015912.7164679,41
1766015912.717471,37
1766015912.7184582,39
1766015912.7194629,35
1766015912.720484,38
1766015912.721482,37
1766015912.722465,37
1766015912.723476,37
1766015912.724475,39
1766015912.7254841,37
1766015912.726495,37
1766015912.727534,39
1766015912.728531,40
1766015912.72954,39
1766015912.7305322,36
1766015912.7315369,37
1766015912.732544,38
1766015912.733557,38
1766015912.734551,38
1766015912.735554,38
1766015912.7365382,37
1766015912.73755,38
1766015912.738573,39
1766015912.739553,39
1766015912.740557,39
1766015912.741567,36
1766015912.7425668,39
1766015912.7435808,35
1766015912.744555,37
1766015912.745593,38
1766015912.746591,40
1766015912.747586,37
1766015912.748587,38
1766015912.749582,38
1766015912.750581,39
1766015912.751588,37
1766015912.7525911,37
1766015912.753591,40
1766015912.754612,42
1766015912.7556,41
1766015912.756602,42
