timestamp,emg_value
1766015948.90435,43
1766015948.904366,44
1766015948.9043782,47
1766015948.9043891,42
1766015948.9043992,45
1766015948.9044108,44
1766015948.904421,44
1766015948.904432,45
1766015948.904442,43
1766015948.904453,44
1766015948.904463,41
1766015948.904474,43
1766015948.904484,44
1766015948.904495,40
1766015948.904507,43
1766015948.904518,42
1766015948.904528,41
1766015948.9045389,42
1766015948.9045491,40
1766015948.9045591,41
1766015948.9045708,44
1766015948.904581,43
1766015948.9045918,40
1766015948.904602,44
1766015948.904612,40
1766015948.904623,43
1766015948.904633,40
1766015948.9046452,41
1766015948.904657,43
1766015948.904669,42
1766015948.904681,41
1766015948.904693,42
1766015948.9047098,39
1766015948.904722,37
1766015948.904732,40
1766015948.904742,39
1766015948.904752,37
1766015948.904762,41
1766015948.904772,40
1766015948.904782,39
1766015948.904792,41
1766015948.904802,41
1766015948.904812,39
1766015948.904822,37
1766015948.904832,39
1766015948.904844,39
1766015948.904854,40
1766015948.904865,42
1766015948.904875,43
1766015948.904885,41
1766015948.904895,40
1766015948.9049048,41
1766015948.904916,39
1766015948.904927,36
1766015948.904937,37
1766015948.904947,37
1766015948.904958,36
1766015948.904968,35
1766015948.904978,39
1766015948.9049878,35
1766015948.9049978,39
1766015948.905008,38
1766015948.9050188,38
1766015948.905029,36
1766015948.905041,39
1766015948.9051049,40
1766015948.905115,39
1766015948.9051251,41
1766015948.9051352,38
1766015948.9051452,36
1766015948.9051561,38
1766015948.9051661,39
1766015948.9051762,43
1766015948.9051871,40
1766015948.9051971,39
1766015948.9052072,40
1766015948.9052181,42
1766015948.9052422,41
1766015948.9052532,37
1766015948.9052641,41
1766015948.9052742,38
1766015948.9052842,37
1766015948.9052942,38
1766015948.9053051,39
1766015948.9053152,39
1766015948.9053252,38
1766015948.905335,40
1766015948.9053462,37
1766015948.905356,42
1766015948.905366,36
1766015948.905376,37
1766015948.905387,39
1766015948.905397,37
1766015948.905419,40
1766015948.905431,41
1766015948.905442,37
1766015948.905452,40
1766015948.9054642,44
1766015948.9054751,42
1766015948.9054852,44
1766015948.905495,48
1766015948.905505,49
1766015948.905515,48
1766015948.905527,51
1766015948.905539,53
1766015948.905549,51
1766015948.90556,54
1766015948.90557,53
1766015948.90558,54
1766015948.905592,53
1766015948.9056032,49
1766015948.905613,51
1766015948.905623,51
1766015948.905633,50
1766015948.905643,54
1766015948.905654,50
1766015948.905664,50
1766015948.905674,50
1766015948.905685,50
1766015948.905696,50
1766015948.905705,49
1766015948.905715,50
1766015948.905725,48
1766015948.905736,49
1766015948.905746,49
1766015948.905756,48
1766015948.9057658,49
1766015948.905775,48
1766015948.905786,48
1766015948.905801,47
1766015948.9058108,48
1766015948.9058208,46
1766015948.9058309,47
1766015948.9058409,49
1766015948.905851,46
1766015948.9058611,47
1766015948.9058712,47
1766015948.9058812,46
1766015948.9058912,46
1766015948.905901,46
1766015948.905911,44
1766015948.905921,47
1766015948.905931,48
1766015948.905941,42
1766015948.905951,44
1766015948.905961,45
1766015948.905971,45
1766015948.9059808,42
1766015948.9059908,43
1766015948.9060018,43
1766015948.9060118,40
1766015948.9060218,43
1766015948.906032,41
1766015948.906042,43
1766015948.906052,44
1766015948.9060621,43
1766015948.9060721,42
1766015948.9060822,41
1766015948.906092,41
1766015948.906102,43
1766015948.906113,39
1766015948.906124,39
1766015948.906135,40
1766015948.906145,39
1766015948.906158,41
1766015948.906168,38
1766015948.9061792,42
1766015948.906189,38
1766015948.906199,38
1766015948.906208,38
1766015948.906218,39
1766015948.906229,39
1766015948.9062378,37
1766015948.906251,38
1766015948.906261,36
1766015948.906271,37
1766015948.906281,40
1766015948.906291,38
1766015948.906301,35
1766015948.9063108,36
1766015948.9063208,37
1766015948.9063308,36
1766015948.906341,36
1766015948.906351,39
1766015948.9063601,38
1766015948.9063702,37
1766015948.90638,39
1766015948.90639,36
1766015948.9064,39
1766015948.90641,37
1766015948.90642,36
1766015948.90643,38
1766015948.90644,40
1766015948.90645,38
1766015948.906462,37
1766015948.906472,39
1766015948.906482,36
1766015948.906492,39
1766015948.9065018,39
1766015948.9065118,38
1766015948.906522,38
1766015948.906532,39
1766015948.906542,39
1766015948.906552,38
1766015948.906562,40
1766015948.906572,35
1766015948.906582,38
1766015948.906592,39
1766015948.906602,37
1766015948.906612,36
1766015948.906622,38
1766015948.906632,39
1766015948.906642,37
1766015948.906652,37
1766015948.906662,39
1766015948.9066722,39
1766015948.906682,37
1766015948.906692,37
1766015948.906702,38
1766015948.906712,36
1766015948.906722,34
1766015948.906732,38
1766015948.906742,36
1766015948.906752,38
1766015948.906762,40
1766015948.906772,39
1766015948.906784,36
1766015948.906794,39
1766015948.906804,39
1766015948.9068139,37
1766015948.9068239,40
1766015948.906834,37
1766015948.906844,39
1766015948.906867,38
1766015948.906877,36
1766015948.9068868,40
1766015948.9068968,37
1766015948.9069068,37
1766015948.906917,38
1766015948.906927,37
1766015948.9069371,37
1766015948.906946,35
1766015948.906956,33
1766015948.906966,38
1766015948.906977,35
1766015948.906987,36
1766015948.906997,38
1766015948.907007,35
1766015948.907017,34
1766015948.907027,35
1766015948.907037,35
1766015948.9070468,35
1766015948.9070568,34
1766015948.907066,35
1766015948.9070761,32
1766015948.907087,35
1766015948.907097,35
1766015948.9071062,35
1766015948.907118,32
1766015948.907129,36
1766015948.907139,33
1766015948.907149,35
1766015948.907159,34
1766015948.907169,32
1766015948.907179,34
1766015948.907189,37
1766015948.907199,32
1766015948.907209,31
1766015948.907219,30
1766015948.907229,35
1766015948.907239,32
1766015948.907249,33
1766015948.907259,32
1766015948.907271,32
1766015948.907281,33
1766015948.907291,31
1766015948.9073012,31
1766015948.9073112,33
1766015948.9073222,33
1766015948.9073322,31
1766015948.9073422,31
1766015948.907352,36
1766015948.907362,32
1766015948.907372,28
1766015948.907382,29
1766015948.907392,31
1766015948.907402,29
1766015948.907412,31
1766015948.907422,29
1766015948.9074318,30
1766015948.907441,28
1766015948.9074528,28
1766015948.9074628,30
1766015948.9074728,29
1766015948.9074829,30
1766015948.907493,30
1766015948.9075031,32
1766015948.9075131,28
1766015948.9075232,30
1766015948.9075332,31
1766015948.907543,30
1766015948.907553,26
1766015948.907563,30
1766015948.907573,32
1766015948.907583,28
1766015948.907593,28
1766015948.907603,30
1766015948.907613,29
1766015948.9076228,28
1766015948.907634,29
1766015948.9076438,29
1766015948.9076538,27
1766015948.9076638,27
1766015948.9076731,31
1766015948.907684,28
1766015948.907694,29
1766015948.907704,30
1766015948.907713,28
1766015948.907723,29
1766015948.907733,28
1766015948.907743,28
1766015948.907753,27
1766015948.907763,27
1766015948.907776,29
1766015948.907786,26
1766015948.907796,26
1766015948.907806,28
1766015948.907816,25
1766015948.907826,27
1766015948.907836,27
1766015948.907846,25
1766015948.907857,29
1766015948.907867,26
1766015948.9078772,25
1766015948.9078872,25
1766015948.907897,26
1766015948.907907,25
1766015948.907917,24
1766015948.907927,26
1766015948.907937,27
1766015948.907947,27
1766015948.907957,23
1766015948.907967,27
1766015948.9079769,26
1766015948.907988,27
1766015948.9079978,28
1766015948.9080079,25
1766015948.9080179,27
1766015948.908028,24
1766015948.908038,26
1766015948.908048,26
1766015948.9080582,29
1766015948.9080682,24
1766015948.90808,26
1766015948.90809,27
1766015948.908101,27
1766015948.9081118,25
1766015948.908122,25
1766015948.908132,25
1766015948.908142,25
1766015948.908152,25
1766015948.908162,27
1766015948.9081721,24
1766015948.908182,27
1766015948.908192,27
1766015948.908202,26
1766015948.908212,25
1766015948.908222,24
1766015948.908232,22
1766015948.908242,26
1766015948.908252,24
1766015948.908297,23
1766015948.90831,27
1766015948.90832,24
1766015948.908331,24
1766015948.908341,25
1766015948.908351,21
1766015948.908361,25
1766015948.908371,23
1766015948.908381,25
1766015948.908391,25
1766015948.908401,26
1766015948.9084108,25
1766015948.908421,24
1766015948.908431,25
1766015948.908441,23
1766015948.908451,23
1766015948.908461,21
1766015948.908473,25
1766015948.908484,25
1766015948.908493,23
1766015948.908503,23
1766015948.908513,24
1766015948.908523,22
1766015948.908533,22
1766015948.9085429,24
1766015948.908553,24
1766015948.908563,24
1766015948.908573,22
1766015948.908583,26
1766015948.908593,24
1766015948.9086049,25
1766015948.9086149,23
1766015948.908625,26
1766015948.908635,27
1766015948.9086452,26
1766015948.9086552,25
1766015948.9086652,20
1766015948.908675,22
1766015948.908685,26
1766015948.908695,23
1766015948.908705,25
1766015948.908715,25
1766015948.908725,24
1766015948.908735,24
1766015948.908745,23
1766015948.9087548,23
1766015948.908764,23
1766015948.9087749,20
1766015948.9087849,26
1766015948.9087958,23
1766015948.9088058,24
1766015948.9088159,25
1766015948.908826,23
1766015948.9088361,22
1766015948.9088461,22
1766015948.9088562,20
1766015948.9088662,24
1766015948.9088771,21
1766015948.908886,24
1766015948.908896,24
1766015948.908907,25
1766015948.908916,23
1766015948.908926,22
1766015948.908936,25
1766015948.908946,21
1766015948.9089558,23
1766015948.9089658,25
1766015948.908976,27
1766015948.908986,20
1766015948.908996,22
1766015948.909006,22
1766015948.9090161,24
1766015948.9090261,24
1766015948.909036,21
1766015948.909046,25
1766015948.909056,25
1766015948.909066,24
1766015948.909076,23
1766015948.909086,19
1766015948.909096,24
1766015948.909106,23
1766015948.9091158,22
1766015948.909149,20
1766015948.909162,24
1766015948.909172,23
1766015948.9091818,24
1766015948.909194,22
1766015948.909204,21
1766015948.909215,23
1766015948.909225,23
1766015948.909235,23
1766015948.909245,22
1766015948.909255,23
1766015948.9092648,23
1766015948.9092748,24
1766015948.909285,23
1766015948.909296,25
1766015948.909306,23
1766015948.909316,24
1766015948.909326,23
1766015948.909336,23
1766015948.909346,22
1766015948.909356,23
1766015948.9093661,19
1766015948.909376,22
1766015948.909387,21
1766015948.909397,22
1766015948.909407,21
1766015948.909417,26
1766015948.909427,22
1766015948.909437,21
1766015948.909448,19
1766015948.909458,24
1766015948.909468,23
1766015948.909481,22
1766015948.909491,21
1766015948.9095008,22
1766015948.9095109,23
1766015948.9095209,21
1766015948.9095309,23
1766015948.9095411,21
1766015948.909552,21
1766015948.909562,21
1766015948.9095721,25
1766015948.9095821,21
1766015948.9095922,23
1766015948.9096022,23
1766015948.909612,23
1766015948.9096231,23
1766015948.909633,21
1766015948.909643,20
1766015948.909653,22
1766015948.909663,21
1766015948.909673,21
1766015948.909683,24
1766015948.909693,21
1766015948.909704,20
1766015948.909714,22
1766015948.909724,24
1766015948.9097338,24
1766015948.909744,22
1766015948.909755,23
1766015948.909765,25
1766015948.909775,26
1766015948.909785,23
1766015948.909795,22
1766015948.9098072,23
1766015948.909817,22
1766015948.909827,21
1766015948.909837,20
1766015948.909893,23
1766015948.9099038,22
1766015948.909914,18
1766015948.909924,25
1766015948.909934,23
1766015948.909944,23
1766015948.909954,23
1766015948.909965,25
1766015948.909975,23
1766015948.909985,23
1766015948.909995,22
1766015948.910005,20
1766015948.9100149,20
1766015948.910025,20
1766015948.910035,25
1766015948.9100502,22
1766015948.91006,19
1766015948.910078,23
1766015948.9100878,22
1766015948.9100978,23
1766015948.9101079,23
1766015948.9101179,24
1766015948.9101288,24
1766015948.9101381,23
1766015948.9101481,22
1766015948.910159,23
1766015948.9101691,25
1766015948.9101791,20
1766015948.9101892,24
1766015948.910202,22
1766015948.910212,24
1766015948.910222,25
1766015948.910232,22
1766015948.910243,24
1766015948.910253,23
1766015948.910263,24
1766015948.910273,23
1766015948.910283,22
1766015948.910294,21
1766015948.910304,24
1766015948.910314,23
1766015948.9103239,23
1766015948.9103339,26
1766015948.910344,26
1766015948.910354,24
1766015948.9103649,24
1766015948.9103749,23
1766015948.910385,25
1766015948.910395,24
1766015948.9104052,24
1766015948.9104152,23
1766015948.9104252,24
1766015948.910435,23
1766015948.910445,24
1766015948.910455,24
1766015948.910465,24
1766015948.910475,25
1766015948.910485,22
1766015948.910495,23
1766015948.910505,21
1766015948.9105148,21
1766015948.910526,26
1766015948.910536,24
1766015948.9105458,25
1766015948.910557,24
1766015948.9105668,27
1766015948.9105768,20
1766015948.9105868,24
1766015948.910597,25
1766015948.910607,25
1766015948.910618,21
1766015948.910628,21
1766015948.910639,24
1766015948.910649,25
1766015948.910659,26
1766015948.910669,22
1766015948.91068,25
1766015948.91069,25
1766015948.9107,23
1766015948.91071,23
1766015948.91072,22
1766015948.91073,25
1766015948.910741,24
1766015948.9107509,25
1766015948.9107609,23
1766015948.910771,25
1766015948.9107819,26
1766015948.9107919,28
1766015948.910802,25
1766015948.9108129,28
1766015948.9108229,29
1766015948.910833,30
1766015948.910843,27
1766015948.910856,29
1766015948.910866,29
1766015948.9108758,28
1766015948.9108858,30
1766015948.910899,30
1766015948.910909,27
1766015948.910919,30
1766015948.910929,29
1766015948.910939,29
1766015948.9109492,28
1766015948.910959,30
1766015948.910975,30
1766015948.911121,28
1766015948.911145,30
1766015948.911159,31
1766015948.911173,29
1766015948.911187,31
1766015948.911201,27
1766015948.911214,31
1766015948.911228,31
1766015948.911242,31
1766015948.9112551,30
1766015948.9112692,29
1766015948.9112818,31
1766015948.911296,33
1766015948.9113102,30
1766015948.9113228,30
1766015948.911337,31
1766015948.91135,31
1766015948.911364,30
1766015948.911377,29
1766015948.91139,31
1766015948.9114041,27
1766015948.911422,32
1766015948.911435,32
1766015948.9114492,31
1766015948.911463,30
1766015948.911476,29
1766015948.91149,29
1766015948.911503,32
1766015948.911517,28
1766015948.91153,29
1766015948.911544,32
1766015948.9115572,30
1766015948.911571,29
1766015948.911585,31
1766015948.9115992,31
1766015948.9116118,31
1766015948.911626,31
1766015948.911639,32
1766015948.911653,29
1766015948.911666,34
1766015948.91168,33
1766015948.911694,36
1766015948.911707,34
1766015948.911721,33
1766015948.9117591,33
1766015948.911794,32
1766015948.911808,33
1766015948.911825,33
1766015948.911839,32
1766015948.911851,33
1766015948.911865,31
1766015948.9118772,31
1766015948.911891,36
1766015948.911906,32
1766015948.91192,34
1766015948.911933,33
1766015948.911946,34
1766015948.911959,33
1766015948.911972,32
1766015948.911985,35
1766015948.911998,33
1766015948.912011,35
1766015948.912024,32
1766015948.9120371,34
1766015948.91205,34
1766015948.912062,34
1766015948.912075,35
1766015948.912089,33
1766015948.912102,35
1766015948.9121149,36
1766015948.912128,36
1766015948.912141,35
1766015948.9121542,33
1766015948.9121659,35
1766015948.912179,35
1766015948.912192,31
1766015948.912205,33
1766015948.912218,34
1766015948.9122298,34
1766015948.912243,34
1766015948.912256,33
1766015948.912269,33
1766015948.9122822,34
1766015948.9122949,32
1766015948.912308,35
1766015948.912321,35
1766015948.9123368,37
1766015948.91235,36
1766015948.912363,35
1766015948.9123762,35
1766015948.912392,39
1766015948.912406,41
1766015948.912419,38
1766015948.9124322,40
1766015948.9124448,37
1766015948.912458,39
1766015948.912471,42
1766015948.9124842,40
1766015948.9124968,39
1766015948.912509,41
1766015948.912522,39
1766015948.912535,41
1766015948.912548,43
1766015948.912561,39
1766015948.912574,39
1766015948.912587,40
1766015948.9126,42
1766015948.9126132,43
1766015948.912626,44
1766015948.912639,45
1766015948.912652,44
1766015948.9126651,45
1766015948.912678,46
1766015948.9126909,44
1766015948.912704,42
1766015948.912717,42
1766015948.9127302,43
1766015948.912742,44
1766015948.912755,44
1766015948.9127722,43
1766015948.9127848,42
1766015948.912798,43
1766015948.912811,44
1766015948.912823,46
1766015948.912836,44
1766015948.912849,44
1766015948.912862,43
1766015948.912875,44
1766015948.912888,45
1766015948.9129012,46
1766015948.912914,43
1766015948.912927,43
1766015948.912939,45
1766015948.912952,45
1766015948.912965,43
1766015948.912999,42
1766015948.913012,43
1766015948.913024,44
1766015948.913037,45
1766015948.9130502,45
1766015948.9130628,43
1766015948.913076,44
1766015948.913089,42
1766015948.9131021,42
1766015948.9131148,42
1766015948.913128,42
1766015948.913141,41
1766015948.9131541,44
1766015948.913167,41
1766015948.9131799,39
1766015948.913193,42
1766015948.9132092,39
1766015948.9132218,43
1766015948.913235,40
1766015948.9132469,40
1766015948.91326,40
1766015948.913273,39
1766015948.913286,40
1766015948.9132988,41
1766015948.913312,39
1766015948.913325,39
1766015948.9133382,42
1766015948.9133508,38
1766015948.913364,38
1766015948.913377,42
1766015948.9133902,41
1766015948.913402,45
1766015948.913416,42
1766015948.913429,41
1766015948.9134421,42
1766015948.913455,42
1766015948.913468,41
1766015948.913481,42
1766015948.913494,46
1766015948.913507,45
1766015948.91352,45
1766015948.913533,43
1766015948.913546,43
1766015948.913558,43
1766015948.9135711,45
1766015948.9135842,41
1766015948.9135969,45
1766015948.91361,42
1766015948.913623,44
1766015948.9136388,42
1766015948.913652,40
1766015948.913665,43
1766015948.9136782,43
1766015948.9136908,43
1766015948.913704,41
1766015948.913717,42
1766015948.9137301,41
1766015948.913743,42
1766015948.913756,39
1766015948.913769,38
1766015948.9137821,38
1766015948.913795,39
1766015948.9138079,38
1766015948.913821,36
1766015948.913834,39
1766015948.913847,37
1766015948.91386,38
1766015948.913873,38
1766015948.913886,39
1766015948.913899,38
1766015948.913912,37
1766015948.9139252,36
1766015948.9139378,33
1766015948.913951,35
1766015948.913964,37
1766015948.9139771,36
1766015948.9139898,35
1766015948.914003,33
1766015948.914015,33
1766015948.914026,34
1766015948.914036,35
1766015948.914048,35
1766015948.91406,36
1766015948.9140701,36
1766015948.91408,36
1766015948.91409,33
1766015948.9141,34
1766015948.91411,36
1766015948.91412,36
1766015948.91413,34
1766015948.91414,35
1766015948.91415,33
1766015948.91416,32
1766015948.91417,33
1766015948.9141812,34
1766015948.914191,36
1766015948.914201,35
1766015948.914211,34
1766015948.914221,34
1766015948.914231,31
1766015948.9142442,32
1766015948.9142542,31
1766015948.914264,29
1766015948.914274,33
1766015948.914291,32
1766015948.914301,32
1766015948.914311,32
1766015948.914322,32
1766015948.914332,34
1766015948.914342,31
1766015948.9143522,34
1766015948.9143622,31
1766015948.9143722,34
1766015948.914382,33
1766015948.9143941,32
1766015948.9144042,32
1766015948.9144151,34
1766015948.9144251,30
1766015948.9144351,31
1766015948.9144452,30
1766015948.914455,29
1766015948.914465,28
1766015948.914475,31
1766015948.914486,34
1766015948.914496,31
1766015948.914506,31
1766015948.914516,26
1766015948.914527,28
1766015948.914537,29
1766015948.914547,29
1766015948.914557,27
1766015948.914568,29
1766015948.914578,30
1766015948.914588,32
1766015948.914598,32
1766015948.9146082,30
1766015948.914618,33
1766015948.914628,28
1766015948.914638,28
1766015948.914648,30
1766015948.914658,30
1766015948.914668,27
1766015948.914678,29
1766015948.914688,31
1766015948.914698,29
1766015948.914708,28
1766015948.914718,29
1766015948.91473,29
1766015948.914741,29
1766015948.914751,28
1766015948.914761,31
1766015948.9147708,29
1766015948.9147809,26
1766015948.9147909,29
1766015948.914801,30
1766015948.914811,29
1766015948.9148211,27
1766015948.9148312,28
1766015948.9148421,27
1766015948.9148521,27
1766015948.9148622,28
1766015948.9148722,27
1766015948.914882,27
1766015948.914892,30
1766015948.914902,27
1766015948.914912,27
1766015948.914922,28
1766015948.914932,28
1766015948.914942,28
1766015948.914952,26
1766015948.914963,26
1766015948.914973,25
1766015948.9149828,27
1766015948.9149928,29
1766015948.9150028,28
1766015948.915013,26
1766015948.915023,30
1766015948.915033,26
1766015948.915043,26
1766015948.9150531,28
1766015948.915065,28
1766015948.915075,26
1766015948.915085,27
1766015948.915095,25
1766015948.915105,28
1766015948.915115,29
1766015948.915125,25
1766015948.915135,25
1766015948.915145,23
1766015948.915155,26
1766015948.915165,26
1766015948.915175,25
1766015948.915185,25
1766015948.915195,26
1766015948.915205,27
1766015948.915215,27
1766015948.915225,28
1766015948.915235,26
1766015948.915245,26
1766015948.915255,24
1766015948.915265,27
1766015948.915275,27
1766015948.915285,25
1766015948.915295,28
1766015948.915305,26
1766015948.915315,25
1766015948.915325,24
1766015948.915334,26
1766015948.915345,26
1766015948.915355,24
1766015948.915366,23
1766015948.9153762,25
1766015948.9153888,24
1766015948.9154,23
1766015948.9154098,24
1766015948.9154198,25
1766015948.9154298,27
1766015948.91544,24
1766015948.9154491,25
1766015948.91546,26
1766015948.9154701,25
1766015948.915479,27
1766015948.915489,25
1766015948.915499,26
1766015948.915509,24
1766015948.915519,23
1766015948.91553,23
1766015948.91554,25
1766015948.91555,25
1766015948.91556,23
1766015948.91557,23
1766015948.9155788,24
1766015948.915589,26
1766015948.915599,21
1766015948.9156091,26
1766015948.9156191,24
1766015948.91563,22
1766015948.91564,23
1766015948.9156501,22
1766015948.9156601,24
1766015948.91567,23
1766015948.91568,25
1766015948.91569,24
1766015948.9157,19
1766015948.91571,23
1766015948.915721,21
1766015948.915731,22
1766015948.915741,24
1766015948.915751,26
1766015948.915761,22
1766015948.9157708,22
1766015948.915781,25
1766015948.915791,22
1766015948.915801,24
1766015948.915811,25
1766015948.915821,24
1766015948.915831,24
1766015948.915841,22
1766015948.915851,24
1766015948.915861,21
1766015948.915871,21
1766015948.915881,24
1766015948.915891,21
1766015948.915902,25
1766015948.915911,25
1766015948.915921,26
1766015948.915932,23
1766015948.9159412,28
1766015948.9159522,25
1766015948.915961,26
1766015948.915972,22
1766015948.915982,26
1766015948.915992,26
1766015948.916002,25
1766015948.916012,23
1766015948.916022,20
1766015948.916032,22
1766015948.916043,26
1766015948.916053,22
1766015948.916063,25
1766015948.9160728,25
1766015948.9160829,27
1766015948.9160929,23
1766015948.916103,26
1766015948.916113,24
1766015948.916123,27
1766015948.9161332,25
1766015948.9161432,24
1766015948.9161532,25
1766015948.916163,26
1766015948.916173,24
1766015948.916183,24
1766015948.916193,23
1766015948.916203,25
1766015948.916213,28
1766015948.916223,27
1766015948.916233,27
1766015948.916244,24
1766015948.916254,25
1766015948.916265,22
1766015948.916275,28
1766015948.916285,24
1766015948.9162948,23
1766015948.9163048,26
1766015948.9163148,23
1766015948.916325,28
1766015948.916335,25
1766015948.9163451,26
1766015948.9163551,26
1766015948.9163651,26
1766015948.916379,28
1766015948.916391,26
1766015948.916401,26
1766015948.916411,27
1766015948.916422,24
1766015948.916432,28
1766015948.9164422,25
1766015948.9164522,26
1766015948.9164622,29
1766015948.916472,27
1766015948.916482,24
1766015948.916492,24
1766015948.916502,29
1766015948.916512,25
1766015948.916523,25
1766015948.916533,26
1766015948.916543,27
1766015948.916553,25
1766015948.916563,28
1766015948.916574,25
1766015948.916584,25
1766015948.9165928,26
1766015948.9166028,28
1766015948.916613,26
1766015948.9166238,27
1766015948.916634,28
1766015948.916644,28
1766015948.916654,28
1766015948.9166641,30
1766015948.9166741,25
1766015948.916685,25
1766015948.916696,26
1766015948.916706,27
1766015948.916717,27
1766015948.916728,27
1766015948.916738,26
1766015948.916748,28
1766015948.916758,28
1766015948.916768,28
1766015948.916778,26
1766015948.9167879,27
1766015948.9167979,27
1766015948.916808,27
1766015948.916818,28
1766015948.916828,26
1766015948.916838,28
1766015948.9168482,27
1766015948.9168582,28
1766015948.9168682,27
1766015948.916878,25
1766015948.916888,29
1766015948.916898,28
1766015948.916908,27
1766015948.916918,28
1766015948.916928,29
1766015948.916938,25
1766015948.916948,27
1766015948.9169579,27
1766015948.9169679,26
1766015948.916978,29
1766015948.9169888,27
1766015948.916998,27
1766015948.917008,27
1766015948.917019,26
1766015948.9170291,29
1766015948.9170392,28
1766015948.9170501,26
1766015948.917061,26
1766015948.917071,29
1766015948.917081,28
1766015948.9170911,27
1766015948.917102,31
1766015948.917112,27
1766015948.9171221,29
1766015948.9171321,27
1766015948.917142,28
1766015948.917152,32
1766015948.917162,29
1766015948.917172,27
1766015948.917182,27
1766015948.917192,26
1766015948.917202,27
1766015948.917212,28
1766015948.9172218,26
1766015948.917233,26
1766015948.917242,27
1766015948.917252,30
1766015948.917263,27
1766015948.917273,25
1766015948.917282,31
1766015948.917292,30
1766015948.9173021,31
1766015948.917313,27
1766015948.917323,27
1766015948.917334,28
1766015948.917344,27
1766015948.917355,26
1766015948.917365,28
1766015948.917376,28
1766015948.917388,29
1766015948.917398,28
1766015948.917408,29
1766015948.917418,27
1766015948.917428,28
1766015948.917439,26
1766015948.91745,31
1766015948.91746,29
1766015948.91747,29
1766015948.91748,27
1766015948.91749,26
1766015948.9175,27
1766015948.9175098,27
1766015948.9175198,26
1766015948.91753,27
1766015948.91754,25
1766015948.91755,27
1766015948.917571,31
1766015948.917582,26
1766015948.917593,26
1766015948.917602,29
1766015948.917612,27
1766015948.917622,28
1766015948.917632,30
1766015948.9176419,26
1766015948.917652,28
1766015948.917662,29
1766015948.917672,26
1766015948.917682,28
1766015948.917692,28
1766015948.917702,28
1766015948.917712,25
1766015948.9177222,27
1766015948.917732,24
1766015948.917742,27
1766015948.917753,28
1766015948.917763,27
1766015948.917773,27
1766015948.917783,27
1766015948.917792,27
1766015948.917803,28
1766015948.917813,30
1766015948.917823,28
1766015948.917886,29
1766015948.917901,30
1766015948.917912,27
1766015948.917922,28
1766015948.917932,25
1766015948.917942,28
1766015948.917953,28
1766015948.917963,28
1766015948.917973,29
1766015948.917983,28
1766015948.917993,29
1766015948.9180028,29
1766015948.9180129,30
1766015948.9180229,28
1766015948.9180338,27
1766015948.9180439,27
1766015948.9180539,27
1766015948.918064,26
1766015948.9180741,27
1766015948.9180841,28
1766015948.9180942,27
1766015948.9181042,27
1766015948.918114,27
1766015948.918124,28
1766015948.918134,28
1766015948.918144,27
1766015948.918154,28
1766015948.918164,26
1766015948.918174,25
1766015948.918184,26
1766015948.9181938,23
1766015948.9182038,26
1766015948.91822,25
1766015948.91823,23
1766015948.91824,26
1766015948.91825,25
1766015948.9182599,25
1766015948.9182699,26
1766015948.9182878,26
1766015948.918298,26
1766015948.918308,25
1766015948.918318,26
1766015948.918329,25
1766015948.918339,26
1766015948.91835,26
1766015948.91836,26
1766015948.91837,26
1766015948.91838,27
1766015948.918389,26
1766015948.9184,24
1766015948.91841,26
1766015948.91842,27
1766015948.9184299,25
1766015948.9184399,26
1766015948.9184499,27
1766015948.91846,27
1766015948.91847,24
1766015948.9184792,25
1766015948.918489,26
1766015948.9185002,26
1766015948.9185102,25
1766015948.91852,25
1766015948.91853,26
1766015948.91854,22
1766015948.918549,25
1766015948.918559,26
1766015948.9185688,25
1766015948.91858,27
1766015948.91859,25
1766015948.9185998,25
1766015948.9186099,27
1766015948.9186199,27
1766015948.91863,25
1766015948.9186401,26
1766015948.9186502,23
1766015948.9186602,24
1766015948.9186702,25
1766015948.91868,24
1766015948.91869,24
1766015948.9187,24
1766015948.91871,27
1766015948.91872,24
1766015948.91873,24
1766015948.91874,25
1766015948.9187598,26
1766015948.918773,25
1766015948.918783,23
1766015948.918793,23
1766015948.9188411,26
1766015948.918854,25
1766015948.918865,24
1766015948.918875,27
1766015948.918886,26
1766015948.9188962,23
1766015948.918907,25
1766015948.9189172,22
1766015948.9189272,21
1766015948.9189382,24
1766015948.9189482,26
1766015948.9189582,24
1766015948.918968,25
1766015948.9189792,23
1766015948.918989,23
1766015948.918999,24
1766015948.919009,25
1766015948.919019,25
1766015948.91903,25
1766015948.91904,23
1766015948.91905,24
1766015948.91906,22
1766015948.919071,23
1766015948.919081,26
1766015948.919091,25
1766015948.919101,24
1766015948.919111,22
1766015948.9191208,25
1766015948.9191308,23
1766015948.9191418,23
1766015948.919152,25
1766015948.919162,25
1766015948.919172,24
1766015948.919182,20
1766015948.919192,23
1766015948.919202,23
1766015948.919212,23
1766015948.919222,24
1766015948.919233,26
1766015948.919243,25
1766015948.919253,22
1766015948.919263,21
1766015948.919273,23
1766015948.919283,22
1766015948.919293,21
1766015948.919304,23
1766015948.919314,24
1766015948.919326,22
1766015948.919337,24
1766015948.919348,22
1766015948.919358,24
1766015948.919368,22
1766015948.9193778,24
1766015948.9193878,22
1766015948.9193978,21
1766015948.919408,23
1766015948.9194188,23
1766015948.919429,23
1766015948.919439,24
1766015948.919449,26
1766015948.919459,24
1766015948.91947,25
1766015948.91948,21
1766015948.91949,23
1766015948.9195,22
1766015948.9195101,19
1766015948.91952,22
1766015948.91953,22
1766015948.91954,21
1766015948.919551,23
1766015948.919561,22
1766015948.919571,22
1766015948.919581,25
1766015948.919591,23
1766015948.919602,24
1766015948.919612,21
1766015948.919622,23
1766015948.919632,24
1766015948.9196422,22
1766015948.919652,22
1766015948.919662,22
1766015948.920371,24
1766015948.921351,25
1766015948.922405,23
1766015948.923367,23
1766015948.924362,24
1766015948.9253702,22
1766015948.92635,21
1766015948.927351,22
1766015948.928361,23
1766015948.929354,19
1766015948.93038,22
1766015948.931403,23
1766015948.932395,23
1766015948.9333901,22
1766015948.9343889,23
1766015948.935412,22
1766015948.936378,20
1766015948.937402,23
1766015948.9384031,23
1766015948.939389,21
1766015948.9404109,23
1766015948.9414191,24
1766015948.9424121,20
1766015948.943399,23
1766015948.9444091,23
1766015948.945426,21
1766015948.946412,25
1766015948.947412,24
1766015948.948415,20
1766015948.949428,22
1766015948.950476,19
1766015948.951445,21
1766015948.952457,24
1766015948.953443,21
1766015948.9544718,20
1766015948.955445,23
1766015948.956453,20
1766015948.957471,21
1766015948.9584541,23
1766015948.9594529,24
1766015948.960472,21
1766015948.961515,21
1766015948.962485,20
1766015948.963497,20
1766015948.9644759,24
1766015948.965485,22
1766015948.966502,23
1766015948.967531,22
1766015948.968492,25
1766015948.969506,23
1766015948.970496,23
1766015948.971495,21
1766015948.9724832,21
1766015948.973506,22
1766015948.974491,21
1766015948.975508,23
1766015948.976494,23
1766015948.977493,21
1766015948.9785101,23
1766015948.979504,23
1766015948.980481,25
1766015948.9814909,25
1766015948.982492,23
1766015948.9835079,24
1766015948.9845052,26
1766015948.985493,25
1766015948.986503,27
1766015948.987509,23
1766015948.988516,24
1766015948.989512,24
1766015948.9905229,27
1766015948.991515,22
1766015948.9925299,25
1766015948.993526,23
1766015948.9945269,25
1766015948.9955242,27
1766015948.9965491,24
1766015948.997571,25
1766015948.998583,25
1766015948.999567,25
1766015949.000569,24
1766015949.001558,23
1766015949.002559,23
1766015949.003553,25
1766015949.004577,24
1766015949.005567,24
1766015949.006571,25
1766015949.007564,26
1766015949.008592,25
1766015949.009593,26
1766015949.0105972,25
1766015949.011615,23
1766015949.012604,24
1766015949.0135849,23
1766015949.014598,25
1766015949.0156171,25
1766015949.0165849,27
1766015949.017584,23
1766015949.0185962,27
1766015949.019594,26
1766015949.02061,26
1766015949.021628,28
1766015949.022628,25
1766015949.023624,27
1766015949.024677,25
1766015949.025673,27
1766015949.026678,28
1766015949.027679,26
1766015949.028654,26
1766015949.029674,25
1766015949.0306702,25
1766015949.031672,23
1766015949.032695,27
1766015949.033687,28
1766015949.034685,28
1766015949.035702,27
1766015949.0367181,27
1766015949.037653,29
1766015949.038708,31
1766015949.039692,32
1766015949.04073,33
1766015949.041734,34
1766015949.0427468,36
1766015949.043733,35
1766015949.0447261,36
1766015949.0457458,34
1766015949.046722,34
1766015949.047701,33
1766015949.048724,36
1766015949.0497448,35
1766015949.050789,33
1766015949.051745,38
1766015949.052748,36
1766015949.053747,40
1766015949.0547159,41
1766015949.055718,41
1766015949.056714,43
1766015949.057726,42
1766015949.058719,45
1766015949.05972,44
1766015949.060714,45
1766015949.061734,43
1766015949.0627398,47
1766015949.0637162,45
1766015949.064817,46
1766015949.065772,50
1766015949.066775,46
1766015949.0678039,48
1766015949.0687711,48
1766015949.0697951,45
1766015949.070782,43
1766015949.071811,47
1766015949.07279,49
1766015949.073785,52
1766015949.074788,58
1766015949.075812,66
1766015949.0768058,73
1766015949.077825,83
1766015949.078793,89
1766015949.079764,86
1766015949.080805,93
1766015949.081821,96
1766015949.082836,96
1766015949.083827,96
1766015949.084803,96
1766015949.0858262,95
1766015949.086824,95
1766015949.087818,94
1766015949.0888362,97
1766015949.089835,96
1766015949.0907829,95
1766015949.091937,92
1766015949.0928361,94
1766015949.093845,94
1766015949.0948422,93
1766015949.0959349,92
1766015949.0969322,93
1766015949.0979252,91
1766015949.098798,90
1766015949.099951,91
1766015949.10093,90
1766015949.101928,96
1766015949.102926,95
1766015949.103938,98
1766015949.104973,102
1766015949.105969,107
1766015949.106911,107
1766015949.107991,111
1766015949.108982,112
1766015949.109965,108
1766015949.110986,114
1766015949.111982,117
1766015949.112982,121
1766015949.113993,126
1766015949.114955,130
1766015949.116035,132
1766015949.117034,132
1766015949.117992,135
1766015949.118998,137
1766015949.1200168,136
1766015949.121011,138
1766015949.122029,138
1766015949.123013,141
1766015949.12398,142
1766015949.125023,141
1766015949.126009,139
1766015949.1270232,139
1766015949.128021,138
1766015949.129036,137
1766015949.1300328,136
1766015949.131051,138
1766015949.131999,140
1766015949.133044,144
1766015949.134038,145
1766015949.135066,150
1766015949.1360378,151
1766015949.1370509,147
1766015949.138064,148
1766015949.1390588,145
1766015949.140012,146
1766015949.141025,148
1766015949.142078,143
1766015949.143023,147
1766015949.144032,146
1766015949.14508,147
1766015949.146086,145
1766015949.147083,143
1766015949.148087,142
1766015949.149048,140
1766015949.150105,139
1766015949.1510541,137
1766015949.152045,135
1766015949.153096,136
1766015949.154113,134
1766015949.155107,131
1766015949.156092,128
1766015949.1570718,129
1766015949.158098,127
1766015949.159114,126
1766015949.1601138,124
1766015949.161118,120
1766015949.162127,120
1766015949.163135,121
1766015949.164132,116
1766015949.1651032,119
1766015949.1661499,114
1766015949.167107,113
1766015949.1681302,113
1766015949.169143,112
1766015949.1701398,111
1766015949.171156,111
1766015949.172155,110
1766015949.173153,107
1766015949.174164,109
1766015949.175162,106
1766015949.1761768,106
1766015949.1771789,103
1766015949.1782038,107
1766015949.1791942,105
1766015949.180172,106
1766015949.181188,102
1766015949.182286,101
1766015949.18321,104
1766015949.184295,102
1766015949.185229,101
1766015949.186272,100
1766015949.187254,100
1766015949.1881359,99
1766015949.1891258,98
1766015949.190241,100
1766015949.191205,96
1766015949.192132,94
1766015949.1931121,95
1766015949.194109,93
1766015949.195113,95
1766015949.196092,92
1766015949.197132,92
1766015949.198148,91
1766015949.199141,91
1766015949.200136,91
1766015949.2011452,87
1766015949.202116,89
1766015949.203111,90
1766015949.204134,89
1766015949.2051241,89
1766015949.206142,88
1766015949.207146,88
1766015949.20816,86
1766015949.209131,86
1766015949.210117,90
1766015949.2111459,90
1766015949.212148,87
1766015949.213143,89
1766015949.214113,87
1766015949.215182,87
1766015949.216172,86
1766015949.217244,87
1766015949.218188,84
1766015949.219201,85
1766015949.2202098,85
1766015949.2212,85
1766015949.2222028,83
1766015949.223198,83
1766015949.2241962,82
1766015949.2252228,82
1766015949.2261791,84
1766015949.227193,80
1766015949.2282,83
1766015949.229193,79
1766015949.230198,80
1766015949.231207,77
1766015949.232197,77
1766015949.233221,78
1766015949.234299,75
1766015949.235268,78
1766015949.236224,77
1766015949.237237,75
1766015949.2382221,77
1766015949.239201,75
1766015949.240254,77
1766015949.24123,77
1766015949.2422552,78
1766015949.243228,83
1766015949.2442229,82
1766015949.2452521,83
1766015949.246219,80
1766015949.247225,78
1766015949.2482612,77
1766015949.249239,80
1766015949.2502668,78
1766015949.2512739,75
1766015949.2522628,79
1766015949.253293,78
1766015949.254272,74
1766015949.255264,78
1766015949.2562602,76
1766015949.257288,76
1766015949.2582872,76
1766015949.259307,74
1766015949.260289,72
1766015949.261282,74
1766015949.262292,74
1766015949.2632792,72
1766015949.264299,72
1766015949.265606,68
1766015949.266311,72
1766015949.2673988,69
1766015949.268336,68
1766015949.269336,71
1766015949.270346,68
1766015949.2713861,66
1766015949.272356,68
1766015949.273343,75
1766015949.2743402,75
1766015949.2753391,77
1766015949.276333,78
1766015949.277333,80
1766015949.2783418,79
1766015949.279329,80
1766015949.280311,81
1766015949.281344,80
1766015949.282735,80
1766015949.28335,79
1766015949.284405,81
1766015949.2853708,78
1766015949.2863512,75
1766015949.287374,75
1766015949.288364,76
1766015949.2893682,74
1766015949.290367,72
1766015949.291381,76
1766015949.292397,75
1766015949.2933812,75
1766015949.2944,73
1766015949.2953842,73
1766015949.296381,75
1766015949.2974012,75
1766015949.298409,72
1766015949.299415,72
1766015949.300409,67
1766015949.301409,74
1766015949.302403,70
1766015949.303437,69
1766015949.304395,69
1766015949.305422,67
1766015949.306407,66
1766015949.3074439,68
1766015949.308413,66
1766015949.3094609,67
1766015949.310396,66
1766015949.311403,66
1766015949.312437,65
1766015949.313455,64
1766015949.314441,64
1766015949.315477,64
1766015949.3164659,66
1766015949.317441,63
1766015949.318431,65
1766015949.31953,64
1766015949.320554,59
1766015949.3214982,60
1766015949.322474,61
1766015949.323584,63
1766015949.324537,63
1766015949.3255198,62
1766015949.3265011,62
1766015949.327459,62
1766015949.328483,59
1766015949.329468,61
1766015949.330474,59
1766015949.3314931,61
1766015949.332592,58
1766015949.333546,58
1766015949.334502,60
1766015949.335496,57
1766015949.336509,58
1766015949.337603,59
1766015949.3385348,58
1766015949.339513,57
1766015949.340536,54
1766015949.341527,54
1766015949.342514,55
1766015949.343518,53
1766015949.3445399,52
1766015949.34556,52
1766015949.346605,56
1766015949.347544,55
1766015949.3485289,57
1766015949.349531,58
1766015949.350541,57
1766015949.351532,61
1766015949.352565,61
1766015949.35358,59
1766015949.354628,58
1766015949.3555682,60
1766015949.356562,58
1766015949.357547,61
1766015949.358539,59
1766015949.3595588,58
1766015949.360559,61
1766015949.3616,58
1766015949.3626602,61
1766015949.3635929,59
1766015949.3645692,61
1766015949.3656142,59
1766015949.366623,57
1766015949.367624,60
1766015949.368566,57
1766015949.369596,58
1766015949.370655,58
1766015949.371616,59
1766015949.37258,59
1766015949.373587,57
1766015949.374596,58
1766015949.375604,54
1766015949.3765812,57
1766015949.3775911,59
1766015949.378644,59
1766015949.3796349,58
1766015949.380615,60
1766015949.3816168,58
1766015949.382606,62
1766015949.3836129,62
1766015949.384623,59
1766015949.3856168,59
1766015949.386718,58
1766015949.387691,57
1766015949.3886342,59
1766015949.389627,58
1766015949.390641,58
1766015949.391716,53
1766015949.392659,58
1766015949.393686,54
1766015949.394699,58
1766015949.395684,57
1766015949.396676,53
1766015949.397653,55
1766015949.3986838,56
1766015949.3996658,54
1766015949.4006798,56
1766015949.401676,51
1766015949.4027112,56
1766015949.4036741,53
1766015949.404701,54
1766015949.4056761,54
1766015949.406688,55
1766015949.4076989,52
1766015949.408683,51
1766015949.409686,53
1766015949.4106932,54
1766015949.4117372,54
1766015949.412759,50
1766015949.413753,50
1766015949.41473,54
1766015949.415731,52
1766015949.4167511,55
1766015949.41773,54
1766015949.4187279,56
1766015949.4197361,59
1766015949.420792,56
1766015949.4217448,56
1766015949.4227378,60
1766015949.423727,57
1766015949.4247282,56
1766015949.4257169,59
1766015949.426719,57
1766015949.427746,55
1766015949.428747,55
1766015949.429745,55
1766015949.430748,54
1766015949.431753,56
1766015949.43277,55
1766015949.433755,55
1766015949.434763,55
1766015949.435783,54
1766015949.43677,59
1766015949.437786,57
1766015949.438803,54
1766015949.439797,51
1766015949.440825,54
1766015949.441822,52
1766015949.442805,55
1766015949.443809,51
1766015949.44482,52
1766015949.445843,53
1766015949.446833,56
1766015949.447825,52
1766015949.448816,53
1766015949.449922,55
1766015949.450891,56
1766015949.451908,56
1766015949.4529028,57
1766015949.453952,55
1766015949.45496,59
1766015949.4559062,56
1766015949.4569159,60
1766015949.457904,60
1766015949.4588969,54
1766015949.4598908,56
1766015949.4608982,60
1766015949.4619288,58
1766015949.4629178,55
1766015949.463903,55
1766015949.464917,54
1766015949.465898,52
1766015949.466905,54
1766015949.467893,55
1766015949.4689002,56
1766015949.469918,53
1766015949.470906,54
1766015949.4719,54
1766015949.472903,52
1766015949.47388,55
1766015949.474897,53
1766015949.475959,54
1766015949.476943,52
1766015949.477912,53
1766015949.4789472,52
1766015949.479894,51
1766015949.480892,55
1766015949.481906,52
1766015949.482937,53
1766015949.483902,53
1766015949.484952,50
1766015949.485926,53
1766015949.486919,53
1766015949.487902,53
1766015949.488909,52
1766015949.4899352,54
1766015949.4909801,54
1766015949.491959,53
1766015949.4929368,51
1766015949.49397,54
1766015949.494963,55
1766015949.495938,53
1766015949.4969769,54
1766015949.497974,57
1766015949.498966,53
1766015949.499962,52
1766015949.50095,55
1766015949.502002,54
1766015949.5030022,53
1766015949.5039842,53
1766015949.5050151,52
1766015949.506034,51
1766015949.507,55
1766015949.507981,56
1766015949.508981,57
1766015949.509983,58
1766015949.511012,55
1766015949.51199,60
1766015949.51298,54
1766015949.513983,54
1766015949.514987,51
1766015949.516006,56
1766015949.5170171,54
1766015949.518015,53
1766015949.519029,56
1766015949.520022,57
1766015949.521003,56
1766015949.5219939,56
1766015949.522997,56
1766015949.524029,56
1766015949.525016,59
1766015949.526004,56
1766015949.527025,56
1766015949.528032,52
1766015949.529037,54
1766015949.530026,56
1766015949.53104,52
1766015949.532043,52
1766015949.533043,52
1766015949.5340228,49
1766015949.53504,52
1766015949.5360289,55
1766015949.537036,55
1766015949.5380402,54
1766015949.539037,52
1766015949.540063,55
1766015949.541127,52
1766015949.5421288,54
1766015949.5431051,53
1766015949.544086,52
1766015949.545096,51
1766015949.546093,54
1766015949.547076,54
1766015949.54807,51
1766015949.549085,51
1766015949.550099,52
1766015949.5510862,52
1766015949.55208,50
1766015949.5531032,50
1766015949.554102,48
1766015949.5551,51
1766015949.5560992,49
1766015949.557127,52
1766015949.558126,52
1766015949.559126,50
1766015949.560116,50
1766015949.5611289,46
1766015949.562121,48
1766015949.563123,49
1766015949.5641332,50
1766015949.565134,48
1766015949.5661361,51
1766015949.567158,50
1766015949.56814,48
1766015949.56914,49
1766015949.570152,48
1766015949.5711548,47
1766015949.5721412,47
1766015949.573154,44
1766015949.5741498,46
1766015949.575211,47
1766015949.576214,50
1766015949.577169,52
1766015949.578188,51
1766015949.579186,55
1766015949.580184,53
1766015949.5811808,55
1766015949.58219,56
1766015949.5832,54
1766015949.584179,56
1766015949.585186,59
1766015949.586205,58
1766015949.587214,58
1766015949.5882208,59
1766015949.58919,57
1766015949.590204,56
1766015949.59121,57
1766015949.5922172,55
1766015949.593215,57
1766015949.594218,57
1766015949.595217,58
1766015949.596241,56
1766015949.597242,58
1766015949.5982358,56
1766015949.5992372,56
1766015949.600236,60
1766015949.601233,59
1766015949.602271,59
1766015949.603255,54
1766015949.6042528,56
1766015949.605264,58
1766015949.606296,55
1766015949.607278,55
1766015949.608261,57
1766015949.609261,51
1766015949.6102579,54
1766015949.611299,51
1766015949.612345,50
1766015949.613278,53
1766015949.6142678,52
1766015949.615268,52
1766015949.616283,52
1766015949.6173398,52
1766015949.6183512,53
1766015949.619319,50
1766015949.620301,50
1766015949.621305,51
1766015949.622294,52
1766015949.623302,51
1766015949.624322,50
1766015949.6253161,53
1766015949.6263208,52
1766015949.627303,49
1766015949.6283178,47
1766015949.62933,53
1766015949.630343,51
1766015949.631318,49
1766015949.632334,47
1766015949.633354,49
1766015949.634358,48
1766015949.635346,49
1766015949.636344,48
1766015949.6373398,46
1766015949.638349,47
1766015949.639353,48
1766015949.640355,47
1766015949.641352,48
1766015949.642357,48
1766015949.64338,46
1766015949.644362,47
1766015949.645376,44
1766015949.646417,46
1766015949.647367,43
1766015949.6483881,48
1766015949.649384,47
1766015949.650385,48
1766015949.6513789,49
1766015949.652385,48
1766015949.65346,50
1766015949.654412,52
1766015949.655403,51
1766015949.6564312,52
1766015949.657494,55
1766015949.658504,56
1766015949.659414,53
1766015949.660407,55
1766015949.6614609,53
1766015949.6624289,58
1766015949.663435,55
1766015949.664458,55
1766015949.665431,52
1766015949.666471,54
1766015949.667451,50
1766015949.668454,55
1766015949.669436,54
1766015949.670465,56
1766015949.6714518,53
1766015949.6724281,56
1766015949.673478,54
1766015949.674464,51
1766015949.675522,50
1766015949.676439,51
1766015949.677474,49
1766015949.678499,50
1766015949.679536,48
1766015949.680502,50
1766015949.6815271,52
1766015949.682534,48
1766015949.683539,52
1766015949.68448,47
1766015949.68551,49
1766015949.6864681,46
1766015949.687528,49
1766015949.688519,49
1766015949.6895201,46
1766015949.690485,45
1766015949.69153,46
1766015949.692512,45
1766015949.6935549,48
1766015949.694531,49
1766015949.6955369,45
1766015949.696529,47
1766015949.697498,47
1766015949.698508,45
1766015949.69955,48
1766015949.700554,48
1766015949.7015848,50
1766015949.702589,47
1766015949.703567,48
1766015949.704554,47
1766015949.705555,49
1766015949.706609,50
1766015949.7075891,49
1766015949.7086122,44
1766015949.709565,49
1766015949.710586,48
1766015949.7116008,50
1766015949.712637,47
1766015949.7135959,49
1766015949.714616,47
1766015949.715602,47
1766015949.716605,46
1766015949.7175858,43
1766015949.718648,42
1766015949.71963,44
1766015949.720625,42
1766015949.7216809,45
1766015949.7226539,46
1766015949.723592,46
1766015949.7246678,46
1766015949.7256691,44
1766015949.726675,44
1766015949.727656,44
1766015949.72867,42
1766015949.729693,44
1766015949.7306602,44
1766015949.731659,45
1766015949.732688,44
1766015949.7336488,45
1766015949.734656,41
1766015949.7356591,44
1766015949.736673,44
1766015949.73767,41
1766015949.738667,44
1766015949.7396648,41
1766015949.74072,42
1766015949.74167,43
1766015949.742665,44
1766015949.7436721,45
1766015949.744691,45
1766015949.745667,49
1766015949.746679,46
1766015949.747663,47
1766015949.748657,44
1766015949.7496698,46
1766015949.750658,46
1766015949.75165,49
1766015949.752676,45
1766015949.753669,46
1766015949.754657,48
1766015949.75568,44
1766015949.756674,46
1766015949.757685,44
1766015949.7586648,47
1766015949.759674,46
1766015949.760679,43
1766015949.761696,41
1766015949.762687,44
1766015949.7636878,41
1766015949.764694,44
1766015949.765694,44
1766015949.766698,44
1766015949.767683,40
1766015949.768704,39
1766015949.7697742,42
1766015949.770762,45
1766015949.7717388,43
1766015949.7727559,46
1766015949.773725,46
1766015949.77474,46
1766015949.775777,44
1766015949.776757,43
1766015949.777781,43
1766015949.7787719,46
1766015949.7797408,45
1766015949.780776,46
1766015949.78177,47
1766015949.7828,47
1766015949.7837849,48
1766015949.784777,47
1766015949.7857778,49
1766015949.786861,50
1766015949.7878358,51
1766015949.788789,52
1766015949.7898471,52
1766015949.790841,50
1766015949.791855,48
1766015949.7928581,49
1766015949.793838,49
1766015949.794831,45
1766015949.795846,48
1766015949.796822,51
1766015949.797872,47
1766015949.798812,47
1766015949.7998688,51
1766015949.8008242,47
1766015949.801964,50
1766015949.80284,49
1766015949.8038442,47
1766015949.804953,46
1766015949.805912,45
1766015949.8069062,45
1766015949.807938,45
1766015949.808942,44
1766015949.8099608,46
1766015949.8109398,43
1766015949.811937,42
1766015949.812979,45
1766015949.8139362,42
1766015949.8149,45
1766015949.8159602,44
1766015949.816942,45
1766015949.817961,44
1766015949.8189309,43
1766015949.819944,45
1766015949.82095,42
1766015949.8219361,42
1766015949.822942,44
1766015949.82391,46
1766015949.8249412,45
1766015949.825954,44
1766015949.8269289,43
1766015949.8279428,42
1766015949.828943,43
1766015949.8299599,43
1766015949.830931,42
1766015949.831885,42
1766015949.8329222,43
1766015949.8339279,42
1766015949.834914,47
1766015949.835943,49
1766015949.8369422,49
1766015949.837926,49
1766015949.838926,50
1766015949.839951,52
1766015949.8409338,47
1766015949.841952,50
1766015949.842945,49
1766015949.843945,49
1766015949.844963,50
1766015949.845957,48
1766015949.846946,46
1766015949.84797,49
1766015949.8489358,46
1766015949.849971,50
1766015949.850969,48
1766015949.851982,47
1766015949.8529952,51
1766015949.853994,51
1766015949.8550022,52
1766015949.8560221,51
1766015949.856999,51
1766015949.858003,50
1766015949.859016,49
1766015949.860033,50
1766015949.861017,52
1766015949.86203,48
1766015949.863033,52
1766015949.8640242,53
1766015949.8650398,46
1766015949.866055,49
1766015949.867042,48
1766015949.8680398,47
1766015949.869051,48
1766015949.8700511,48
1766015949.8710542,47
1766015949.8720288,47
1766015949.873066,45
1766015949.874049,46
1766015949.875062,46
1766015949.876053,45
1766015949.87708,46
1766015949.878067,45
1766015949.879075,46
1766015949.880051,44
1766015949.881061,45
1766015949.882072,44
1766015949.883039,41
1766015949.884038,42
1766015949.885063,43
1766015949.886045,46
1766015949.887071,44
1766015949.888066,46
1766015949.8890939,43
1766015949.89007,43
1766015949.891072,43
1766015949.892093,46
1766015949.893087,44
1766015949.894093,43
1766015949.8951108,47
1766015949.896095,43
1766015949.897076,46
1766015949.898108,41
1766015949.8991191,44
1766015949.900119,45
1766015949.9011042,44
1766015949.902109,43
1766015949.903129,44
1766015949.9041579,45
1766015949.9051561,39
