timestamp,emg_value
1766015905.982678,39
1766015905.982698,41
1766015905.9827142,42
1766015905.982733,41
1766015905.98275,42
1766015905.9827662,39
1766015905.982782,38
1766015905.9827971,39
1766015905.982812,39
1766015905.9828281,38
1766015905.982843,39
1766015905.982859,42
1766015905.9828742,39
1766015905.982891,37
1766015905.98291,42
1766015905.982927,40
1766015905.982944,41
1766015905.982962,39
1766015905.98298,41
1766015905.982996,38
1766015905.9830132,38
1766015905.983027,40
1766015905.9830441,38
1766015905.9830651,38
1766015905.98308,38
1766015905.983105,39
1766015905.98312,38
1766015905.9831371,36
1766015905.9831538,34
1766015905.98317,35
1766015905.9831848,37
1766015905.9832,35
1766015905.983229,39
1766015905.983246,35
1766015905.983263,35
1766015905.983279,36
1766015905.983294,39
1766015905.9833112,37
1766015905.98333,37
1766015905.983346,39
1766015905.98336,35
1766015905.983379,40
1766015905.9833941,37
1766015905.983409,35
1766015905.983424,36
1766015905.9834392,40
1766015905.983453,35
1766015905.983469,38
1766015905.9834838,35
1766015905.983507,36
1766015905.9835231,37
1766015905.9835389,35
1766015905.9835541,35
1766015905.983577,36
1766015905.983593,38
1766015905.983608,38
1766015905.983623,35
1766015905.983638,33
1766015905.983653,35
1766015905.9836679,36
1766015905.983683,37
1766015905.9836988,38
1766015905.983714,35
1766015905.983729,34
1766015905.983754,35
1766015905.983774,33
1766015905.983789,35
1766015905.983804,33
1766015905.983819,35
1766015905.983834,36
1766015905.983849,36
1766015905.983863,35
1766015905.983878,34
1766015905.983895,38
1766015905.9839108,34
1766015905.983934,33
1766015905.9839501,36
1766015905.983975,36
1766015905.983989,36
1766015905.984004,35
1766015905.984019,37
1766015905.984034,32
1766015905.9840488,35
1766015905.984065,34
1766015905.9840798,34
1766015905.984096,31
1766015905.984119,33
1766015905.984134,34
1766015905.98415,32
1766015905.9841652,32
1766015905.98418,32
1766015905.984195,33
1766015905.98421,33
1766015905.984226,31
1766015905.984246,34
1766015905.9842691,32
1766015905.984288,33
1766015905.9843059,35
1766015905.984321,33
1766015905.9843369,32
1766015905.984355,34
1766015905.984372,32
1766015905.984395,34
1766015905.9844108,32
1766015905.984428,32
1766015905.984443,35
1766015905.9844658,32
1766015905.98449,32
1766015905.984513,35
1766015905.984534,32
1766015905.98455,33
1766015905.984572,31
1766015905.98459,31
1766015905.984604,31
1766015905.984617,33
1766015905.984631,32
1766015905.9846442,31
1766015905.9846559,32
1766015905.9846709,30
1766015905.984685,31
1766015905.984698,31
1766015905.98471,32
1766015905.9847229,31
1766015905.984739,35
1766015905.9847522,34
1766015905.9847648,37
1766015905.984778,33
1766015905.98479,36
1766015905.9848042,37
1766015905.98483,36
1766015905.984843,31
1766015905.9848561,32
1766015905.984869,34
1766015905.984881,37
1766015905.984894,33
1766015905.984907,32
1766015905.984919,35
1766015905.9849322,36
1766015905.984944,34
1766015905.984957,33
1766015905.98497,35
1766015905.984982,33
1766015905.9849951,37
1766015905.9850082,36
1766015905.98502,39
1766015905.985033,42
1766015905.985046,39
1766015905.985058,42
1766015905.9850712,40
1766015905.9850838,42
1766015905.985107,39
1766015905.98512,41
1766015905.985132,42
1766015905.985145,38
1766015905.985158,41
1766015905.98517,38
1766015905.985183,36
1766015905.985196,37
1766015905.985208,42
1766015905.9852211,40
1766015905.985247,42
1766015905.985259,39
1766015905.9852748,41
1766015905.985288,37
1766015905.985301,38
1766015905.985313,37
1766015905.985326,38
1766015905.985339,37
1766015905.9853508,36
1766015905.985364,38
1766015905.985377,35
1766015905.9853902,37
1766015905.985402,37
1766015905.985415,35
1766015905.9854279,40
1766015905.985447,34
1766015905.98546,38
1766015905.985474,37
1766015905.985486,35
1766015905.985499,37
1766015905.985512,36
1766015905.985525,38
1766015905.985537,35
1766015905.9855502,35
1766015905.985568,37
1766015905.9855812,35
1766015905.985595,34
1766015905.985612,37
1766015905.985624,36
1766015905.9856372,34
1766015905.9856498,33
1766015905.985664,36
1766015905.9856782,33
1766015905.9856908,37
1766015905.985705,34
1766015905.985718,35
1766015905.985732,32
1766015905.9857438,35
1766015905.985766,33
1766015905.985779,33
1766015905.985792,34
1766015905.985804,33
1766015905.9858172,34
1766015905.9858298,34
1766015905.985843,32
1766015905.985857,31
1766015905.9858701,31
1766015905.985882,29
1766015905.985903,28
1766015905.985916,32
1766015905.985929,32
1766015905.985941,32
1766015905.985954,32
1766015905.9859672,34
1766015905.9859881,35
1766015905.986001,32
1766015905.986014,34
1766015905.986026,34
1766015905.986039,30
1766015905.986051,30
1766015905.986078,31
1766015905.98609,32
1766015905.986103,33
1766015905.9861162,31
1766015905.9861372,31
1766015905.986149,31
1766015905.986162,33
1766015905.986179,32
1766015905.986192,33
1766015905.986204,33
1766015905.986217,32
1766015905.986231,31
1766015905.9862442,35
1766015905.986259,34
1766015905.986272,34
1766015905.9862862,32
1766015905.9862988,32
1766015905.986311,34
1766015905.986324,34
1766015905.986345,31
1766015905.986358,31
1766015905.98637,30
1766015905.9863832,30
1766015905.9863958,29
1766015905.986409,29
1766015905.98643,31
1766015905.986442,29
1766015905.986455,27
1766015905.9864671,29
1766015905.9864802,30
1766015905.9864929,29
1766015905.986506,29
1766015905.986519,29
1766015905.986531,31
1766015905.9865441,29
1766015905.986558,29
1766015905.9865758,33
1766015905.986589,29
1766015905.986602,31
1766015905.9866161,31
1766015905.986629,28
1766015905.986642,28
1766015905.986656,31
1766015905.986669,30
1766015905.9866822,29
1766015905.9866939,28
1766015905.986707,29
1766015905.986728,30
1766015905.986741,28
1766015905.986754,29
1766015905.986774,29
1766015905.9867961,30
1766015905.986809,28
1766015905.9868212,29
1766015905.9868338,30
1766015905.986848,29
1766015905.986861,30
1766015905.986874,29
1766015905.986888,30
1766015905.986903,28
1766015905.986915,27
1766015905.9869282,27
1766015905.9869409,29
1766015905.986955,29
1766015905.986968,29
1766015905.986988,26
1766015905.9870028,25
1766015905.987023,29
1766015905.987046,30
1766015905.9870589,23
1766015905.987073,24
1766015905.987094,29
1766015905.9871192,28
1766015905.9871318,26
1766015905.987144,28
1766015905.987159,26
1766015905.9871721,29
1766015905.987184,28
1766015905.987197,29
1766015905.98721,26
1766015905.987222,27
1766015905.987236,23
1766015905.987249,23
1766015905.9872608,26
1766015905.987274,25
1766015905.987287,28
1766015905.9873002,28
1766015905.9873128,24
1766015905.987325,27
1766015905.987349,26
1766015905.98737,26
1766015905.987382,25
1766015905.987395,27
1766015905.9874072,25
1766015905.9874198,27
1766015905.987433,29
1766015905.9874449,28
1766015905.987471,25
1766015905.987484,24
1766015905.987498,28
1766015905.98751,24
1766015905.987533,29
1766015905.9875462,27
1766015905.987561,25
1766015905.9875782,26
1766015905.987595,24
1766015905.987608,25
1766015905.987621,26
1766015905.987634,25
1766015905.9876459,27
1766015905.987659,26
1766015905.987672,26
1766015905.987686,25
1766015905.987699,29
1766015905.987712,24
1766015905.987724,27
1766015905.9877372,26
1766015905.98776,26
1766015905.987772,25
1766015905.987793,24
1766015905.987807,26
1766015905.987819,23
1766015905.987832,25
1766015905.987852,27
1766015905.987865,24
1766015905.9878778,23
1766015905.98789,26
1766015905.987922,24
1766015905.987947,23
1766015905.987969,26
1766015905.987982,26
1766015905.9879968,26
1766015905.98801,26
1766015905.988024,23
1766015905.988037,25
1766015905.988052,28
1766015905.988066,24
1766015905.98808,26
1766015905.988093,25
1766015905.988108,24
1766015905.988121,26
1766015905.988134,26
1766015905.9881458,26
1766015905.988161,28
1766015905.988173,25
1766015905.988197,25
1766015905.988211,24
1766015905.988224,26
1766015905.988236,24
1766015905.988249,25
1766015905.988262,24
1766015905.988275,24
1766015905.988289,27
1766015905.988301,23
1766015905.988318,24
1766015905.988331,26
1766015905.9883509,25
1766015905.988364,26
1766015905.988377,23
1766015905.988389,22
1766015905.988402,21
1766015905.9884229,24
1766015905.988435,25
1766015905.988448,29
1766015905.988461,27
1766015905.9884741,26
1766015905.9884858,27
1766015905.988499,26
1766015905.9885151,23
1766015905.988528,23
1766015905.9885418,22
1766015905.988555,25
1766015905.9885728,27
1766015905.988586,24
1766015905.988598,24
1766015905.9886138,28
1766015905.988628,28
1766015905.988641,21
1766015905.9886541,25
1766015905.988668,28
1766015905.988681,26
1766015905.988696,24
1766015905.988708,25
1766015905.988721,26
1766015905.9887419,23
1766015905.988755,23
1766015905.988767,25
1766015905.98878,26
1766015905.9887922,24
1766015905.988805,27
1766015905.9888299,28
1766015905.988843,26
1766015905.988856,28
1766015905.988876,26
1766015905.988889,27
1766015905.988904,23
1766015905.9889169,28
1766015905.988936,26
1766015905.988949,25
1766015905.988961,25
1766015905.988974,25
1766015905.988987,26
1766015905.989014,25
1766015905.989027,28
1766015905.9890401,25
1766015905.9890518,25
1766015905.989065,25
1766015905.989078,26
1766015905.9890912,28
1766015905.9891121,26
1766015905.989124,28
1766015905.989137,27
1766015905.98915,28
1766015905.989164,28
1766015905.989177,26
1766015905.9891899,25
1766015905.989203,26
1766015905.989216,24
1766015905.989229,25
1766015905.989242,26
1766015905.989255,26
1766015905.989268,27
1766015905.9892821,26
1766015905.9892962,26
1766015905.98931,25
1766015905.989323,24
1766015905.989336,23
1766015905.9893498,26
1766015905.989363,26
1766015905.9893749,24
1766015905.989388,26
1766015905.989401,28
1766015905.989414,26
1766015905.9894269,23
1766015905.989439,27
1766015905.989456,24
1766015905.98947,28
1766015905.989484,28
1766015905.9894972,24
1766015905.9895098,24
1766015905.989522,24
1766015905.989535,24
1766015905.989548,23
1766015905.989561,25
1766015905.989575,24
1766015905.989588,25
1766015905.989603,25
1766015905.9896152,25
1766015905.9896278,25
1766015905.989641,24
1766015905.989655,27
1766015905.989669,25
1766015905.989682,22
1766015905.9896939,23
1766015905.989707,25
1766015905.98972,23
1766015905.9897332,23
1766015905.989745,25
1766015905.989759,23
1766015905.989773,26
1766015905.9897861,26
1766015905.989799,26
1766015905.989812,23
1766015905.989824,25
1766015905.9898372,23
1766015905.98985,24
1766015905.989863,27
1766015905.989877,25
1766015905.989894,26
1766015905.989907,23
1766015905.98992,23
1766015905.989932,25
1766015905.9899452,24
1766015905.9899578,26
1766015905.989971,23
1766015905.989983,24
1766015905.989996,22
1766015905.990008,24
1766015905.9900212,26
1766015905.9900339,25
1766015905.990046,22
1766015905.990059,23
1766015905.990072,24
1766015905.9900851,25
1766015905.990108,24
1766015905.990124,22
1766015905.990137,25
1766015905.99015,22
1766015905.9901628,21
1766015905.990176,23
1766015905.990189,22
1766015905.9902022,23
1766015905.9902139,21
1766015905.990227,26
1766015905.99024,21
1766015905.990253,21
1766015905.990266,21
1766015905.990279,24
1766015905.990292,22
1766015905.990305,24
1766015905.9903219,24
1766015905.9903371,23
1766015905.990349,22
1766015905.990363,24
1766015905.9903748,22
1766015905.990388,25
1766015905.990401,24
1766015905.9904141,21
1766015905.9904268,23
1766015905.99044,22
1766015905.990453,25
1766015905.990466,18
1766015905.990478,23
1766015905.990491,23
1766015905.990506,23
1766015905.990519,22
1766015905.9905322,19
1766015905.9905448,23
1766015905.990558,19
1766015905.990572,23
1766015905.990585,20
1766015905.990598,23
1766015905.9906108,22
1766015905.990624,22
1766015905.990636,24
1766015905.990649,24
1766015905.9906628,22
1766015905.990676,21
1766015905.990688,24
1766015905.990701,23
1766015905.990714,25
1766015905.990727,21
1766015905.9907389,22
1766015905.990824,21
1766015905.9908412,25
1766015905.990855,22
1766015905.9908679,20
1766015905.9908822,24
1766015905.990894,23
1766015905.990908,23
1766015905.9909198,20
1766015905.990933,22
1766015905.990946,23
1766015905.9909592,22
1766015905.9909718,22
1766015905.990984,21
1766015905.990997,22
1766015905.99101,23
1766015905.991023,22
1766015905.991035,20
1766015905.9910479,23
1766015905.991061,21
1766015905.991074,22
1766015905.9910872,23
1766015905.9910998,23
1766015905.991113,21
1766015905.991126,21
1766015905.9911392,23
1766015905.991151,25
1766015905.991164,25
1766015905.991178,19
1766015905.99119,23
1766015905.991203,23
1766015905.991215,21
1766015905.9912279,23
1766015905.991246,25
1766015905.991261,24
1766015905.9912739,22
1766015905.991286,25
1766015905.9912992,25
1766015905.991313,24
1766015905.991325,22
1766015905.99134,25
1766015905.9913568,21
1766015905.991371,21
1766015905.9913862,21
1766015905.9914,23
1766015905.991412,24
1766015905.991425,24
1766015905.9914382,25
1766015905.99145,20
1766015905.991463,23
1766015905.991476,23
1766015905.991489,24
1766015905.991501,25
1766015905.9915142,25
1766015905.9915268,24
1766015905.991539,23
1766015905.991552,21
1766015905.991564,23
1766015905.9915771,22
1766015905.991596,24
1766015905.9916108,24
1766015905.991625,25
1766015905.991638,22
1766015905.991651,25
1766015905.9916642,24
1766015905.991678,24
1766015905.991694,21
1766015905.9917078,23
1766015905.991721,24
1766015905.991733,23
1766015905.991746,25
1766015905.991759,26
1766015905.991772,23
1766015905.9917839,25
1766015905.991797,24
1766015905.99181,23
1766015905.9918232,27
1766015905.9918358,24
1766015905.991849,23
1766015905.991861,24
1766015905.991874,22
1766015905.991887,25
1766015905.9918988,25
1766015905.991912,27
1766015905.991925,25
1766015905.991938,27
1766015905.991951,27
1766015905.991963,25
1766015905.991976,26
1766015905.991989,27
1766015905.992002,23
1766015905.9920142,26
1766015905.992028,23
1766015905.99204,23
1766015905.992053,26
1766015905.9920661,24
1766015905.992079,28
1766015905.992091,28
1766015905.992107,23
1766015905.9921222,27
1766015905.9921348,26
1766015905.992148,27
1766015905.992161,26
1766015905.992173,24
1766015905.992186,29
1766015905.992199,27
1766015905.992212,22
1766015905.992225,26
1766015905.992238,26
1766015905.992251,25
1766015905.9922628,25
1766015905.992278,25
1766015905.9922931,25
1766015905.992309,26
1766015905.992322,22
1766015905.992335,28
1766015905.992348,24
1766015905.9923599,24
1766015905.992373,24
1766015905.992386,30
1766015905.9923992,26
1766015905.992413,24
1766015905.992426,28
1766015905.992438,25
1766015905.9924521,24
1766015905.9924638,25
1766015905.992478,27
1766015905.9924989,24
1766015905.992512,27
1766015905.992525,25
1766015905.99254,26
1766015905.992556,23
1766015905.992569,25
1766015905.992585,25
1766015905.992597,24
1766015905.99261,24
1766015905.9926221,27
1766015905.992633,26
1766015905.992644,23
1766015905.992655,22
1766015905.992667,23
1766015905.992678,25
1766015905.992689,26
1766015905.9926999,22
1766015905.9927108,27
1766015905.992722,27
1766015905.992733,26
1766015905.992744,24
1766015905.992756,25
1766015905.9927669,24
1766015905.992778,28
1766015905.992789,27
1766015905.992801,26
1766015905.992812,24
1766015905.9928231,22
1766015905.992834,25
1766015905.992845,23
1766015905.992856,24
1766015905.992867,27
1766015905.9928782,27
1766015905.9928892,24
1766015905.9929001,26
1766015905.992911,23
1766015905.992928,24
1766015905.99294,26
1766015905.992952,27
1766015905.992963,28
1766015905.992974,26
1766015905.992985,25
1766015905.9929972,29
1766015905.9930081,25
1766015905.9930189,27
1766015905.9930298,26
1766015905.9930408,24
1766015905.993052,25
1766015905.993063,26
1766015905.993074,27
1766015905.993085,26
1766015905.993097,23
1766015905.993108,22
1766015905.993119,23
1766015905.99313,25
1766015905.993141,24
1766015905.993152,26
1766015905.993163,24
1766015905.993174,25
1766015905.993185,27
1766015905.993196,26
1766015905.993207,26
1766015905.993218,24
1766015905.9932292,26
1766015905.99324,26
1766015905.993252,22
1766015905.993263,27
1766015905.9932742,26
1766015905.9932868,24
1766015905.993301,23
1766015905.993312,25
1766015905.993324,25
1766015905.993335,26
1766015905.993346,27
1766015905.993357,24
1766015905.9933681,27
1766015905.993379,21
1766015905.99339,25
1766015905.993401,25
1766015905.993412,20
1766015905.993423,25
1766015905.9934342,25
1766015905.9934459,24
1766015905.9934568,26
1766015905.9934678,27
1766015905.993479,23
1766015905.99349,22
1766015905.993501,24
1766015905.993512,26
1766015905.993524,27
1766015905.9935338,26
1766015905.993545,26
1766015905.993557,24
1766015905.993568,24
1766015905.993579,23
1766015905.99359,24
1766015905.9936059,25
1766015905.993619,24
1766015905.993632,25
1766015905.993643,22
1766015905.993655,26
1766015905.993669,25
1766015905.993682,26
1766015905.9936929,25
1766015905.9937038,26
1766015905.993715,22
1766015905.993726,23
1766015905.993737,24
1766015905.993748,24
1766015905.993759,22
1766015905.99377,24
1766015905.993781,23
1766015905.993792,25
1766015905.993803,24
1766015905.993813,22
1766015905.993824,27
1766015905.993836,23
1766015905.9938471,25
1766015905.993858,26
1766015905.993869,22
1766015905.99388,25
1766015905.99389,25
1766015905.993901,24
1766015905.993912,23
1766015905.9939241,26
1766015905.993935,23
1766015905.993946,22
1766015905.993957,22
1766015905.993967,21
1766015905.993979,22
1766015905.99399,25
1766015905.994001,25
1766015905.9940119,25
1766015905.994025,22
1766015905.994038,23
1766015905.99405,22
1766015905.994061,26
1766015905.994072,26
1766015905.994082,24
1766015905.994093,23
1766015905.994105,27
1766015905.994116,21
1766015905.994127,21
1766015905.994138,24
1766015905.9941492,22
1766015905.9941602,23
1766015905.994171,25
1766015905.9941819,24
1766015905.9941928,23
1766015905.9942038,24
1766015905.994215,23
1766015905.994226,23
1766015905.994237,26
1766015905.994248,26
1766015905.994258,22
1766015905.994269,21
1766015905.994281,24
1766015905.994292,26
1766015905.994303,23
1766015905.994313,21
1766015905.994324,23
1766015905.994335,24
1766015905.994346,24
1766015905.994357,22
1766015905.994368,22
1766015905.994379,22
1766015905.994394,26
1766015905.994407,23
1766015905.994418,23
1766015905.994428,21
1766015905.994439,26
1766015905.994451,23
1766015905.994465,23
1766015905.994476,22
1766015905.994488,24
1766015905.994498,24
1766015905.994509,23
1766015905.99452,22
1766015905.994532,21
1766015905.9945421,23
1766015905.994554,25
1766015905.994564,24
1766015905.994576,21
1766015905.994587,23
1766015905.994603,26
1766015905.994616,24
1766015905.9946291,22
1766015905.9946399,22
1766015905.9946508,21
1766015905.994661,21
1766015905.994673,25
1766015905.9946828,22
1766015905.994694,25
1766015905.994705,23
1766015905.994716,27
1766015905.994727,25
1766015905.9947379,24
1766015905.9947488,22
1766015905.994762,24
1766015905.994775,19
1766015905.994787,25
1766015905.9947982,25
1766015905.9948092,26
1766015905.99482,27
1766015905.994831,23
1766015905.994842,20
1766015905.994854,24
1766015905.994865,22
1766015905.994876,21
1766015905.9948869,22
1766015905.9948978,23
1766015905.9949088,23
1766015905.994921,23
1766015905.994932,24
1766015905.994943,23
1766015905.9949539,22
1766015905.994966,25
1766015905.994977,26
1766015905.994987,25
1766015905.994998,23
1766015905.995009,20
1766015905.9950202,24
1766015905.995031,24
1766015905.995042,22
1766015905.995053,22
1766015905.995063,22
1766015905.995075,23
1766015905.995085,23
1766015905.995096,23
1766015905.9951072,23
1766015905.99512,21
1766015905.9951339,22
1766015905.995147,24
1766015905.995158,22
1766015905.99517,22
1766015905.9951842,23
1766015905.9951968,23
1766015905.99521,24
1766015905.995221,25
1766015905.995232,21
1766015905.995243,24
1766015905.995254,21
1766015905.995266,24
1766015905.9952772,23
1766015905.995289,23
1766015905.9953,22
1766015905.9953122,22
1766015905.995323,18
1766015905.995334,22
1766015905.9953449,22
1766015905.995357,22
1766015905.995368,21
1766015905.995379,25
1766015905.99539,23
1766015905.9954,21
1766015905.995411,22
1766015905.995422,19
1766015905.9954329,20
1766015905.995444,20
1766015905.995455,23
1766015905.995466,22
1766015905.995477,24
1766015905.995488,23
1766015905.995501,22
1766015905.9955142,23
1766015905.9955258,23
1766015905.9955368,22
1766015905.995548,19
1766015905.995559,23
1766015905.99557,23
1766015905.995581,23
1766015905.9955971,25
1766015905.99561,23
1766015905.9956212,21
1766015905.9956322,21
1766015905.995643,22
1766015905.9956548,24
1766015905.995668,23
1766015905.99568,22
1766015905.995691,22
1766015905.995702,20
1766015905.995713,21
1766015905.995724,24
1766015905.995735,20
1766015905.9957461,23
1766015905.9957561,23
1766015905.995768,24
1766015905.995779,20
1766015905.99579,19
1766015905.995801,20
1766015905.9958122,22
1766015905.9958248,22
1766015905.995837,24
1766015905.995848,22
1766015905.9958599,19
1766015905.995872,24
1766015905.995887,18
1766015905.9959009,19
1766015905.9959118,20
1766015905.995923,21
1766015905.9959328,22
1766015905.995944,21
1766015905.995955,21
1766015905.995966,22
1766015905.995977,20
1766015905.995988,24
1766015905.9959989,23
1766015905.99601,20
1766015905.996021,18
1766015905.996031,20
1766015905.996042,21
1766015905.996053,24
1766015905.996064,22
1766015905.996075,20
1766015905.9960861,22
1766015905.996097,22
1766015905.996109,22
1766015905.99612,20
1766015905.9961321,22
1766015905.996143,21
1766015905.996154,21
1766015905.996165,21
1766015905.996177,19
1766015905.9961889,22
1766015905.9961998,19
1766015905.996211,21
1766015905.996223,23
1766015905.996235,24
1766015905.996247,23
1766015905.9962611,21
1766015905.9962728,19
1766015905.996285,24
1766015905.996296,24
1766015905.996307,20
1766015905.9963179,21
1766015905.996329,20
1766015905.9963388,24
1766015905.99635,20
1766015905.996361,20
1766015905.996373,23
1766015905.996384,22
1766015905.996395,20
1766015905.996406,18
1766015905.996417,19
1766015905.9964302,21
1766015905.9964428,23
1766015905.996455,22
1766015905.996465,23
1766015905.996475,21
1766015905.9964852,22
1766015905.996495,21
1766015905.996505,21
1766015905.996515,21
1766015905.996524,23
1766015905.996534,22
1766015905.996544,23
1766015905.996554,23
1766015905.996564,21
1766015905.996574,22
1766015905.996588,23
1766015905.996598,23
1766015905.996613,19
1766015905.996623,22
1766015905.996633,22
1766015905.996643,20
1766015905.9966521,24
1766015905.996662,21
1766015905.996672,22
1766015905.996682,21
1766015905.996691,21
1766015905.996701,20
1766015905.996711,21
1766015905.9967208,21
1766015905.99673,19
1766015905.99674,19
1766015905.99675,21
1766015905.9967601,20
1766015905.996769,20
1766015905.996779,20
1766015905.996789,19
1766015905.996799,21
1766015905.996809,20
1766015905.996819,20
1766015905.9968278,22
1766015905.9968379,22
1766015905.996848,18
1766015905.9968581,17
1766015905.9968681,20
1766015905.996877,21
1766015905.996887,19
1766015905.996897,23
1766015905.996907,23
1766015905.996916,22
1766015905.996928,21
1766015905.9969401,21
1766015905.996951,18
1766015905.996962,22
1766015905.996972,23
1766015905.996982,17
1766015905.996991,19
1766015905.997001,17
1766015905.997011,23
1766015905.997022,23
1766015905.9970329,21
1766015905.997043,21
1766015905.997053,20
1766015905.997063,24
1766015905.997073,19
1766015905.997082,23
1766015905.997092,21
1766015905.997102,21
1766015905.997112,23
1766015905.997122,21
1766015905.997131,20
1766015905.997141,18
1766015905.997151,21
1766015905.997161,21
1766015905.997171,20
1766015905.99718,22
1766015905.99719,25
1766015905.9971998,22
1766015905.99721,22
1766015905.99722,21
1766015905.99723,21
1766015905.99724,20
1766015905.9972491,21
1766015905.997262,21
1766015905.9972742,20
1766015905.9972851,20
1766015905.9972968,26
1766015905.9973068,21
1766015905.997317,20
1766015905.9973261,17
1766015905.9973361,23
1766015905.9973462,21
1766015905.997356,21
1766015905.997366,21
1766015905.997376,22
1766015905.997385,22
1766015905.997395,20
1766015905.9974048,22
1766015905.9974148,25
1766015905.9974241,19
1766015905.9974341,23
1766015905.9974442,20
1766015905.9974542,21
1766015905.9974642,24
1766015905.9974751,20
1766015905.9974852,22
1766015905.997495,23
1766015905.997505,21
1766015905.997515,23
1766015905.997524,22
1766015905.997535,22
1766015905.997544,24
1766015905.9975538,22
1766015905.9975638,21
1766015905.9975739,19
1766015905.9975832,19
1766015905.997597,22
1766015905.997613,21
1766015905.997625,24
1766015905.997636,23
1766015905.997647,23
1766015905.997656,25
1766015905.997667,25
1766015905.9976761,21
1766015905.997686,22
1766015905.997696,19
1766015905.997706,24
1766015905.997715,23
1766015905.997725,24
1766015905.997735,22
1766015905.9977448,24
1766015905.9977548,22
1766015905.997764,20
1766015905.9977741,24
1766015905.9977841,25
1766015905.9977942,20
1766015905.997804,25
1766015905.997814,19
1766015905.997826,22
1766015905.997837,23
1766015905.997848,23
1766015905.997859,22
1766015905.997869,21
1766015905.997878,24
1766015905.997888,19
1766015905.997898,21
1766015905.9979079,23
1766015905.997918,22
1766015905.9979289,21
1766015905.99794,23
1766015905.9979498,23
1766015905.9979599,23
1766015905.997969,23
1766015905.997979,21
1766015905.9979892,25
1766015905.997998,21
1766015905.998008,23
1766015905.998018,23
1766015905.998028,24
1766015905.998038,23
1766015905.998048,23
1766015905.998058,19
1766015905.998067,23
1766015905.998077,24
1766015905.998087,21
1766015905.998097,18
1766015905.998107,21
1766015905.998116,23
1766015905.998126,26
1766015905.998136,22
1766015905.998146,22
1766015905.998156,22
1766015905.998168,23
1766015905.998179,21
1766015905.998189,20
1766015905.998198,25
1766015905.998208,21
1766015905.998218,22
1766015905.998227,24
1766015905.998237,20
1766015905.998246,27
1766015905.9982588,19
1766015905.998271,21
1766015905.998281,24
1766015905.9982998,21
1766015905.998312,23
1766015905.998323,20
1766015905.9983318,24
1766015905.998343,22
1766015905.998354,21
1766015905.998364,24
1766015905.998373,21
1766015905.998383,22
1766015905.998393,23
1766015905.9984782,21
1766015905.998501,20
1766015905.998514,22
1766015905.998527,20
1766015905.99854,22
1766015905.998553,19
1766015905.998566,21
1766015905.998579,24
1766015905.998591,21
1766015905.998604,24
1766015905.998626,26
1766015905.998639,22
1766015905.998652,20
1766015905.9986649,23
1766015905.998677,25
1766015905.9986901,20
1766015905.998703,22
1766015905.998715,22
1766015905.998739,21
1766015905.9987562,22
1766015905.998771,22
1766015905.9987829,19
1766015905.998796,20
1766015905.9988081,23
1766015905.998821,20
1766015905.998834,22
1766015905.998846,22
1766015905.998859,19
1766015905.998872,23
1766015905.998888,24
1766015905.998901,24
1766015905.998914,25
1766015905.998927,22
1766015905.9989388,24
1766015905.998952,23
1766015905.998965,24
1766015905.998977,23
1766015905.99899,21
1766015905.9990022,23
1766015905.9990149,23
1766015905.999028,23
1766015905.999041,23
1766015905.999053,23
1766015905.999066,20
1766015905.999079,22
1766015905.9990919,25
1766015905.999104,23
1766015905.9991171,24
1766015905.99913,27
1766015905.999143,23
1766015905.999155,23
1766015905.999168,21
1766015905.999189,22
1766015905.999203,21
1766015905.999216,23
1766015905.999228,23
1766015905.9992409,25
1766015905.999254,22
1766015905.9992661,23
1766015905.999279,24
1766015905.999292,23
1766015905.999305,27
1766015905.999317,25
1766015905.99933,25
1766015905.999342,24
1766015905.9993548,25
1766015905.999368,23
1766015905.999381,26
1766015905.999393,23
1766015905.999406,25
1766015905.999419,21
1766015905.9994318,25
1766015905.999444,21
1766015905.9994571,21
1766015905.999469,23
1766015905.9994822,23
1766015905.9994938,24
1766015905.999507,22
1766015905.99952,20
1766015905.999533,26
1766015905.999545,24
1766015905.999558,21
1766015905.9995708,24
1766015905.9995918,22
1766015905.999605,21
1766015905.999627,23
1766015905.99964,25
1766015905.999653,23
1766015905.999666,23
1766015905.999678,23
1766015905.999691,23
1766015905.999703,25
1766015905.999716,24
1766015905.9997282,24
1766015905.9997408,26
1766015905.999753,25
1766015905.999766,23
1766015905.999778,22
1766015905.9997911,24
1766015905.999804,23
1766015905.999816,27
1766015905.999829,22
1766015905.999841,25
1766015905.999854,24
1766015905.999866,21
1766015905.999879,27
1766015905.999891,22
1766015905.999904,22
1766015905.999917,24
1766015905.9999292,25
1766015905.9999418,23
1766015905.999955,22
1766015905.999969,22
1766015905.9999921,21
1766015906.000005,23
1766015906.000018,22
1766015906.000031,23
1766015906.000044,24
1766015906.0000598,24
1766015906.000075,25
1766015906.000087,23
1766015906.0001001,22
1766015906.000112,24
1766015906.000125,24
1766015906.000138,24
1766015906.00015,26
1766015906.000164,26
1766015906.000177,26
1766015906.0001888,25
1766015906.000205,26
1766015906.0002172,23
1766015906.0002298,23
1766015906.000243,25
1766015906.0002549,24
1766015906.000268,23
1766015906.000281,23
1766015906.000293,21
1766015906.000306,24
1766015906.000318,26
1766015906.000331,24
1766015906.000343,21
1766015906.0003572,22
1766015906.00037,23
1766015906.000383,22
1766015906.000396,24
1766015906.0004082,25
1766015906.000421,23
1766015906.000433,22
1766015906.0004458,24
1766015906.000458,23
1766015906.000471,22
1766015906.00049,24
1766015906.000504,25
1766015906.0005171,24
1766015906.00053,23
1766015906.000542,22
1766015906.000555,26
1766015906.0005682,23
1766015906.00058,21
1766015906.000593,22
1766015906.000618,23
1766015906.00063,23
1766015906.000643,22
1766015906.000656,22
1766015906.000669,21
1766015906.000681,25
1766015906.000694,22
1766015906.0007071,25
1766015906.000719,23
1766015906.000732,24
1766015906.0007439,25
1766015906.000757,21
1766015906.0007691,24
1766015906.000782,23
1766015906.000795,22
1766015906.0008068,24
1766015906.00082,23
1766015906.000833,25
1766015906.000845,26
1766015906.000858,21
1766015906.000871,23
1766015906.0008829,22
1766015906.000896,25
1766015906.0009081,22
1766015906.000928,22
1766015906.0009432,24
1766015906.0009558,25
1766015906.000968,25
1766015906.000981,23
1766015906.000996,23
1766015906.001009,23
1766015906.0010219,23
1766015906.001035,24
1766015906.0010471,22
1766015906.00106,23
1766015906.0010722,24
1766015906.001085,24
1766015906.001098,23
1766015906.00111,23
1766015906.0011232,26
1766015906.001136,23
1766015906.001148,24
1766015906.0011609,20
1766015906.001174,25
1766015906.0011861,22
1766015906.001199,23
1766015906.001211,26
1766015906.001224,23
1766015906.001237,24
1766015906.001249,25
1766015906.0012631,24
1766015906.001276,23
1766015906.001288,22
1766015906.001301,23
1766015906.001313,22
1766015906.0013251,22
1766015906.001338,23
1766015906.001358,22
1766015906.0013728,26
1766015906.001385,22
1766015906.001397,25
1766015906.00141,20
1766015906.0014231,23
1766015906.0014348,25
1766015906.001448,24
1766015906.00146,23
1766015906.001473,24
1766015906.001485,22
1766015906.0014982,23
1766015906.00151,20
1766015906.0015218,23
1766015906.001535,26
1766015906.001548,23
1766015906.00156,25
1766015906.001573,21
1766015906.001585,21
1766015906.0016,23
1766015906.001624,23
1766015906.0016372,26
1766015906.001649,23
1766015906.001662,23
1766015906.001674,22
1766015906.001687,24
1766015906.0017002,21
1766015906.001712,21
1766015906.001724,23
1766015906.0017369,21
1766015906.001749,24
1766015906.0017622,26
1766015906.001775,25
1766015906.001794,21
1766015906.001808,21
1766015906.001822,22
1766015906.001834,21
1766015906.001847,19
1766015906.0018592,22
1766015906.001874,21
1766015906.001887,23
1766015906.001899,22
1766015906.001912,26
1766015906.001924,24
1766015906.001937,20
1766015906.0019488,22
1766015906.001961,24
1766015906.001974,22
1766015906.001986,23
1766015906.0019991,18
1766015906.002012,25
1766015906.002024,23
1766015906.002037,21
1766015906.002049,23
1766015906.002062,23
1766015906.002074,21
1766015906.0020869,22
1766015906.002101,24
1766015906.002113,22
1766015906.002126,23
1766015906.0021381,23
1766015906.0021498,24
1766015906.002163,24
1766015906.002175,20
1766015906.002187,22
1766015906.0022001,22
1766015906.002219,24
1766015906.0022342,24
1766015906.002246,24
1766015906.002259,23
1766015906.002271,21
1766015906.002284,25
1766015906.0022972,23
1766015906.002309,23
1766015906.002322,20
1766015906.0023339,19
1766015906.002347,23
1766015906.002361,21
1766015906.002374,23
1766015906.0023859,22
1766015906.002399,24
1766015906.00241,23
1766015906.002421,18
1766015906.002432,21
1766015906.002442,24
1766015906.002453,20
1766015906.002464,22
1766015906.002474,23
1766015906.002485,23
1766015906.002496,19
1766015906.002506,22
1766015906.002642,23
1766015906.002688,22
1766015906.002709,19
1766015906.00272,21
1766015906.002731,22
1766015906.00284,21
1766015906.002856,23
1766015906.002867,24
1766015906.002881,20
1766015906.0028942,21
1766015906.0029051,21
1766015906.0029151,19
1766015906.002926,21
1766015906.002937,20
1766015906.002947,21
1766015906.002958,22
1766015906.002969,22
1766015906.002979,23
1766015906.00299,23
1766015906.003,22
1766015906.003011,23
1766015906.0030222,20
1766015906.003032,20
1766015906.0030432,24
1766015906.003053,20
1766015906.0030642,22
1766015906.003074,22
1766015906.0030851,24
1766015906.003096,21
1766015906.003106,23
1766015906.003117,21
1766015906.003127,24
1766015906.003138,25
1766015906.003149,22
1766015906.003159,22
1766015906.00317,24
1766015906.00318,23
1766015906.003191,19
1766015906.003202,26
1766015906.003212,22
1766015906.003223,22
1766015906.003237,21
1766015906.003249,23
1766015906.00326,22
1766015906.00327,24
1766015906.0032809,23
1766015906.0032918,21
1766015906.0033019,23
1766015906.0033128,24
1766015906.0033228,22
1766015906.0033338,22
1766015906.0033438,21
1766015906.0033548,22
1766015906.003365,23
1766015906.0033762,22
1766015906.003386,25
1766015906.003396,22
1766015906.003407,22
1766015906.003417,22
1766015906.003428,22
1766015906.003438,20
1766015906.0034502,21
1766015906.0034611,25
1766015906.0034711,22
1766015906.003482,23
1766015906.003493,23
1766015906.003504,25
1766015906.003514,21
1766015906.003525,19
1766015906.003536,20
1766015906.003547,22
1766015906.0035572,22
1766015906.0035682,26
1766015906.0035782,22
1766015906.003592,23
1766015906.003605,22
1766015906.003616,22
1766015906.0036259,21
1766015906.003637,23
1766015906.003647,23
1766015906.003658,22
1766015906.003669,22
1766015906.003679,22
1766015906.003689,23
1766015906.0037,24
1766015906.00371,22
1766015906.00372,20
1766015906.003731,20
1766015906.003741,22
1766015906.0037508,24
1766015906.003762,21
1766015906.003772,24
1766015906.003783,26
1766015906.003793,22
1766015906.003804,22
1766015906.003814,25
1766015906.0038242,22
1766015906.003835,20
1766015906.0038452,23
1766015906.003856,20
1766015906.003867,22
1766015906.0038772,20
1766015906.0038881,24
1766015906.0038981,22
1766015906.003909,23
1766015906.0039191,22
1766015906.00393,20
1766015906.003943,23
1766015906.003955,26
1766015906.0039659,21
1766015906.0039759,20
1766015906.0039868,21
1766015906.0039968,22
1766015906.004008,23
1766015906.0040178,21
1766015906.0040278,24
1766015906.0040388,21
1766015906.0040488,24
1766015906.0040588,24
1766015906.0040698,25
1766015906.00408,19
1766015906.0040908,22
1766015906.004101,22
1766015906.0041118,23
1766015906.004122,23
1766015906.0041332,22
1766015906.004143,23
1766015906.0041542,21
1766015906.004164,19
1766015906.0041752,20
1766015906.0041852,21
1766015906.004195,20
1766015906.0042062,20
1766015906.004216,20
1766015906.0042272,23
1766015906.0042381,23
1766015906.0042481,22
1766015906.004259,20
1766015906.0042691,25
1766015906.00428,24
1766015906.0042932,20
1766015906.004305,21
1766015906.004315,23
1766015906.0043259,22
1766015906.004336,21
1766015906.0043468,20
1766015906.0043578,20
1766015906.0043678,23
1766015906.0043788,23
1766015906.004389,20
1766015906.00441,20
1766015906.004426,21
1766015906.004438,21
1766015906.004448,24
1766015906.004459,22
1766015906.004469,22
1766015906.00448,22
1766015906.00449,22
1766015906.004501,23
1766015906.0045109,23
1766015906.004522,23
1766015906.0045319,23
1766015906.004543,24
1766015906.0045528,19
1766015906.004564,23
1766015906.004574,22
1766015906.004585,22
1766015906.004595,22
1766015906.004606,20
1766015906.004616,20
1766015906.004627,18
1766015906.004637,24
1766015906.004648,21
1766015906.004661,20
1766015906.0046751,24
1766015906.0046878,21
1766015906.004698,20
1766015906.004708,20
1766015906.004719,24
1766015906.004738,24
1766015906.004748,19
1766015906.004759,24
1766015906.00477,22
1766015906.00478,24
1766015906.004791,21
1766015906.004801,21
1766015906.004811,21
1766015906.004822,23
1766015906.004832,20
1766015906.004842,22
1766015906.004852,21
1766015906.004863,20
1766015906.004873,20
1766015906.004883,20
1766015906.004894,23
1766015906.004904,21
1766015906.0049138,24
1766015906.0049238,24
1766015906.004935,22
1766015906.0049448,22
1766015906.0049548,20
1766015906.0049658,24
1766015906.004976,24
1766015906.004986,21
1766015906.004996,25
1766015906.005007,22
1766015906.005017,21
1766015906.005034,21
1766015906.005045,23
1766015906.005057,21
1766015906.005067,19
1766015906.005077,22
1766015906.005088,22
1766015906.0050979,23
1766015906.005109,24
1766015906.005119,23
1766015906.00513,22
1766015906.00514,21
1766015906.005151,21
1766015906.005161,20
1766015906.005172,18
1766015906.005182,19
1766015906.005192,21
1766015906.005203,23
1766015906.005213,21
1766015906.0052228,21
1766015906.005234,24
1766015906.005245,21
1766015906.005255,23
1766015906.005266,22
1766015906.005276,22
1766015906.005287,21
1766015906.005297,19
1766015906.005308,20
1766015906.005318,24
1766015906.005329,19
1766015906.005339,22
1766015906.0053492,23
1766015906.0053601,19
1766015906.0053701,22
1766015906.005381,22
1766015906.005398,21
1766015906.00541,20
1766015906.0054212,20
1766015906.005431,22
1766015906.0054421,23
1766015906.005452,18
1766015906.005462,23
1766015906.0054731,23
1766015906.005483,25
1766015906.005493,20
1766015906.005504,18
1766015906.005516,24
1766015906.005527,21
1766015906.005537,24
1766015906.005547,23
1766015906.005557,21
1766015906.005568,19
1766015906.005578,22
1766015906.005589,20
1766015906.005599,21
1766015906.005609,21
1766015906.00562,20
1766015906.005643,21
1766015906.005653,18
1766015906.005665,22
1766015906.005675,21
1766015906.005686,24
1766015906.005696,24
1766015906.005707,21
1766015906.005717,18
1766015906.005728,22
1766015906.005738,24
1766015906.005749,22
1766015906.005766,22
1766015906.0057778,20
1766015906.0057878,25
1766015906.0057988,22
1766015906.0058088,20
1766015906.0058188,24
1766015906.0058298,22
1766015906.0058408,21
1766015906.005853,24
1766015906.005863,20
1766015906.005874,21
1766015906.005884,22
1766015906.005894,20
1766015906.005905,23
1766015906.005915,23
1766015906.005926,24
1766015906.0059361,23
1766015906.0059469,25
1766015906.0059571,23
1766015906.0059679,20
1766015906.005978,25
1766015906.005989,23
1766015906.005999,23
1766015906.00601,24
1766015906.00602,22
1766015906.006031,22
1766015906.006041,23
1766015906.006052,27
1766015906.006062,23
1766015906.006072,22
1766015906.006083,24
1766015906.006094,27
1766015906.0061052,21
1766015906.0061219,22
1766015906.006135,24
1766015906.006146,23
1766015906.006156,25
1766015906.006166,22
1766015906.006177,23
1766015906.006187,24
1766015906.006197,19
1766015906.006208,22
1766015906.006218,24
1766015906.006229,25
1766015906.006239,19
1766015906.006249,23
1766015906.00626,25
1766015906.00627,21
1766015906.006281,23
1766015906.006291,22
1766015906.0063019,21
1766015906.0063128,22
1766015906.006324,23
1766015906.006334,20
1766015906.006345,25
1766015906.006356,24
1766015906.0063648,23
1766015906.006374,23
1766015906.0063858,19
1766015906.0063941,21
1766015906.0064042,22
1766015906.006413,23
1766015906.006422,22
1766015906.00643,21
1766015906.006439,22
1766015906.006448,22
1766015906.006464,18
1766015906.006473,24
1766015906.0064828,20
1766015906.0064929,19
1766015906.006502,24
1766015906.0065112,25
1766015906.006521,21
1766015906.00653,21
1766015906.006539,25
1766015906.006548,22
1766015906.006557,20
1766015906.0065658,22
1766015906.006575,21
1766015906.0065842,22
1766015906.006593,23
1766015906.006602,21
1766015906.0066109,21
1766015906.00662,21
1766015906.0066292,23
1766015906.006638,24
1766015906.006647,21
1766015906.006656,22
1766015906.006665,22
1766015906.0066738,21
1766015906.0066829,23
1766015906.0066922,26
1766015906.006701,21
1766015906.00671,24
1766015906.0067189,27
1766015906.006728,24
1766015906.006737,23
1766015906.006746,26
1766015906.006755,20
1766015906.006764,22
1766015906.006776,26
1766015906.006786,20
1766015906.006795,24
1766015906.006804,26
1766015906.0068128,23
1766015906.0068219,23
1766015906.0068312,21
1766015906.00684,20
1766015906.006849,21
1766015906.0068579,21
1766015906.006867,25
1766015906.006876,20
1766015906.006885,24
1766015906.006894,24
1766015906.006902,25
1766015906.006911,19
1766015906.0069199,20
1766015906.006929,20
1766015906.0069382,23
1766015906.006947,25
1766015906.006956,24
1766015906.006965,24
1766015906.006974,24
1766015906.0069828,21
1766015906.0069919,22
1766015906.0070012,25
1766015906.00701,21
1766015906.007019,22
1766015906.0070279,25
1766015906.007037,24
1766015906.007046,23
1766015906.007055,24
1766015906.007064,25
1766015906.007076,24
1766015906.007086,21
1766015906.007096,20
1766015906.007105,22
1766015906.007114,26
1766015906.007123,24
1766015906.0071318,25
1766015906.007141,26
1766015906.0071502,24
1766015906.007159,21
1766015906.007168,24
1766015906.0071769,23
1766015906.007186,22
1766015906.007195,23
1766015906.007204,23
1766015906.007213,22
1766015906.007222,25
1766015906.00723,25
1766015906.0072389,22
1766015906.007248,22
1766015906.007257,21
1766015906.007266,25
1766015906.007275,24
1766015906.007284,23
1766015906.007293,23
1766015906.0073018,24
1766015906.007311,25
1766015906.0073202,21
1766015906.007329,25
1766015906.007338,24
1766015906.0073469,24
1766015906.007356,22
1766015906.0073652,25
1766015906.007374,20
1766015906.007385,21
1766015906.0073972,25
1766015906.007406,20
1766015906.007415,24
1766015906.007424,22
1766015906.007433,21
1766015906.007442,25
1766015906.0074508,22
1766015906.00746,26
1766015906.007469,24
1766015906.007478,25
1766015906.0074859,22
1766015906.007495,24
1766015906.007504,25
1766015906.007513,27
1766015906.007522,24
1766015906.007531,24
1766015906.00754,25
1766015906.0075488,22
1766015906.0075579,22
1766015906.0075672,22
1766015906.007576,22
1766015906.007585,24
1766015906.0075939,22
1766015906.007603,24
1766015906.007613,24
1766015906.007622,24
1766015906.0076318,23
1766015906.007641,23
1766015906.0076501,21
1766015906.007659,24
1766015906.007668,21
1766015906.0076768,26
1766015906.007688,25
1766015906.0077,24
1766015906.007709,25
1766015906.0077178,22
1766015906.0077271,25
1766015906.007736,25
1766015906.007745,24
1766015906.007754,21
1766015906.007763,23
1766015906.007772,26
1766015906.007781,27
1766015906.00779,23
1766015906.0077991,23
1766015906.007808,23
1766015906.0078158,22
1766015906.007825,23
1766015906.0078342,22
1766015906.007843,22
1766015906.007852,20
1766015906.007862,22
1766015906.007871,22
1766015906.00788,21
1766015906.0078888,23
1766015906.007898,23
1766015906.0079072,23
1766015906.007916,23
1766015906.007924,26
1766015906.007933,23
1766015906.007942,23
1766015906.007951,25
1766015906.00796,22
1766015906.0079691,24
1766015906.007978,20
1766015906.007989,22
1766015906.007999,25
1766015906.00801,25
1766015906.008019,22
1766015906.0080278,22
1766015906.008037,26
1766015906.0080462,23
1766015906.008055,25
1766015906.008064,26
1766015906.008072,24
1766015906.008081,25
1766015906.00809,22
1766015906.008099,25
1766015906.0081081,22
1766015906.008117,26
1766015906.008126,22
1766015906.0081348,23
1766015906.008144,23
1766015906.0081532,21
1766015906.008162,27
1766015906.008171,23
1766015906.00818,22
1766015906.008189,24
1766015906.0081978,23
1766015906.008207,25
1766015906.0082161,23
1766015906.008225,25
1766015906.008234,23
1766015906.0082428,25
1766015906.008252,24
1766015906.0082612,25
1766015906.00827,24
1766015906.008279,22
1766015906.008288,23
1766015906.0083,22
1766015906.008311,21
1766015906.00832,24
1766015906.008329,23
1766015906.008338,25
1766015906.0083468,23
1766015906.008356,24
1766015906.0084429,26
1766015906.0084522,25
1766015906.008461,27
1766015906.00847,23
1766015906.0084789,24
1766015906.008488,24
1766015906.008497,25
1766015906.008506,26
1766015906.0085151,22
1766015906.008524,26
1766015906.008533,25
1766015906.008546,25
1766015906.008555,27
1766015906.008564,24
1766015906.0085728,26
1766015906.0085819,24
1766015906.0085912,29
1766015906.0086,23
1766015906.008609,28
1766015906.0086179,25
1766015906.008627,26
1766015906.008636,24
1766015906.008645,23
1766015906.008654,22
1766015906.0086641,27
1766015906.008672,28
1766015906.008684,25
1766015906.008696,25
1766015906.0087051,22
1766015906.008714,28
1766015906.008723,22
1766015906.0087318,23
1766015906.0087411,26
1766015906.00875,29
1766015906.008759,25
1766015906.008768,25
1766015906.008777,24
1766015906.008786,26
1766015906.0087948,28
1766015906.0088031,25
1766015906.008812,23
1766015906.008821,21
1766015906.00883,24
1766015906.008839,25
1766015906.008848,24
1766015906.008857,23
1766015906.008866,25
1766015906.008875,24
1766015906.008884,24
1766015906.008893,25
1766015906.0089018,25
1766015906.0089111,26
1766015906.00892,29
1766015906.008929,25
1766015906.008938,26
1766015906.008946,25
1766015906.0089548,23
1766015906.008964,25
1766015906.0089731,27
1766015906.008985,23
1766015906.008994,23
1766015906.009004,24
1766015906.009013,26
1766015906.009022,22
1766015906.0090308,25
1766015906.0090399,25
1766015906.0090492,25
1766015906.009058,28
1766015906.009067,24
1766015906.0090759,26
1766015906.009085,24
1766015906.009094,25
1766015906.009103,24
1766015906.0091121,23
1766015906.009121,25
1766015906.00913,26
1766015906.009139,28
1766015906.009148,23
1766015906.0091572,26
1766015906.009166,24
1766015906.009175,23
1766015906.009184,23
1766015906.009193,26
1766015906.009202,21
1766015906.0092108,21
1766015906.0092201,24
1766015906.009229,22
1766015906.009238,23
1766015906.009247,23
1766015906.009256,22
1766015906.009265,24
1766015906.009274,23
1766015906.009283,25
1766015906.009295,26
1766015906.0093062,24
1766015906.009315,24
1766015906.009324,22
1766015906.009333,21
1766015906.009342,22
1766015906.009351,25
1766015906.0093591,24
1766015906.0093682,23
1766015906.009377,24
1766015906.009386,23
1766015906.009395,24
1766015906.009404,24
1766015906.009413,23
1766015906.009422,23
1766015906.0094311,25
1766015906.00944,22
1766015906.009449,23
1766015906.0094578,22
1766015906.009467,26
1766015906.0094762,24
1766015906.009485,26
1766015906.0094929,24
1766015906.009502,22
1766015906.009511,23
1766015906.00952,25
1766015906.009529,25
1766015906.009538,26
1766015906.009547,24
1766015906.009556,25
1766015906.0095649,20
1766015906.009574,25
1766015906.009583,25
1766015906.009595,24
1766015906.009604,24
1766015906.009614,26
1766015906.009623,23
1766015906.009632,25
1766015906.009641,27
1766015906.00965,23
1766015906.0096588,22
1766015906.009668,23
1766015906.0096772,21
1766015906.009686,23
1766015906.009695,24
1766015906.0097039,22
1766015906.009713,23
1766015906.009722,22
1766015906.009731,26
1766015906.00974,22
1766015906.009749,22
1766015906.009758,20
1766015906.0097668,22
1766015906.009776,21
1766015906.0097852,25
1766015906.009794,26
1766015906.009803,23
1766015906.0098119,25
1766015906.009821,24
1766015906.00983,24
1766015906.009839,21
1766015906.009847,27
1766015906.009856,20
1766015906.009865,24
1766015906.0098739,22
1766015906.009883,22
1766015906.009892,22
1766015906.0099041,21
1766015906.0099158,22
1766015906.0099251,23
1766015906.0099342,21
1766015906.009943,24
1766015906.009952,23
1766015906.009961,25
1766015906.00997,25
1766015906.009978,23
1766015906.009988,24
1766015906.009996,24
1766015906.010005,23
1766015906.010014,25
1766015906.0100229,19
1766015906.0100322,22
1766015906.010041,21
1766015906.01005,24
1766015906.010059,22
1766015906.010068,25
1766015906.010077,22
1766015906.0100858,23
1766015906.0100951,25
1766015906.0101042,25
1766015906.010113,22
1766015906.010122,25
1766015906.010131,24
1766015906.010139,22
1766015906.010148,24
1766015906.010157,24
1766015906.010166,23
1766015906.010175,21
1766015906.010184,24
1766015906.0101929,25
1766015906.010205,20
1766015906.010217,22
1766015906.010226,25
1766015906.0102348,22
1766015906.0102441,23
1766015906.010252,26
1766015906.010261,22
1766015906.0102699,22
1766015906.0102808,24
1766015906.01029,26
1766015906.010299,22
1766015906.010308,19
1766015906.010317,23
1766015906.010326,24
1766015906.010335,23
1766015906.010344,21
1766015906.0103528,25
1766015906.0103621,22
1766015906.010371,25
1766015906.01038,24
1766015906.010389,22
1766015906.010398,22
1766015906.010407,25
1766015906.010416,23
1766015906.010425,24
1766015906.0104342,26
1766015906.010443,22
1766015906.010452,23
1766015906.01046,25
1766015906.0104692,21
1766015906.010478,21
1766015906.010487,22
1766015906.010496,24
1766015906.010507,22
1766015906.010517,20
1766015906.010526,24
1766015906.010535,20
1766015906.010544,21
1766015906.0105531,22
1766015906.010562,21
1766015906.010571,23
1766015906.01058,24
1766015906.010589,24
1766015906.010598,25
1766015906.010607,23
1766015906.010616,23
1766015906.0106251,22
1766015906.010634,25
1766015906.010643,23
1766015906.0106518,22
1766015906.0106611,23
1766015906.0106702,25
1766015906.010679,23
1766015906.010688,22
1766015906.010697,24
1766015906.010705,25
1766015906.0107148,27
1766015906.010723,22
1766015906.010732,21
1766015906.010741,21
1766015906.01075,21
1766015906.0107589,22
1766015906.010768,22
1766015906.010777,21
1766015906.010786,20
1766015906.010795,22
1766015906.010806,24
1766015906.010816,23
1766015906.010825,19
1766015906.010834,22
1766015906.0108428,21
1766015906.010852,23
1766015906.0108612,21
1766015906.01087,19
1766015906.010879,24
1766015906.0108879,23
1766015906.010897,20
1766015906.0109062,22
1766015906.010915,21
1766015906.010923,24
1766015906.010933,22
1766015906.010941,25
1766015906.0109499,22
1766015906.0109591,20
1766015906.010968,23
1766015906.010977,24
1766015906.010986,25
1766015906.010995,20
1766015906.011004,22
1766015906.011013,23
1766015906.011022,22
1766015906.0110312,23
1766015906.011039,24
1766015906.0110478,23
1766015906.011057,24
1766015906.0110662,21
1766015906.011075,25
1766015906.011084,23
1766015906.011093,23
1766015906.011104,25
1766015906.011115,23
1766015906.011124,24
1766015906.011133,23
1766015906.0111418,21
1766015906.0111518,26
1766015906.011161,23
1766015906.0111701,20
1766015906.011179,24
1766015906.011188,24
1766015906.0111969,21
1766015906.011206,24
1766015906.011227,22
1766015906.0112362,23
1766015906.011245,25
1766015906.011254,23
1766015906.011263,23
1766015906.011272,22
1766015906.011281,22
1766015906.01129,22
1766015906.011301,25
1766015906.01131,23
1766015906.011319,21
1766015906.011328,21
1766015906.011338,22
1766015906.011347,22
1766015906.0113559,22
1766015906.0113652,22
1766015906.011374,23
1766015906.011383,24
1766015906.011392,25
1766015906.011401,26
1766015906.01141,24
1766015906.011421,25
1766015906.011431,19
1766015906.01144,22
1766015906.011449,23
1766015906.0114582,22
1766015906.011467,25
1766015906.011476,23
1766015906.0114849,23
1766015906.011494,25
1766015906.0115032,21
1766015906.011512,19
1766015906.01152,26
1766015906.011529,19
1766015906.011538,21
1766015906.0115469,23
1766015906.0115561,23
1766015906.011565,22
1766015906.011574,22
1766015906.011583,22
1766015906.011592,24
1766015906.011601,22
1766015906.01161,21
1766015906.011619,22
1766015906.0116282,22
1766015906.011637,20
1766015906.011646,21
1766015906.0116549,21
1766015906.0116632,23
1766015906.011672,21
1766015906.011681,25
1766015906.01169,22
1766015906.011699,24
1766015906.011708,24
1766015906.01172,22
1766015906.01173,23
1766015906.0117388,21
1766015906.011748,21
1766015906.0117571,20
1766015906.011766,22
1766015906.011775,24
1766015906.0117838,25
1766015906.011792,24
1766015906.0118022,21
1766015906.011811,22
1766015906.01182,22
1766015906.011829,25
1766015906.011838,22
1766015906.0118458,22
1766015906.0118551,24
1766015906.011864,21
1766015906.011873,24
1766015906.011882,23
1766015906.011891,24
1766015906.0119,25
1766015906.011909,23
1766015906.011918,21
1766015906.0119271,22
1766015906.011936,22
1766015906.011945,22
1766015906.0119538,25
1766015906.011963,23
1766015906.0119722,21
1766015906.011981,19
1766015906.01199,23
1766015906.011999,23
1766015906.012008,22
1766015906.012021,23
1766015906.012032,23
1766015906.0120409,25
1766015906.012049,21
1766015906.012058,20
1766015906.012067,20
1766015906.0120761,23
1766015906.012085,22
1766015906.012094,25
1766015906.0121028,22
1766015906.012112,24
1766015906.0121212,23
1766015906.01213,24
1766015906.012139,23
1766015906.012148,22
1766015906.012157,25
1766015906.0121658,22
1766015906.012175,25
1766015906.0121841,24
1766015906.012193,24
1766015906.012202,25
1766015906.0122108,23
1766015906.01222,22
1766015906.0122292,24
1766015906.012238,24
1766015906.012247,24
1766015906.012256,22
1766015906.012265,23
1766015906.0122728,24
1766015906.0122821,22
1766015906.012291,26
1766015906.0123,22
1766015906.012309,21
1766015906.012325,23
1766015906.012335,23
1766015906.0123441,22
1766015906.012353,22
1766015906.012362,22
1766015906.0123708,22
1766015906.01238,22
1766015906.0123892,20
1766015906.012398,26
1766015906.012407,23
1766015906.012415,20
1766015906.012424,23
1766015906.0124328,24
1766015906.012442,20
1766015906.0124512,24
1766015906.01246,24
1766015906.012469,24
1766015906.0124779,22
1766015906.012487,20
1766015906.0124958,21
1766015906.012505,23
1766015906.012513,22
1766015906.012522,21
1766015906.012531,21
1766015906.0125399,23
1766015906.0125492,25
1766015906.012558,18
1766015906.012567,23
1766015906.012576,23
1766015906.012585,22
1766015906.0125928,22
1766015906.012602,24
1766015906.0126112,23
1766015906.012627,22
1766015906.012637,23
1766015906.012645,21
1766015906.012668,23
1766015906.0126772,24
1766015906.012686,20
1766015906.012695,23
1766015906.012704,22
1766015906.012712,21
1766015906.0127208,23
1766015906.0127301,22
1766015906.0127392,22
1766015906.012748,21
1766015906.012757,24
1766015906.012766,23
1766015906.012775,23
1766015906.0127842,21
1766015906.012792,25
1766015906.012801,24
1766015906.01281,21
1766015906.012819,21
1766015906.0128279,22
1766015906.0128372,24
1766015906.012846,23
1766015906.012854,24
1766015906.012864,22
1766015906.012873,24
1766015906.0128808,22
1766015906.01289,23
1766015906.0128992,21
1766015906.012908,23
1766015906.0129201,24
1766015906.012929,22
1766015906.0129411,25
1766015906.012952,23
1766015906.012961,21
1766015906.01297,21
1766015906.012979,22
1766015906.0129879,21
1766015906.0129962,21
1766015906.013005,22
1766015906.013014,22
1766015906.013023,24
1766015906.013032,20
1766015906.0130408,20
1766015906.01305,21
1766015906.0130591,23
1766015906.013068,23
1766015906.013076,24
1766015906.013085,21
1766015906.013094,20
1766015906.013103,25
1766015906.013112,23
1766015906.0131211,23
1766015906.01313,21
1766015906.013139,19
1766015906.0131478,24
1766015906.0131571,22
1766015906.0131662,22
1766015906.013175,21
1766015906.013184,22
1766015906.013193,24
1766015906.013202,24
1766015906.01321,24
1766015906.01322,24
1766015906.013228,21
1766015906.0132449,23
1766015906.013254,23
1766015906.013265,25
1766015906.0132742,23
1766015906.013283,23
1766015906.013292,23
1766015906.013301,24
1766015906.01331,20
1766015906.0133178,25
1766015906.0133271,25
1766015906.0133362,24
1766015906.013345,21
1766015906.013354,25
1766015906.013363,21
1766015906.013372,22
1766015906.013381,24
1766015906.01339,22
1766015906.0133991,22
1766015906.013408,23
1766015906.013417,22
1766015906.0134258,20
1766015906.013435,25
1766015906.0134442,23
1766015906.013453,21
1766015906.0134609,23
1766015906.01347,24
1766015906.013479,22
1766015906.013488,24
1766015906.013497,24
1766015906.013506,24
1766015906.013515,23
1766015906.013524,28
1766015906.0135329,24
1766015906.013542,25
1766015906.0135539,26
1766015906.0135639,25
1766015906.013574,27
1766015906.013582,24
1766015906.013592,26
1766015906.013601,23
1766015906.013609,24
1766015906.013618,21
1766015906.0136268,25
1766015906.013636,25
1766015906.0136452,23
1766015906.013654,23
1766015906.013663,26
1766015906.0136719,23
1766015906.013681,25
1766015906.013689,20
1766015906.013698,23
1766015906.013707,23
1766015906.013716,23
1766015906.013725,24
1766015906.0137331,22
1766015906.013742,26
1766015906.013751,28
1766015906.01376,25
1766015906.013769,25
1766015906.013778,23
1766015906.0137868,25
1766015906.013796,23
1766015906.0138052,27
1766015906.013814,24
1766015906.013823,24
1766015906.013831,25
1766015906.01384,24
1766015906.013852,25
1766015906.013862,21
1766015906.0138712,24
1766015906.01388,25
1766015906.013889,23
1766015906.013898,24
1766015906.013907,26
1766015906.013916,23
1766015906.0139241,26
1766015906.013933,24
1766015906.013942,23
1766015906.013951,25
1766015906.01396,25
1766015906.013969,23
1766015906.013978,24
1766015906.013987,25
1766015906.0139961,23
1766015906.014005,24
1766015906.014014,26
1766015906.0140219,26
1766015906.0140312,25
1766015906.01404,25
1766015906.014049,25
1766015906.0140579,26
1766015906.014067,26
1766015906.014076,27
1766015906.014085,25
1766015906.014094,25
1766015906.014103,25
1766015906.014111,23
1766015906.0141199,25
1766015906.014129,24
1766015906.0141382,26
1766015906.014147,25
1766015906.0141592,24
1766015906.014169,24
1766015906.014178,26
1766015906.014187,24
1766015906.014196,28
1766015906.014205,25
1766015906.0142138,27
1766015906.014223,28
1766015906.0142322,26
1766015906.014241,26
1766015906.014251,26
1766015906.01426,25
1766015906.0142689,27
1766015906.014278,23
1766015906.014287,25
1766015906.014295,26
1766015906.014303,27
1766015906.0143108,25
1766015906.0143192,27
1766015906.014327,25
1766015906.014335,27
1766015906.0143418,27
1766015906.0143502,28
1766015906.014358,27
1766015906.014366,25
1766015906.0143738,24
1766015906.0143821,22
1766015906.01439,26
1766015906.0143979,27
1766015906.014406,25
1766015906.014414,26
1766015906.014421,25
1766015906.0144289,24
1766015906.0144372,25
1766015906.014445,25
1766015906.014453,29
1766015906.014461,23
1766015906.0144691,25
1766015906.014477,24
1766015906.014485,26
1766015906.014493,27
1766015906.014501,26
1766015906.014509,28
1766015906.014517,24
1766015906.014525,29
1766015906.014533,27
1766015906.0145411,27
1766015906.014549,25
1766015906.014557,27
1766015906.0145652,25
1766015906.014573,26
1766015906.014581,26
1766015906.0145888,27
1766015906.0145972,26
1766015906.014604,27
1766015906.014612,26
1766015906.0146198,26
1766015906.0146282,25
1766015906.014642,24
1766015906.01465,28
1766015906.014658,25
1766015906.014666,26
1766015906.014674,26
1766015906.014682,25
1766015906.0146902,25
1766015906.014698,26
1766015906.014706,26
1766015906.014714,25
1766015906.014722,26
1766015906.01473,26
1766015906.0147378,24
1766015906.0147462,25
1766015906.014753,27
1766015906.014761,27
1766015906.0147688,26
1766015906.0147772,27
1766015906.014785,26
1766015906.014793,26
1766015906.0148008,25
1766015906.0148091,25
1766015906.014817,27
1766015906.0148249,23
1766015906.014833,26
1766015906.014841,25
1766015906.014848,26
1766015906.0148559,22
1766015906.014864,25
1766015906.014872,26
1766015906.01488,23
1766015906.014888,25
1766015906.0148962,25
1766015906.014904,23
1766015906.014912,27
1766015906.0149188,25
1766015906.0149271,24
1766015906.014935,26
1766015906.014943,27
1766015906.014952,27
1766015906.01496,23
1766015906.0149682,26
1766015906.014976,27
1766015906.014984,24
1766015906.0149918,26
1766015906.015,24
1766015906.015008,23
1766015906.0150158,22
1766015906.0150242,24
1766015906.015032,27
1766015906.01504,24
1766015906.015048,25
1766015906.015056,24
1766015906.015064,22
1766015906.015072,26
1766015906.01508,24
1766015906.015088,25
1766015906.015096,25
1766015906.015104,22
1766015906.015112,23
1766015906.0151198,21
1766015906.0151281,24
1766015906.015136,22
1766015906.0151439,29
1766015906.015151,23
1766015906.0151591,22
1766015906.015167,27
1766015906.0151749,24
1766015906.0151832,25
1766015906.015191,23
1766015906.015199,25
1766015906.0152068,25
1766015906.0152152,25
1766015906.015223,23
1766015906.015231,25
1766015906.015239,26
1766015906.015247,24
1766015906.015254,22
1766015906.015262,24
1766015906.01527,23
1766015906.015278,27
1766015906.015286,26
1766015906.0152938,26
1766015906.015302,24
1766015906.01531,24
1766015906.015318,25
1766015906.015326,23
1766015906.015334,26
1766015906.015342,25
1766015906.01535,24
1766015906.015358,22
1766015906.0153658,28
1766015906.0153742,22
1766015906.015382,25
1766015906.015389,24
1766015906.015397,25
1766015906.015405,23
1766015906.015413,25
1766015906.015421,24
1766015906.015429,24
1766015906.0154371,27
1766015906.015445,26
1766015906.0154529,25
1766015906.0154612,24
1766015906.015469,27
1766015906.015477,23
1766015906.0154848,25
1766015906.0154932,24
1766015906.015501,25
1766015906.015508,27
1766015906.0155158,28
1766015906.0155241,21
1766015906.015532,27
1766015906.01554,23
1766015906.015548,26
1766015906.015556,27
1766015906.015564,22
1766015906.015572,28
1766015906.01558,24
1766015906.015588,27
1766015906.015596,27
1766015906.015604,27
1766015906.015612,23
1766015906.01562,20
1766015906.015628,21
1766015906.015636,26
1766015906.015656,25
1766015906.0156648,23
1766015906.0156732,26
1766015906.015682,24
1766015906.01569,27
1766015906.015698,23
1766015906.015706,25
1766015906.015714,24
1766015906.015722,25
1766015906.01573,28
1766015906.015738,22
1766015906.015746,25
1766015906.015753,23
1766015906.015761,24
1766015906.015769,26
1766015906.015777,25
1766015906.015785,23
1766015906.0157928,21
1766015906.0158012,24
1766015906.015809,25
1766015906.015817,24
1766015906.0158248,26
1766015906.015832,25
1766015906.01584,27
1766015906.015848,22
1766015906.015856,24
1766015906.0158641,26
1766015906.015872,26
1766015906.0158799,23
1766015906.015888,25
1766015906.015896,23
1766015906.015904,21
1766015906.0159118,26
1766015906.0159202,25
1766015906.015927,23
1766015906.015935,24
1766015906.015944,27
1766015906.0159519,28
1766015906.015959,24
1766015906.015967,26
1766015906.015975,23
1766015906.015983,25
1766015906.015991,24
1766015906.015999,27
1766015906.016007,23
1766015906.016015,21
1766015906.016022,24
1766015906.0160298,26
1766015906.016038,26
1766015906.016046,24
1766015906.016054,23
1766015906.016062,25
1766015906.01607,26
1766015906.016078,22
1766015906.016086,26
1766015906.016094,27
1766015906.0161018,24
1766015906.016109,26
1766015906.016117,28
1766015906.016125,26
1766015906.0167592,24
1766015906.0177438,26
1766015906.0187259,26
1766015906.019729,23
1766015906.020753,26
1766015906.021777,26
1766015906.0227652,24
1766015906.023741,24
1766015906.024738,23
1766015906.025741,26
1766015906.026748,27
1766015906.027797,27
1766015906.0287738,26
1766015906.029771,29
1766015906.03076,27
1766015906.031786,26
1766015906.032833,24
1766015906.033796,29
1766015906.0348,28
1766015906.0357919,27
1766015906.036819,26
1766015906.037822,25
1766015906.0387998,25
1766015906.039787,26
1766015906.040787,27
1766015906.0417962,28
1766015906.0427809,25
1766015906.0437918,25
1766015906.04479,25
1766015906.0458019,31
1766015906.0468311,28
1766015906.047806,25
1766015906.048844,28
1766015906.049821,27
1766015906.050848,26
1766015906.051829,28
1766015906.05286,29
1766015906.0538251,25
1766015906.0548532,30
1766015906.055857,27
1766015906.056857,26
1766015906.057863,25
1766015906.05885,27
1766015906.0598521,28
1766015906.060862,26
1766015906.061873,21
1766015906.062881,25
1766015906.06388,28
1766015906.064867,28
1766015906.065872,27
1766015906.0668778,29
1766015906.067879,31
1766015906.068872,31
1766015906.069885,31
1766015906.070904,35
1766015906.0719008,41
1766015906.072889,36
1766015906.073897,39
1766015906.07492,39
1766015906.075923,39
1766015906.076907,45
1766015906.077906,46
1766015906.078933,48
1766015906.079913,50
1766015906.0810308,50
1766015906.082002,54
1766015906.0829282,51
1766015906.083935,53
1766015906.0850198,53
1766015906.086076,53
1766015906.0869892,57
1766015906.0879302,57
1766015906.089014,55
1766015906.089974,56
1766015906.091017,56
1766015906.092009,57
1766015906.093023,60
1766015906.093972,65
1766015906.094971,69
1766015906.095975,71
1766015906.097047,74
1766015906.098016,69
1766015906.0990121,68
1766015906.0999749,71
1766015906.1010098,73
1766015906.102009,76
1766015906.1029708,72
1766015906.1040168,78
1766015906.1050172,75
1766015906.106011,74
1766015906.107012,75
1766015906.108012,79
1766015906.109011,90
1766015906.110084,106
1766015906.1110568,117
1766015906.1120992,129
1766015906.113098,135
1766015906.114099,140
1766015906.115114,140
1766015906.116106,145
1766015906.117117,150
1766015906.1181178,147
1766015906.1190898,149
1766015906.120091,149
1766015906.121123,151
1766015906.122132,149
1766015906.123141,149
1766015906.1241448,147
1766015906.125103,148
1766015906.1261382,142
1766015906.127135,142
1766015906.128098,142
1766015906.129127,145
1766015906.130162,142
1766015906.131156,139
1766015906.132164,141
1766015906.133137,137
1766015906.1341388,137
1766015906.135149,136
1766015906.136149,134
1766015906.137163,136
1766015906.1381729,135
1766015906.139165,131
1766015906.140165,133
1766015906.1411788,131
1766015906.142194,132
1766015906.143169,130
1766015906.1441789,125
1766015906.145186,129
1766015906.146187,125
1766015906.1472,124
1766015906.148194,124
1766015906.149194,125
1766015906.150205,124
1766015906.151202,120
1766015906.152211,118
1766015906.1532211,118
1766015906.1542242,124
1766015906.15521,127
1766015906.156217,134
1766015906.157228,149
1766015906.1582239,159
1766015906.159232,167
1766015906.160227,169
1766015906.161231,173
1766015906.162231,176
1766015906.163229,177
1766015906.1642292,181
1766015906.1652522,186
1766015906.166247,184
1766015906.16724,180
1766015906.16825,180
1766015906.16926,181
1766015906.170273,179
1766015906.1712651,181
1766015906.172269,176
1766015906.17328,177
1766015906.174284,176
1766015906.175272,176
1766015906.1762931,174
1766015906.177289,172
1766015906.178283,174
1766015906.179306,172
1766015906.180295,174
1766015906.181289,175
1766015906.182306,177
1766015906.183309,179
1766015906.18431,181
1766015906.185318,178
1766015906.1862998,176
1766015906.1873212,176
1766015906.18831,171
1766015906.1893098,169
1766015906.19032,169
1766015906.1913202,170
1766015906.19232,168
1766015906.193323,166
1766015906.19432,165
1766015906.195338,166
1766015906.196327,166
1766015906.1973279,166
1766015906.1983428,171
1766015906.199352,173
1766015906.20034,175
1766015906.201334,180
1766015906.202334,185
1766015906.203367,187
1766015906.2043688,187
1766015906.2053518,185
1766015906.206347,186
1766015906.207374,186
1766015906.2083688,186
1766015906.209366,184
1766015906.2103791,183
1766015906.2113862,183
1766015906.212379,178
1766015906.2133791,178
1766015906.214376,175
1766015906.215401,171
1766015906.216392,172
1766015906.2173812,168
1766015906.218383,167
1766015906.2194118,169
1766015906.220395,167
1766015906.221398,169
1766015906.222398,163
1766015906.223423,164
1766015906.224401,161
1766015906.225407,161
1766015906.2264068,157
1766015906.227421,156
1766015906.2284212,154
1766015906.2294312,153
1766015906.230432,150
1766015906.231426,149
1766015906.23243,149
1766015906.233448,147
1766015906.234435,141
1766015906.235446,145
1766015906.236437,142
1766015906.237437,139
1766015906.238446,137
1766015906.239458,139
1766015906.2404559,136
1766015906.241459,137
1766015906.242461,135
1766015906.243476,136
1766015906.2444701,135
1766015906.245476,133
1766015906.246479,136
1766015906.247473,135
1766015906.248466,138
1766015906.249474,137
1766015906.2504802,135
1766015906.251488,132
1766015906.252476,133
1766015906.2534962,133
1766015906.254536,131
1766015906.255489,130
1766015906.256486,132
1766015906.257498,129
1766015906.258496,129
1766015906.2595031,128
1766015906.2604952,128
1766015906.261524,124
1766015906.2625122,123
1766015906.263517,123
1766015906.264521,123
1766015906.265532,121
1766015906.266536,118
1766015906.267534,120
1766015906.268538,115
1766015906.26954,117
1766015906.270526,115
1766015906.2715352,116
1766015906.272529,115
1766015906.27356,119
1766015906.2745469,123
1766015906.275558,126
1766015906.276541,130
1766015906.27756,133
1766015906.278562,137
1766015906.279574,137
1766015906.280559,143
1766015906.281584,140
1766015906.282565,141
1766015906.283565,142
1766015906.284576,135
1766015906.285573,139
1766015906.286577,134
1766015906.287586,136
1766015906.288596,133
1766015906.2896,133
1766015906.290587,132
1766015906.29159,132
1766015906.292585,129
1766015906.2936141,130
1766015906.294593,129
1766015906.295603,128
1766015906.296604,130
1766015906.2976031,129
1766015906.2986162,128
1766015906.299608,127
1766015906.300595,126
1766015906.3016078,125
1766015906.3026,125
1766015906.3036091,123
1766015906.304584,120
1766015906.3055968,122
1766015906.306601,120
1766015906.307631,121
1766015906.308616,113
1766015906.30962,119
1766015906.310617,114
1766015906.31162,115
1766015906.312626,113
1766015906.313623,112
1766015906.314616,109
1766015906.315639,109
1766015906.316693,109
1766015906.3176398,109
1766015906.318667,109
1766015906.319641,110
1766015906.3206751,105
1766015906.321675,106
1766015906.322693,103
1766015906.3237069,104
1766015906.324689,106
1766015906.3256981,106
1766015906.326684,112
1766015906.3276968,118
1766015906.328716,122
1766015906.329725,122
1766015906.3306901,125
1766015906.331701,123
1766015906.332706,125
1766015906.333706,126
1766015906.3347251,125
1766015906.3357382,126
1766015906.3367271,126
1766015906.337722,122
1766015906.338742,120
1766015906.339725,118
1766015906.340731,119
1766015906.341758,115
1766015906.34274,121
1766015906.343748,117
1766015906.344752,118
1766015906.3457642,115
1766015906.346755,114
1766015906.3477519,115
1766015906.348755,114
1766015906.34977,115
1766015906.350773,112
1766015906.351787,110
1766015906.352764,112
1766015906.353793,111
1766015906.354789,110
1766015906.355805,105
1766015906.3567822,107
1766015906.35779,106
1766015906.3587909,102
1766015906.359801,102
1766015906.360812,103
1766015906.361718,99
1766015906.3628109,103
1766015906.3638241,100
1766015906.364816,102
1766015906.365725,99
1766015906.3668532,100
1766015906.367722,99
1766015906.368735,99
1766015906.369715,95
1766015906.3707352,95
1766015906.3717408,93
1766015906.3727229,94
1766015906.373728,93
1766015906.374735,90
1766015906.375702,94
1766015906.376729,91
1766015906.377751,92
1766015906.3787541,87
1766015906.379742,87
1766015906.3807628,85
1766015906.381762,87
1766015906.3827689,85
1766015906.3837771,85
1766015906.384786,83
1766015906.385789,86
1766015906.386742,85
1766015906.3877802,83
1766015906.3887901,81
1766015906.389788,82
1766015906.39076,78
1766015906.391792,78
1766015906.3927941,78
1766015906.3937988,78
1766015906.394806,78
1766015906.395796,77
1766015906.3968189,73
1766015906.3978162,74
1766015906.3988101,72
1766015906.399819,72
1766015906.400809,74
1766015906.401814,74
1766015906.402835,73
1766015906.40383,73
1766015906.404833,71
1766015906.405846,70
1766015906.4068182,69
1766015906.407836,72
1766015906.4088478,71
1766015906.4098408,68
1766015906.410832,70
1766015906.4118452,70
1766015906.412854,72
1766015906.413864,70
1766015906.414861,74
1766015906.4158669,72
1766015906.416857,75
1766015906.417863,74
1766015906.4188612,73
1766015906.419882,72
1766015906.420865,74
1766015906.4218822,71
1766015906.422863,72
1766015906.4238799,72
1766015906.424893,75
1766015906.425892,73
1766015906.426889,71
1766015906.427899,77
1766015906.4288929,74
1766015906.429892,74
1766015906.430895,75
1766015906.431912,72
1766015906.432937,75
1766015906.433911,74
1766015906.434927,73
1766015906.4359229,69
1766015906.4369411,71
1766015906.437927,73
1766015906.439009,75
1766015906.440015,72
1766015906.4410172,69
1766015906.442013,68
1766015906.44302,73
1766015906.444027,71
1766015906.44501,70
1766015906.446017,71
1766015906.44701,70
1766015906.448012,69
1766015906.449024,69
1766015906.449983,66
1766015906.450988,70
1766015906.451989,68
1766015906.4529889,66
1766015906.454015,68
1766015906.455012,68
1766015906.4560142,69
1766015906.457011,64
1766015906.458006,67
1766015906.459012,65
1766015906.4600132,64
1766015906.461007,64
1766015906.4620118,61
1766015906.463011,66
1766015906.464009,60
1766015906.465017,59
1766015906.466012,64
1766015906.4670131,63
1766015906.468022,62
1766015906.469024,62
1766015906.470017,65
1766015906.4710348,67
1766015906.472033,65
1766015906.473032,68
1766015906.4740322,64
1766015906.475023,66
1766015906.476035,67
1766015906.477026,67
1766015906.4780219,64
1766015906.479051,63
1766015906.480038,64
1766015906.481039,65
1766015906.482044,65
1766015906.483053,64
1766015906.4840581,62
1766015906.485058,65
1766015906.486061,62
1766015906.487068,60
1766015906.488061,57
1766015906.4890828,61
1766015906.490081,63
1766015906.491091,59
1766015906.492078,59
1766015906.493079,62
1766015906.494098,59
1766015906.4950888,58
1766015906.496098,60
1766015906.497101,63
1766015906.498108,59
1766015906.499093,59
1766015906.500111,58
1766015906.501117,57
1766015906.502126,55
1766015906.5031009,59
1766015906.504117,58
1766015906.505122,56
1766015906.5061178,57
1766015906.5071201,57
1766015906.508128,57
1766015906.5091178,56
1766015906.51015,56
1766015906.5111501,55
1766015906.512129,58
1766015906.5131352,51
1766015906.5141602,54
1766015906.515148,53
1766015906.516147,55
1766015906.517162,54
1766015906.518167,55
1766015906.51917,53
1766015906.520171,56
1766015906.5211499,52
1766015906.522181,52
1766015906.5231879,52
1766015906.524172,53
1766015906.525182,52
1766015906.526193,54
1766015906.5271769,49
1766015906.528189,52
1766015906.5291898,53
1766015906.530188,52
1766015906.531199,52
1766015906.532198,53
1766015906.533217,54
1766015906.53422,54
1766015906.5352142,54
1766015906.5362098,56
1766015906.5372212,53
1766015906.538226,53
1766015906.539225,54
1766015906.540231,54
1766015906.541225,54
1766015906.542228,52
1766015906.5432389,55
1766015906.544239,52
1766015906.545238,52
1766015906.546242,52
1766015906.5472362,49
1766015906.548248,56
1766015906.549249,57
1766015906.550244,54
1766015906.551244,57
1766015906.552243,56
1766015906.55326,58
1766015906.554256,55
1766015906.555274,59
1766015906.556276,55
1766015906.557272,55
1766015906.55828,53
1766015906.559287,56
1766015906.5602849,58
1766015906.561295,57
1766015906.562298,53
1766015906.5632918,56
1766015906.564301,54
1766015906.565294,55
1766015906.566299,54
1766015906.5673091,52
1766015906.568301,56
1766015906.569324,51
1766015906.570305,53
1766015906.5713081,53
1766015906.57231,51
1766015906.5733278,48
1766015906.57433,50
1766015906.575326,51
1766015906.576328,51
1766015906.577316,50
1766015906.578321,50
1766015906.579339,47
1766015906.5803251,51
1766015906.581332,49
1766015906.582331,48
1766015906.583352,51
1766015906.5843468,51
1766015906.585352,47
1766015906.586344,49
1766015906.587352,50
1766015906.588355,50
1766015906.589361,51
1766015906.590369,50
1766015906.591371,51
1766015906.5923772,48
1766015906.593378,52
1766015906.5943732,49
1766015906.595382,50
1766015906.5963898,50
1766015906.5973802,49
1766015906.59838,50
1766015906.599382,45
1766015906.600388,48
1766015906.601393,49
1766015906.6024032,53
1766015906.603394,53
1766015906.60439,52
1766015906.605411,57
1766015906.6063979,60
1766015906.607413,60
1766015906.608406,59
1766015906.609421,56
1766015906.6104279,58
1766015906.611425,58
1766015906.6124291,56
1766015906.6134348,58
1766015906.614433,56
1766015906.615424,57
1766015906.6164439,57
1766015906.617428,54
1766015906.61844,56
1766015906.619445,53
1766015906.620456,56
1766015906.621454,54
1766015906.622453,56
1766015906.623455,51
1766015906.624453,52
1766015906.625458,54
1766015906.626454,53
1766015906.627476,53
1766015906.6284711,54
1766015906.629466,50
1766015906.630471,48
1766015906.6314769,51
1766015906.632491,50
1766015906.633481,50
1766015906.634494,51
1766015906.6355,50
1766015906.636483,50
1766015906.637482,51
1766015906.638488,49
1766015906.639495,47
1766015906.640498,49
1766015906.6415029,48
1766015906.642501,46
1766015906.6435142,47
1766015906.64451,46
1766015906.645504,48
1766015906.646516,47
1766015906.6475148,47
1766015906.6485188,46
1766015906.649515,45
1766015906.650511,45
1766015906.651534,46
1766015906.6525261,46
1766015906.653538,46
1766015906.654541,46
1766015906.655545,44
1766015906.656545,44
1766015906.657569,46
1766015906.658539,47
1766015906.659555,46
1766015906.6605492,50
1766015906.661563,47
1766015906.662556,44
1766015906.663571,43
1766015906.664576,47
1766015906.665591,46
1766015906.666582,48
1766015906.6675909,49
1766015906.6686,48
1766015906.6695738,44
1766015906.6706262,46
1766015906.671631,48
1766015906.6725912,44
1766015906.6735702,43
1766015906.674589,45
1766015906.675617,46
1766015906.676592,46
1766015906.67758,48
1766015906.67857,49
1766015906.679583,50
1766015906.6805902,51
1766015906.6815739,48
1766015906.682573,47
1766015906.683594,51
1766015906.684583,49
1766015906.6855848,47
1766015906.6865878,50
1766015906.687596,48
1766015906.688587,47
1766015906.6895869,50
1766015906.6905978,47
1766015906.691604,48
1766015906.692616,49
1766015906.693602,49
1766015906.69462,51
1766015906.6956139,49
1766015906.6966112,46
1766015906.697624,48
1766015906.698636,47
1766015906.6996312,47
1766015906.700617,47
1766015906.701688,45
1766015906.702683,47
1766015906.703628,46
1766015906.704684,43
1766015906.705694,44
1766015906.706673,47
1766015906.70766,46
1766015906.7086642,43
1766015906.709723,45
1766015906.7107022,46
1766015906.7116868,45
1766015906.712687,43
1766015906.713695,45
1766015906.714711,43
1766015906.715721,47
1766015906.7166982,45
1766015906.7177181,44
1766015906.7187111,44
1766015906.719708,43
1766015906.7207098,44
1766015906.72172,43
1766015906.722722,42
1766015906.723726,42
1766015906.724721,40
1766015906.725739,44
1766015906.726741,38
1766015906.7277398,41
1766015906.728742,42
1766015906.729743,42
1766015906.73074,37
1766015906.731745,43
1766015906.732748,42
1766015906.7337558,41
1766015906.7347531,41
1766015906.735756,39
1766015906.736769,41
1766015906.7377548,41
1766015906.738793,44
1766015906.739788,43
1766015906.740771,41
1766015906.741767,43
1766015906.742771,40
1766015906.743791,41
1766015906.7448032,41
1766015906.7457778,45
1766015906.74679,41
1766015906.747793,43
1766015906.748798,41
1766015906.749797,41
1766015906.7508018,40
1766015906.7518022,41
1766015906.7528121,41
1766015906.753812,40
1766015906.7548218,41
1766015906.755818,41
1766015906.7568471,36
1766015906.757896,39
1766015906.7588348,40
1766015906.759836,38
1766015906.760841,41
1766015906.7618408,39
1766015906.762848,39
1766015906.763842,38
1766015906.7648509,43
1766015906.7658439,40
1766015906.766848,42
1766015906.767853,40
1766015906.768862,37
1766015906.7698612,39
1766015906.770895,39
1766015906.771866,38
1766015906.772865,38
1766015906.7738628,38
1766015906.7748768,38
1766015906.7758772,41
1766015906.776893,42
1766015906.7778828,44
1766015906.778892,41
1766015906.779905,42
1766015906.7808871,44
1766015906.7818902,46
1766015906.782902,45
1766015906.783909,42
1766015906.784915,43
1766015906.785911,43
1766015906.786925,45
1766015906.787916,44
1766015906.788924,40
1766015906.78991,43
1766015906.790914,41
1766015906.791917,43
1766015906.793002,44
1766015906.793934,46
1766015906.795022,44
1766015906.7959309,43
1766015906.7970188,48
1766015906.798012,43
1766015906.799011,44
1766015906.800009,46
1766015906.801018,45
1766015906.8020108,43
1766015906.803007,44
1766015906.804001,47
1766015906.805016,45
1766015906.80601,46
1766015906.806981,44
1766015906.807997,43
1766015906.809014,43
1766015906.810014,43
1766015906.811011,44
1766015906.812012,46
1766015906.8130162,45
1766015906.814013,43
1766015906.81501,43
1766015906.8160121,43
1766015906.817023,41
1766015906.818013,45
1766015906.8190138,44
1766015906.8200152,44
1766015906.821023,44
1766015906.822023,43
1766015906.8230278,41
1766015906.824032,42
1766015906.825014,42
1766015906.826018,45
1766015906.827046,40
1766015906.828031,42
1766015906.829049,43
1766015906.8300428,44
1766015906.831043,44
1766015906.832043,43
1766015906.833032,41
1766015906.834077,40
1766015906.835058,43
1766015906.836051,42
1766015906.837075,40
1766015906.8380501,42
1766015906.839057,40
1766015906.840066,45
1766015906.841075,41
1766015906.8420742,43
1766015906.843075,44
1766015906.844074,41
1766015906.845082,41
1766015906.8460832,41
1766015906.847082,43
1766015906.848084,42
1766015906.849105,44
1766015906.85009,45
1766015906.8510988,46
1766015906.852093,47
1766015906.853104,45
1766015906.854114,44
1766015906.855094,44
1766015906.856121,41
1766015906.857118,45
1766015906.8581219,43
1766015906.859123,44
1766015906.8601332,42
1766015906.861115,43
1766015906.862123,45
1766015906.863148,46
1766015906.864146,45
1766015906.865151,46
1766015906.8661299,45
1766015906.867139,47
1766015906.868146,45
1766015906.869161,47
1766015906.870163,46
1766015906.871168,46
1766015906.8721569,42
1766015906.873162,45
1766015906.874157,45
1766015906.875175,46
1766015906.876158,44
1766015906.877197,45
1766015906.878189,47
1766015906.879189,45
1766015906.880194,43
1766015906.8811781,44
1766015906.882186,46
1766015906.883193,46
1766015906.884202,48
1766015906.8852081,47
1766015906.8862028,42
1766015906.887209,42
1766015906.8882089,44
1766015906.889211,41
1766015906.890215,45
1766015906.891205,44
1766015906.892236,42
1766015906.893218,42
1766015906.8942358,43
1766015906.895238,40
1766015906.896214,42
1766015906.897242,40
1766015906.898231,40
1766015906.899246,43
1766015906.900239,41
1766015906.9012532,44
1766015906.902241,42
1766015906.903245,41
1766015906.904246,41
1766015906.9052649,43
1766015906.906262,41
1766015906.907264,37
1766015906.908279,39
1766015906.909281,39
1766015906.910294,41
1766015906.911266,41
1766015906.912286,41
1766015906.913281,44
1766015906.914282,40
1766015906.915286,41
1766015906.916307,37
1766015906.9173162,41
1766015906.918303,39
1766015906.9193048,40
1766015906.920303,43
1766015906.9213,36
1766015906.9223151,41
1766015906.923334,38
1766015906.924314,39
1766015906.92531,42
1766015906.9263191,38
1766015906.92734,43
1766015906.928333,40
1766015906.9293408,42
1766015906.930335,43
1766015906.9313269,43
1766015906.932336,39
1766015906.93336,43
1766015906.9343202,42
1766015906.935335,43
1766015906.936349,43
1766015906.937333,43
1766015906.9383512,42
1766015906.939347,42
1766015906.940352,43
1766015906.941355,40
1766015906.942343,42
1766015906.9433448,39
1766015906.944336,44
1766015906.9453492,39
1766015906.946354,42
1766015906.9473531,40
1766015906.9483461,40
1766015906.949346,41
1766015906.950353,43
1766015906.951367,42
1766015906.952359,44
1766015906.953365,41
1766015906.9543848,41
1766015906.95537,41
1766015906.956359,40
1766015906.957379,40
1766015906.958366,42
1766015906.959371,42
1766015906.960395,41
1766015906.9613729,44
1766015906.96242,39
1766015906.963383,43
1766015906.964402,41
1766015906.965407,41
1766015906.966408,38
1766015906.9674308,43
1766015906.9683971,41
1766015906.969395,39
1766015906.970419,39
1766015906.971426,40
1766015906.972439,41
1766015906.973422,40
1766015906.97446,42
1766015906.975461,38
1766015906.976514,39
1766015906.977437,43
1766015906.9785001,38
1766015906.9794319,40
1766015906.980503,40
1766015906.981499,38
1766015906.982517,40
1766015906.983514,38
