timestamp,emg_value
1766015944.208572,52
1766015944.208585,55
1766015944.208596,52
1766015944.208606,55
1766015944.208616,52
1766015944.208627,51
1766015944.208637,53
1766015944.208648,51
1766015944.20866,51
1766015944.20867,56
1766015944.208682,52
1766015944.208694,53
1766015944.2087061,50
1766015944.208718,50
1766015944.208728,54
1766015944.208738,51
1766015944.208747,50
1766015944.208758,53
1766015944.208768,52
1766015944.208778,55
1766015944.208787,54
1766015944.208797,51
1766015944.208807,50
1766015944.208817,51
1766015944.2088268,49
1766015944.208837,49
1766015944.208846,49
1766015944.208856,47
1766015944.2088661,50
1766015944.208875,50
1766015944.208885,48
1766015944.208894,53
1766015944.2089128,51
1766015944.208926,54
1766015944.208936,50
1766015944.2089448,52
1766015944.2089548,47
1766015944.208965,50
1766015944.2089758,47
1766015944.208985,51
1766015944.208995,51
1766015944.209006,49
1766015944.209016,48
1766015944.209027,49
1766015944.209037,47
1766015944.209047,48
1766015944.209056,48
1766015944.209066,47
1766015944.209076,47
1766015944.209085,46
1766015944.209095,46
1766015944.209105,46
1766015944.209114,45
1766015944.209124,45
1766015944.209135,48
1766015944.209144,45
1766015944.2091541,48
1766015944.209163,44
1766015944.209173,45
1766015944.209183,49
1766015944.209193,49
1766015944.2092018,47
1766015944.2092118,47
1766015944.2092211,48
1766015944.2092319,48
1766015944.2092469,46
1766015944.209263,49
1766015944.209281,47
1766015944.209298,49
1766015944.209313,48
1766015944.209335,48
1766015944.2093499,53
1766015944.209365,51
1766015944.209381,52
1766015944.209396,53
1766015944.2094111,54
1766015944.209426,55
1766015944.209443,54
1766015944.2094588,51
1766015944.2094731,52
1766015944.209488,56
1766015944.209503,52
1766015944.2095182,51
1766015944.209533,52
1766015944.209548,52
1766015944.2095628,51
1766015944.209578,50
1766015944.209593,53
1766015944.2096078,51
1766015944.209623,50
1766015944.2096379,52
1766015944.209653,53
1766015944.2096682,51
1766015944.209683,50
1766015944.209698,52
1766015944.209713,51
1766015944.209728,50
1766015944.209746,53
1766015944.2097611,51
1766015944.2097762,47
1766015944.209791,50
1766015944.2098072,50
1766015944.209822,51
1766015944.209837,47
1766015944.209853,50
1766015944.209868,46
1766015944.209883,47
1766015944.209899,48
1766015944.2099142,47
1766015944.209933,48
1766015944.2099478,48
1766015944.209963,45
1766015944.209978,48
1766015944.209994,48
1766015944.2100081,50
1766015944.210025,46
1766015944.21004,48
1766015944.2100549,46
1766015944.2100701,47
1766015944.2100852,46
1766015944.2101,45
1766015944.210115,46
1766015944.21013,46
1766015944.210145,48
1766015944.21016,47
1766015944.210187,47
1766015944.210203,46
1766015944.21022,41
1766015944.2102349,43
1766015944.2102551,47
1766015944.210271,46
1766015944.210287,44
1766015944.2103019,46
1766015944.2103171,47
1766015944.210338,42
1766015944.210353,45
1766015944.210368,44
1766015944.2103832,42
1766015944.210398,45
1766015944.210413,41
1766015944.210428,44
1766015944.210443,41
1766015944.210458,38
1766015944.210473,42
1766015944.2104871,41
1766015944.2105029,41
1766015944.2105181,40
1766015944.2105331,40
1766015944.210548,43
1766015944.2105632,41
1766015944.210578,39
1766015944.210594,41
1766015944.2106082,41
1766015944.210624,39
1766015944.210639,40
1766015944.210654,38
1766015944.210668,40
1766015944.2106822,37
1766015944.210695,37
1766015944.210708,39
1766015944.210721,40
1766015944.2107341,39
1766015944.2107499,41
1766015944.2107651,38
1766015944.210778,40
1766015944.2107909,38
1766015944.210803,36
1766015944.210824,38
1766015944.21084,38
1766015944.210853,37
1766015944.210866,37
1766015944.210879,35
1766015944.210891,37
1766015944.210907,35
1766015944.2109199,38
1766015944.210933,37
1766015944.210946,39
1766015944.210958,36
1766015944.2109709,39
1766015944.210984,39
1766015944.210997,38
1766015944.21101,38
1766015944.211023,36
1766015944.211036,35
1766015944.2110488,38
1766015944.211061,36
1766015944.211074,38
1766015944.211087,40
1766015944.2110999,38
1766015944.211113,37
1766015944.211125,38
1766015944.211138,38
1766015944.2111511,38
1766015944.211164,40
1766015944.211178,39
1766015944.211194,39
1766015944.2112079,39
1766015944.211221,38
1766015944.211234,40
1766015944.211246,36
1766015944.211259,40
1766015944.211272,41
1766015944.2112849,38
1766015944.211298,37
1766015944.211311,39
1766015944.211328,35
1766015944.211342,40
1766015944.2113569,38
1766015944.211371,36
1766015944.211384,39
1766015944.2113972,40
1766015944.2114098,37
1766015944.211422,36
1766015944.211435,39
1766015944.211448,38
1766015944.211461,36
1766015944.211474,42
1766015944.2114859,40
1766015944.211499,44
1766015944.211512,44
1766015944.2115252,44
1766015944.211537,46
1766015944.21155,44
1766015944.211563,48
1766015944.211576,46
1766015944.211589,49
1766015944.211602,45
1766015944.211618,44
1766015944.211633,46
1766015944.2116458,44
1766015944.211659,48
1766015944.211672,44
1766015944.2116852,42
1766015944.2116978,45
1766015944.211711,44
1766015944.211724,43
1766015944.2117372,42
1766015944.2117498,44
1766015944.211762,41
1766015944.211775,42
1766015944.211788,44
1766015944.211801,43
1766015944.211814,43
1766015944.2118258,42
1766015944.211839,38
1766015944.211852,39
1766015944.211864,42
1766015944.211877,43
1766015944.21189,44
1766015944.2119029,40
1766015944.211916,41
1766015944.211929,39
1766015944.211941,40
1766015944.2119539,40
1766015944.211967,38
1766015944.21198,40
1766015944.211993,42
1766015944.2120059,40
1766015944.212019,40
1766015944.212033,41
1766015944.212049,42
1766015944.212063,42
1766015944.212075,40
1766015944.212088,41
1766015944.2121012,43
1766015944.2121139,41
1766015944.212126,38
1766015944.212139,38
1766015944.212152,39
1766015944.212165,38
1766015944.212178,38
1766015944.2121909,42
1766015944.212203,39
1766015944.2122161,41
1766015944.212229,39
1766015944.212242,38
1766015944.212255,40
1766015944.212267,39
1766015944.21228,37
1766015944.2122931,38
1766015944.212306,38
1766015944.212319,39
1766015944.2123368,40
1766015944.212352,40
1766015944.212366,40
1766015944.212381,37
1766015944.212395,37
1766015944.212409,39
1766015944.212424,37
1766015944.212438,37
1766015944.21245,37
1766015944.2124631,41
1766015944.212478,39
1766015944.212491,36
1766015944.2125041,38
1766015944.212517,36
1766015944.2125351,37
1766015944.212548,36
1766015944.212561,40
1766015944.212574,37
1766015944.212586,37
1766015944.212599,34
1766015944.2126122,36
1766015944.2126248,35
1766015944.212637,36
1766015944.212651,38
1766015944.212663,33
1766015944.212676,37
1766015944.212689,33
1766015944.212702,34
1766015944.212715,35
1766015944.212728,35
1766015944.2127411,31
1766015944.2127528,33
1766015944.2127721,32
1766015944.212786,33
1766015944.2127979,33
1766015944.212811,36
1766015944.212824,34
1766015944.2128372,35
1766015944.2128499,33
1766015944.212862,35
1766015944.212875,31
1766015944.212888,35
1766015944.2129018,36
1766015944.212918,32
1766015944.212932,34
1766015944.212945,32
1766015944.2129579,30
1766015944.212971,32
1766015944.212984,31
1766015944.2129972,32
1766015944.2130098,31
1766015944.213023,31
1766015944.213036,30
1766015944.213048,31
1766015944.2130618,31
1766015944.213075,29
1766015944.213088,30
1766015944.2131,31
1766015944.213113,31
1766015944.213126,30
1766015944.2131488,32
1766015944.2131672,31
1766015944.213183,33
1766015944.213197,33
1766015944.21321,32
1766015944.2132218,30
1766015944.213235,28
1766015944.213248,28
1766015944.21326,29
1766015944.213273,27
1766015944.213286,31
1766015944.213299,28
1766015944.213312,28
1766015944.21333,26
1766015944.213343,27
1766015944.2133608,30
1766015944.213374,30
1766015944.213387,26
1766015944.213399,29
1766015944.213412,26
1766015944.213425,28
1766015944.213438,30
1766015944.21345,27
1766015944.213463,25
1766015944.2134762,28
1766015944.2134888,28
1766015944.213502,28
1766015944.213514,28
1766015944.213527,27
1766015944.21354,29
1766015944.213553,30
1766015944.2135649,26
1766015944.213579,26
1766015944.213591,27
1766015944.2136111,27
1766015944.2136252,28
1766015944.213642,27
1766015944.213658,27
1766015944.2136729,25
1766015944.2136881,25
1766015944.213701,26
1766015944.213714,25
1766015944.213727,25
1766015944.21374,25
1766015944.213753,22
1766015944.2137659,26
1766015944.213778,27
1766015944.213792,27
1766015944.2138062,25
1766015944.213818,23
1766015944.213832,28
1766015944.213844,27
1766015944.213857,25
1766015944.21387,27
1766015944.213883,27
1766015944.2138948,24
1766015944.213908,23
1766015944.213921,22
1766015944.2139342,25
1766015944.213948,26
1766015944.213961,23
1766015944.213973,25
1766015944.2139862,25
1766015944.213999,26
1766015944.214012,23
1766015944.214025,25
1766015944.214037,24
1766015944.21405,27
1766015944.2140632,26
1766015944.2140749,23
1766015944.214088,25
1766015944.214101,28
1766015944.214114,22
1766015944.214126,23
1766015944.214139,23
1766015944.2141519,24
1766015944.214165,27
1766015944.2141771,26
1766015944.21419,24
1766015944.214203,23
1766015944.214217,26
1766015944.21423,27
1766015944.2142432,25
1766015944.214256,25
1766015944.214269,26
1766015944.2142808,25
1766015944.214294,23
1766015944.214307,23
1766015944.214319,26
1766015944.214336,25
1766015944.21435,23
1766015944.2143621,22
1766015944.214375,24
1766015944.214388,23
1766015944.214401,23
1766015944.2144132,24
1766015944.214426,22
1766015944.214439,24
1766015944.214453,23
1766015944.2144651,25
1766015944.214478,26
1766015944.214491,24
1766015944.2145028,26
1766015944.214516,26
1766015944.214529,23
1766015944.2145422,22
1766015944.2145548,25
1766015944.214568,23
1766015944.21458,23
1766015944.214593,24
1766015944.214606,25
1766015944.214619,26
1766015944.214633,25
1766015944.2146502,23
1766015944.214663,24
1766015944.214677,21
1766015944.21469,24
1766015944.2147021,23
1766015944.2147148,26
1766015944.2147279,23
1766015944.214741,24
1766015944.214754,22
1766015944.2147672,23
1766015944.214779,26
1766015944.214792,26
1766015944.214804,24
1766015944.214817,23
1766015944.2148302,21
1766015944.2148428,25
1766015944.214856,25
1766015944.21487,24
1766015944.2148821,24
1766015944.214895,26
1766015944.214908,24
1766015944.214921,24
1766015944.214934,25
1766015944.2149482,24
1766015944.214963,25
1766015944.214978,22
1766015944.2149918,26
1766015944.215005,22
1766015944.215018,24
1766015944.2150311,21
1766015944.2150452,21
1766015944.2150578,26
1766015944.215075,22
1766015944.2150881,24
1766015944.215101,19
1766015944.215115,24
1766015944.2151291,23
1766015944.2151418,22
1766015944.215154,22
1766015944.215167,23
1766015944.215181,24
1766015944.215195,24
1766015944.215208,24
1766015944.215221,23
1766015944.215234,26
1766015944.2152472,21
1766015944.2152598,23
1766015944.215273,23
1766015944.215286,22
1766015944.2152991,23
1766015944.215311,25
1766015944.215324,24
1766015944.215343,20
1766015944.215383,25
1766015944.21542,22
1766015944.215434,22
1766015944.2154481,24
1766015944.215462,24
1766015944.2154748,23
1766015944.215489,22
1766015944.215502,22
1766015944.215515,25
1766015944.215529,26
1766015944.215542,22
1766015944.2155561,24
1766015944.215575,22
1766015944.215591,22
1766015944.215606,25
1766015944.215619,22
1766015944.215632,24
1766015944.215647,24
1766015944.21566,24
1766015944.215673,21
1766015944.2156858,20
1766015944.215699,25
1766015944.215714,26
1766015944.215727,21
1766015944.21574,22
1766015944.215753,23
1766015944.215766,24
1766015944.215779,24
1766015944.2157922,24
1766015944.2158048,23
1766015944.215818,23
1766015944.215831,26
1766015944.2158442,22
1766015944.215856,23
1766015944.215869,22
1766015944.215882,25
1766015944.215895,23
1766015944.215909,22
1766015944.2159219,22
1766015944.215934,24
1766015944.215948,23
1766015944.2159622,21
1766015944.215976,24
1766015944.215991,23
1766015944.216008,24
1766015944.2160242,23
1766015944.216037,21
1766015944.21605,22
1766015944.216062,23
1766015944.216075,20
1766015944.216089,23
1766015944.216102,21
1766015944.2161138,24
1766015944.216127,19
1766015944.216141,25
1766015944.2161531,23
1766015944.2161658,23
1766015944.216179,24
1766015944.216193,25
1766015944.216206,25
1766015944.216218,21
1766015944.2162309,25
1766015944.216244,23
1766015944.216257,24
1766015944.21627,27
1766015944.2162828,25
1766015944.216296,22
1766015944.216309,24
1766015944.216322,26
1766015944.216335,21
1766015944.216355,25
1766015944.2163682,25
1766015944.216382,25
1766015944.216398,22
1766015944.2164109,26
1766015944.216426,23
1766015944.216439,23
1766015944.216456,23
1766015944.2164721,23
1766015944.216486,25
1766015944.2164989,24
1766015944.216512,25
1766015944.216525,24
1766015944.216539,24
1766015944.216553,22
1766015944.2165718,23
1766015944.216585,22
1766015944.216598,26
1766015944.2166111,26
1766015944.216624,24
1766015944.216637,29
1766015944.21665,24
1766015944.2166631,23
1766015944.216676,26
1766015944.2166898,28
1766015944.216703,29
1766015944.216716,30
1766015944.2167292,25
1766015944.2167418,26
1766015944.216755,30
1766015944.216768,28
1766015944.2167811,26
1766015944.216794,29
1766015944.216807,28
1766015944.21682,27
1766015944.216833,26
1766015944.216846,28
1766015944.2168589,28
1766015944.216872,30
1766015944.216887,26
1766015944.216901,28
1766015944.216914,28
1766015944.2169259,29
1766015944.216939,31
1766015944.216953,32
1766015944.216966,31
1766015944.216979,30
1766015944.216992,32
1766015944.217005,30
1766015944.2170181,30
1766015944.217031,35
1766015944.2170439,32
1766015944.217057,32
1766015944.21707,33
1766015944.217083,32
1766015944.217095,34
1766015944.217108,32
1766015944.2171211,31
1766015944.217134,33
1766015944.2171469,32
1766015944.21716,31
1766015944.217173,32
1766015944.217185,34
1766015944.2171981,32
1766015944.2172108,32
1766015944.217224,32
1766015944.217237,31
1766015944.21725,29
1766015944.2172642,30
1766015944.2172768,31
1766015944.21729,31
1766015944.217302,30
1766015944.217317,30
1766015944.21733,30
1766015944.217343,32
1766015944.217361,32
1766015944.217375,31
1766015944.217388,29
1766015944.217401,33
1766015944.2174132,31
1766015944.2174258,32
1766015944.217439,32
1766015944.217452,33
1766015944.217464,32
1766015944.217477,33
1766015944.21749,32
1766015944.217503,31
1766015944.217516,31
1766015944.21753,30
1766015944.217543,29
1766015944.217556,33
1766015944.217569,34
1766015944.217582,34
1766015944.2175949,32
1766015944.217608,32
1766015944.217623,34
1766015944.2176352,34
1766015944.217648,33
1766015944.217661,32
1766015944.217674,33
1766015944.2176871,32
1766015944.217699,36
1766015944.2177122,33
1766015944.217725,37
1766015944.217739,36
1766015944.217752,32
1766015944.217765,37
1766015944.217779,33
1766015944.217791,37
1766015944.2178051,34
1766015944.217817,35
1766015944.217831,35
1766015944.217844,35
1766015944.2178571,32
1766015944.217869,34
1766015944.2178829,37
1766015944.217896,35
1766015944.217908,35
1766015944.217921,34
1766015944.2179341,34
1766015944.2179468,37
1766015944.21796,37
1766015944.217972,37
1766015944.217985,37
1766015944.217998,40
1766015944.218011,43
1766015944.218024,39
1766015944.218037,40
1766015944.218049,39
1766015944.2180622,41
1766015944.2180748,40
1766015944.218088,40
1766015944.218101,40
1766015944.218115,41
1766015944.218127,39
1766015944.21814,42
1766015944.218153,38
1766015944.218168,42
1766015944.2181802,42
1766015944.218194,41
1766015944.218207,41
1766015944.218219,40
1766015944.2182322,39
1766015944.218245,39
1766015944.218258,42
1766015944.218271,42
1766015944.2182899,39
1766015944.218303,41
1766015944.218316,47
1766015944.2183292,45
1766015944.2183418,43
1766015944.21836,46
1766015944.2183738,45
1766015944.218387,44
1766015944.218399,46
1766015944.218413,46
1766015944.2184262,44
1766015944.218443,46
1766015944.218456,45
1766015944.2184691,45
1766015944.218482,45
1766015944.218495,43
1766015944.218508,43
1766015944.2185311,40
1766015944.218545,45
1766015944.2185578,41
1766015944.218571,45
1766015944.218584,42
1766015944.2185972,46
1766015944.218612,42
1766015944.218626,42
1766015944.2186382,41
1766015944.21865,44
1766015944.218661,45
1766015944.218672,42
1766015944.2186828,42
1766015944.218694,40
1766015944.218705,41
1766015944.218716,42
1766015944.2187278,46
1766015944.218739,42
1766015944.21875,44
1766015944.218761,41
1766015944.218773,41
1766015944.218784,44
1766015944.218795,43
1766015944.218806,43
1766015944.218818,48
1766015944.2188292,45
1766015944.2188401,46
1766015944.218851,44
1766015944.218863,46
1766015944.2188742,47
1766015944.2188852,45
1766015944.218896,49
1766015944.2189078,46
1766015944.218921,45
1766015944.218934,47
1766015944.218945,46
1766015944.218956,45
1766015944.218967,45
1766015944.2189791,47
1766015944.218994,47
1766015944.219007,49
1766015944.219018,46
1766015944.219029,45
1766015944.21904,47
1766015944.2190511,45
1766015944.219062,49
1766015944.219074,46
1766015944.219085,47
1766015944.219096,46
1766015944.2191072,47
1766015944.219118,42
1766015944.219129,43
1766015944.219141,46
1766015944.219154,45
1766015944.219167,44
1766015944.219178,48
1766015944.219189,47
1766015944.2192,44
1766015944.219211,46
1766015944.219223,43
1766015944.219234,44
1766015944.219245,44
1766015944.2192562,45
1766015944.2192671,45
1766015944.219278,42
1766015944.21929,45
1766015944.2193012,42
1766015944.2193122,45
1766015944.219323,46
1766015944.219334,43
1766015944.2193458,43
1766015944.2193651,43
1766015944.2193768,44
1766015944.219388,41
1766015944.219399,46
1766015944.219411,44
1766015944.2194219,43
1766015944.219433,41
1766015944.219444,45
1766015944.219455,43
1766015944.219467,43
1766015944.2194781,41
1766015944.219489,43
1766015944.2195,39
1766015944.219512,40
1766015944.219523,42
1766015944.2195342,41
1766015944.2195451,40
1766015944.219557,41
1766015944.219568,40
1766015944.219579,40
1766015944.21959,41
1766015944.219601,42
1766015944.219615,43
1766015944.219626,40
1766015944.219637,45
1766015944.219648,42
1766015944.219659,45
1766015944.219671,46
1766015944.219682,46
1766015944.219693,44
1766015944.2197042,41
1766015944.219715,42
1766015944.2197278,45
1766015944.219742,44
1766015944.219755,42
1766015944.219766,41
1766015944.219777,43
1766015944.219788,44
1766015944.219799,45
1766015944.21981,47
1766015944.2198222,42
1766015944.2198331,43
1766015944.219844,44
1766015944.219855,45
1766015944.219866,43
1766015944.219877,44
1766015944.219889,43
1766015944.2199,46
1766015944.2199109,45
1766015944.219923,42
1766015944.219934,42
1766015944.219946,41
1766015944.2199569,44
1766015944.219968,41
1766015944.219979,41
1766015944.219991,44
1766015944.220002,43
1766015944.2200131,44
1766015944.220024,45
1766015944.220036,45
1766015944.220047,43
1766015944.2200582,42
1766015944.2200692,43
1766015944.2200809,43
1766015944.2200918,41
1766015944.220106,44
1766015944.22012,42
1766015944.2201312,40
1766015944.220143,42
1766015944.220154,42
1766015944.220165,43
1766015944.220176,41
1766015944.220187,42
1766015944.220198,44
1766015944.220209,43
1766015944.2202199,42
1766015944.220232,44
1766015944.220243,43
1766015944.220254,43
1766015944.220269,43
1766015944.2202802,43
1766015944.2202911,43
1766015944.220302,42
1766015944.220314,42
1766015944.220326,39
1766015944.220339,40
1766015944.220352,41
1766015944.220364,42
1766015944.2203772,40
1766015944.2203891,44
1766015944.2204,39
1766015944.2204108,42
1766015944.2204218,42
1766015944.220433,41
1766015944.220444,38
1766015944.220456,40
1766015944.2204669,42
1766015944.220479,40
1766015944.220499,42
1766015944.220511,41
1766015944.220524,37
1766015944.2205372,42
1766015944.2205482,41
1766015944.2205591,42
1766015944.22057,38
1766015944.220581,39
1766015944.220593,41
1766015944.220604,42
1766015944.220615,41
1766015944.2206259,39
1766015944.2206368,39
1766015944.220648,43
1766015944.220659,41
1766015944.22067,41
1766015944.220681,42
1766015944.220692,40
1766015944.220703,43
1766015944.220719,40
1766015944.2207308,42
1766015944.220742,41
1766015944.220753,44
1766015944.220764,42
1766015944.220775,39
1766015944.2207859,41
1766015944.2207968,41
1766015944.220808,40
1766015944.220819,39
1766015944.22083,43
1766015944.220841,43
1766015944.220852,42
1766015944.220866,38
1766015944.2208798,37
1766015944.220891,40
1766015944.220902,40
1766015944.220913,39
1766015944.220924,38
1766015944.2209349,40
1766015944.2209458,41
1766015944.220958,39
1766015944.220969,40
1766015944.22098,40
1766015944.220991,40
1766015944.221003,42
1766015944.221014,39
1766015944.221025,40
1766015944.221045,42
1766015944.221056,41
1766015944.221073,40
1766015944.221087,39
1766015944.221099,38
1766015944.22111,39
1766015944.221121,40
1766015944.221132,37
1766015944.221143,38
1766015944.221154,40
1766015944.221165,39
1766015944.221177,37
1766015944.221188,40
1766015944.221199,41
1766015944.221211,38
1766015944.221222,39
1766015944.22125,39
1766015944.221262,40
1766015944.2212741,40
1766015944.221285,39
1766015944.221296,38
1766015944.2213068,39
1766015944.221318,39
1766015944.221329,35
1766015944.22134,39
1766015944.221356,37
1766015944.2213671,37
1766015944.221378,38
1766015944.22139,34
1766015944.221401,38
1766015944.2214122,38
1766015944.2214231,39
1766015944.221434,39
1766015944.221445,37
1766015944.2214558,38
1766015944.2214668,36
1766015944.221479,39
1766015944.22149,40
1766015944.2215009,36
1766015944.2215118,36
1766015944.221523,35
1766015944.221534,36
1766015944.221545,33
1766015944.221556,34
1766015944.221567,35
1766015944.221578,37
1766015944.22159,34
1766015944.221601,34
1766015944.221612,32
1766015944.221623,35
1766015944.221637,36
1766015944.221657,32
1766015944.2216692,36
1766015944.221727,34
1766015944.2217422,36
1766015944.221754,34
1766015944.221765,35
1766015944.221777,33
1766015944.221789,35
1766015944.2217999,36
1766015944.221811,36
1766015944.221823,31
1766015944.221834,35
1766015944.221846,36
1766015944.221857,31
1766015944.221869,35
1766015944.22188,34
1766015944.221892,31
1766015944.221903,32
1766015944.2219148,32
1766015944.221926,34
1766015944.221937,31
1766015944.2219489,30
1766015944.2219598,31
1766015944.221972,33
1766015944.221983,33
1766015944.221994,32
1766015944.222006,33
1766015944.222018,33
1766015944.222029,35
1766015944.2220402,30
1766015944.222052,31
1766015944.2220669,30
1766015944.222079,30
1766015944.222091,31
1766015944.222102,32
1766015944.2221131,31
1766015944.222125,31
1766015944.222136,32
1766015944.222147,29
1766015944.2221591,28
1766015944.22217,31
1766015944.2221818,28
1766015944.222193,30
1766015944.222205,31
1766015944.222216,29
1766015944.2222269,28
1766015944.222239,28
1766015944.222251,31
1766015944.222262,27
1766015944.222273,30
1766015944.222285,33
1766015944.222296,31
1766015944.222307,27
1766015944.2223182,30
1766015944.22233,27
1766015944.222341,27
1766015944.222353,29
1766015944.222369,29
1766015944.222381,28
1766015944.222392,28
1766015944.222404,30
1766015944.222416,28
1766015944.2224278,29
1766015944.2224388,28
1766015944.222454,29
1766015944.2224681,29
1766015944.2224798,27
1766015944.222492,30
1766015944.222503,28
1766015944.222514,29
1766015944.222527,25
1766015944.222537,30
1766015944.222547,26
1766015944.2225568,26
1766015944.2225668,29
1766015944.2225769,30
1766015944.2225878,27
1766015944.2226,26
1766015944.222611,28
1766015944.222621,27
1766015944.222631,27
1766015944.222641,29
1766015944.2226508,25
1766015944.222661,26
1766015944.222671,27
1766015944.222681,28
1766015944.222691,30
1766015944.222701,26
1766015944.222711,27
1766015944.222721,26
1766015944.222731,23
1766015944.222741,26
1766015944.222751,28
1766015944.222763,27
1766015944.222774,25
1766015944.222784,27
1766015944.222796,27
1766015944.222806,26
1766015944.222816,27
1766015944.222826,26
1766015944.222836,25
1766015944.222846,26
1766015944.222856,25
1766015944.2228658,27
1766015944.2228758,24
1766015944.2228858,25
1766015944.222896,27
1766015944.222906,27
1766015944.2229161,24
1766015944.2229261,26
1766015944.222938,26
1766015944.222948,25
1766015944.222958,26
1766015944.222968,25
1766015944.222979,24
1766015944.222989,26
1766015944.222999,27
1766015944.223009,24
1766015944.223021,24
1766015944.223031,25
1766015944.223041,24
1766015944.223051,24
1766015944.223061,25
1766015944.2230709,23
1766015944.2230809,23
1766015944.223091,25
1766015944.223103,23
1766015944.223113,25
1766015944.2231228,24
1766015944.223136,26
1766015944.223146,24
1766015944.223156,24
1766015944.223166,24
1766015944.223176,23
1766015944.2231889,24
1766015944.223199,22
1766015944.223209,24
1766015944.223219,25
1766015944.22323,26
1766015944.22324,25
1766015944.22325,25
1766015944.22326,24
1766015944.22327,23
1766015944.2232802,23
1766015944.2232902,23
1766015944.2233,25
1766015944.22331,23
1766015944.22332,24
1766015944.22333,23
1766015944.22334,21
1766015944.223352,23
1766015944.223367,27
1766015944.223377,26
1766015944.223388,22
1766015944.223398,23
1766015944.223407,23
1766015944.223417,24
1766015944.223427,22
1766015944.2234392,22
1766015944.223449,23
1766015944.223459,25
1766015944.22347,24
1766015944.2234828,22
1766015944.223495,26
1766015944.2235048,25
1766015944.2235148,23
1766015944.223527,21
1766015944.223537,23
1766015944.223547,23
1766015944.2235572,22
1766015944.223567,24
1766015944.223577,23
1766015944.223587,23
1766015944.223597,26
1766015944.223608,22
1766015944.223618,22
1766015944.223628,23
1766015944.223639,24
1766015944.223649,24
1766015944.223659,23
1766015944.223669,21
1766015944.223679,22
1766015944.2236888,24
1766015944.2236989,19
1766015944.2237089,23
1766015944.223719,21
1766015944.223729,22
1766015944.223739,22
1766015944.2237492,26
1766015944.2237592,24
1766015944.2237692,23
1766015944.223779,23
1766015944.223789,21
1766015944.223799,22
1766015944.223812,23
1766015944.2238238,20
1766015944.223835,24
1766015944.223845,23
1766015944.223855,22
1766015944.223865,22
1766015944.223875,22
1766015944.223885,21
1766015944.223895,25
1766015944.223905,21
1766015944.223915,21
1766015944.2239249,23
1766015944.223936,25
1766015944.223946,21
1766015944.2239559,25
1766015944.223966,24
1766015944.223976,25
1766015944.223986,23
1766015944.223996,19
1766015944.224006,20
1766015944.224016,22
1766015944.2240262,24
1766015944.224036,21
1766015944.224046,22
1766015944.224056,21
1766015944.224066,25
1766015944.224076,25
1766015944.224086,23
1766015944.224096,21
1766015944.224106,25
1766015944.224116,22
1766015944.2241259,24
1766015944.2241359,24
1766015944.224146,23
1766015944.224156,22
1766015944.224166,21
1766015944.224177,22
1766015944.224187,21
1766015944.2241971,19
1766015944.2242072,22
1766015944.2242172,22
1766015944.2242272,22
1766015944.224237,22
1766015944.2242482,23
1766015944.224258,23
1766015944.224268,25
1766015944.224278,20
1766015944.224288,23
1766015944.224298,20
1766015944.224308,25
1766015944.224318,23
1766015944.224328,24
1766015944.2243378,24
1766015944.2243478,23
1766015944.2243578,24
1766015944.224373,21
1766015944.224384,24
1766015944.224396,20
1766015944.224406,22
1766015944.224416,21
1766015944.224426,23
1766015944.224437,20
1766015944.224447,23
1766015944.224457,20
1766015944.224504,23
1766015944.2245681,22
1766015944.224583,21
1766015944.224596,23
1766015944.2246091,23
1766015944.224621,21
1766015944.2246342,22
1766015944.2246468,23
1766015944.224659,24
1766015944.224672,23
1766015944.224685,23
1766015944.224698,21
1766015944.224711,22
1766015944.2247229,21
1766015944.2247381,22
1766015944.22475,25
1766015944.224763,19
1766015944.2247748,21
1766015944.224788,22
1766015944.224801,19
1766015944.224813,21
1766015944.224826,21
1766015944.224839,21
1766015944.224851,23
1766015944.224864,23
1766015944.224877,24
1766015944.224889,21
1766015944.224902,20
1766015944.224915,22
1766015944.224927,22
1766015944.22494,21
1766015944.2249532,20
1766015944.2249658,23
1766015944.224978,23
1766015944.224991,23
1766015944.225003,23
1766015944.225016,22
1766015944.2250292,22
1766015944.225041,24
1766015944.225054,21
1766015944.225067,23
1766015944.225079,20
1766015944.2250922,20
1766015944.2251039,19
1766015944.225117,22
1766015944.22513,20
1766015944.225143,21
1766015944.225156,22
1766015944.225169,19
1766015944.225182,19
1766015944.225194,21
1766015944.225207,22
1766015944.2252202,18
1766015944.2252328,24
1766015944.225245,19
1766015944.2252579,22
1766015944.225271,20
1766015944.2252831,22
1766015944.2252958,24
1766015944.225308,23
1766015944.225321,23
1766015944.225334,22
1766015944.225346,22
1766015944.2253592,20
1766015944.2253718,19
1766015944.225384,22
1766015944.225397,21
1766015944.22541,24
1766015944.225423,21
1766015944.225436,22
1766015944.225448,22
1766015944.225461,22
1766015944.225474,20
1766015944.225487,21
1766015944.225499,24
1766015944.225512,24
1766015944.225524,22
1766015944.225537,22
1766015944.225549,22
1766015944.225562,21
1766015944.225575,18
1766015944.225587,21
1766015944.2256,22
1766015944.225613,23
1766015944.225625,24
1766015944.225638,23
1766015944.225651,22
1766015944.225663,25
1766015944.225676,22
1766015944.225688,23
1766015944.225701,21
1766015944.225714,22
1766015944.225726,22
1766015944.225739,25
1766015944.225752,22
1766015944.2257652,22
1766015944.225777,23
1766015944.22579,18
1766015944.225803,23
1766015944.225816,22
1766015944.2258282,20
1766015944.2258408,24
1766015944.225853,21
1766015944.225866,22
1766015944.225879,25
1766015944.225891,24
1766015944.2259042,23
1766015944.225916,20
1766015944.225929,22
1766015944.2259421,25
1766015944.225954,22
1766015944.2259672,24
1766015944.2259798,21
1766015944.225992,22
1766015944.226005,19
1766015944.226018,21
1766015944.22603,23
1766015944.226043,23
1766015944.2260559,23
1766015944.226068,21
1766015944.2260811,23
1766015944.226093,23
1766015944.2261062,22
1766015944.2261188,22
1766015944.226131,22
1766015944.226144,23
1766015944.226157,21
1766015944.22617,25
1766015944.226182,21
1766015944.2261949,23
1766015944.226208,25
1766015944.226221,21
1766015944.226233,24
1766015944.2262459,22
1766015944.226259,22
1766015944.226271,21
1766015944.226283,22
1766015944.226296,21
1766015944.226309,20
1766015944.226343,21
1766015944.226356,22
1766015944.226368,20
1766015944.226381,24
1766015944.226393,20
1766015944.2264059,21
1766015944.226419,21
1766015944.226432,24
1766015944.226444,24
1766015944.226457,25
1766015944.22647,20
1766015944.226482,23
1766015944.2264938,21
1766015944.226507,23
1766015944.226519,22
1766015944.226532,23
1766015944.2265441,22
1766015944.226557,22
1766015944.226569,25
1766015944.226582,20
1766015944.226594,22
1766015944.226607,21
1766015944.2266188,24
1766015944.2266319,24
1766015944.226644,23
1766015944.226657,22
1766015944.22667,20
1766015944.2266822,21
1766015944.2266948,25
1766015944.226707,24
1766015944.22672,22
1766015944.226732,24
1766015944.2267451,24
1766015944.226757,22
1766015944.22677,21
1766015944.226783,23
1766015944.226795,20
1766015944.227464,23
1766015944.228457,23
1766015944.229465,22
1766015944.230438,21
1766015944.231526,22
1766015944.232461,17
1766015944.233452,24
1766015944.234509,23
1766015944.235481,21
1766015944.23648,22
1766015944.237494,22
1766015944.238493,24
1766015944.2395031,20
1766015944.240501,21
1766015944.241529,22
1766015944.242522,21
1766015944.243501,24
1766015944.244489,24
1766015944.245503,19
1766015944.2465248,22
1766015944.24753,22
1766015944.248508,21
1766015944.249558,21
1766015944.2505221,21
1766015944.251523,20
1766015944.2525141,18
1766015944.2535229,22
1766015944.254532,20
1766015944.255529,24
1766015944.256535,23
1766015944.257497,23
1766015944.2585442,24
1766015944.259496,23
1766015944.2605639,21
1766015944.26156,23
1766015944.262618,24
1766015944.263594,21
1766015944.264574,21
1766015944.265515,22
1766015944.266526,21
1766015944.267529,22
1766015944.26859,23
1766015944.269585,20
1766015944.270595,24
1766015944.2715971,22
1766015944.2725298,25
1766015944.273537,25
1766015944.274556,21
1766015944.275597,24
1766015944.276555,20
1766015944.277596,22
1766015944.278612,21
1766015944.279617,22
1766015944.280554,22
1766015944.281597,24
1766015944.2825758,21
1766015944.2836192,23
1766015944.284616,21
1766015944.285621,23
1766015944.286591,24
1766015944.287625,23
1766015944.288615,22
1766015944.2895691,24
1766015944.290613,23
1766015944.291615,24
1766015944.2926562,23
1766015944.293657,27
1766015944.29464,22
1766015944.295679,22
1766015944.296663,20
1766015944.297645,24
1766015944.2986162,24
1766015944.299665,22
1766015944.300656,21
1766015944.301667,21
1766015944.302664,26
1766015944.303662,22
1766015944.304682,23
1766015944.3056881,21
1766015944.306686,20
1766015944.3076632,21
1766015944.3086662,23
1766015944.309673,20
1766015944.310693,23
1766015944.311713,23
1766015944.3126988,24
1766015944.313689,20
1766015944.3147001,20
1766015944.3156962,22
1766015944.316702,24
1766015944.317711,24
1766015944.318723,23
1766015944.3197281,25
1766015944.3207319,29
1766015944.321729,29
1766015944.3227499,26
1766015944.323745,25
1766015944.324736,28
1766015944.325757,27
1766015944.326731,29
1766015944.327741,26
1766015944.328741,26
1766015944.329757,29
1766015944.3307562,30
1766015944.3317661,30
1766015944.332799,29
1766015944.333753,28
1766015944.334777,28
1766015944.335755,28
1766015944.336761,31
1766015944.337771,29
1766015944.338787,31
1766015944.3398001,30
1766015944.340784,26
1766015944.3417768,29
1766015944.342763,30
1766015944.3437781,28
1766015944.344795,27
1766015944.345793,30
1766015944.346827,30
1766015944.347789,27
1766015944.3488169,28
1766015944.3498108,31
1766015944.350773,30
1766015944.351777,27
1766015944.352782,28
1766015944.353793,29
1766015944.3548532,28
1766015944.3558028,28
1766015944.356787,28
1766015944.357802,30
1766015944.358786,28
1766015944.3597949,31
1766015944.3607922,29
1766015944.361852,34
1766015944.362868,33
1766015944.363858,36
1766015944.364852,34
1766015944.365878,38
1766015944.366945,34
1766015944.367939,38
1766015944.3688471,34
1766015944.3699331,40
1766015944.3709319,39
1766015944.371949,40
1766015944.372938,44
1766015944.373941,46
1766015944.374942,48
1766015944.3759491,48
1766015944.376946,48
1766015944.377944,48
1766015944.378953,50
1766015944.379972,50
1766015944.3809621,49
1766015944.381929,51
1766015944.382955,50
1766015944.3839219,51
1766015944.384914,52
1766015944.385924,58
1766015944.3869069,61
1766015944.3879218,66
1766015944.388916,73
1766015944.389898,80
1766015944.3909109,85
1766015944.391904,86
1766015944.392898,85
1766015944.3938959,84
1766015944.394899,89
1766015944.395902,89
1766015944.39692,90
1766015944.397929,91
1766015944.398944,90
1766015944.3999171,93
1766015944.400928,92
1766015944.401929,89
1766015944.402949,91
1766015944.4039419,92
1766015944.404953,90
1766015944.405935,90
1766015944.406946,88
1766015944.407934,89
1766015944.408941,90
1766015944.40994,92
1766015944.4109561,91
1766015944.411963,92
1766015944.413003,92
1766015944.413984,97
1766015944.4149818,95
1766015944.416,95
1766015944.416973,92
1766015944.417964,92
1766015944.4189792,95
1766015944.419979,95
1766015944.420966,91
1766015944.4219751,92
1766015944.422986,90
1766015944.4239612,91
1766015944.424978,87
1766015944.425983,89
1766015944.426998,87
1766015944.427992,88
1766015944.42899,84
1766015944.430003,86
1766015944.4310122,82
1766015944.431989,83
1766015944.432995,83
1766015944.4339972,83
1766015944.435019,81
1766015944.436007,81
1766015944.437005,83
1766015944.438022,82
1766015944.439018,80
1766015944.440021,77
1766015944.441008,77
1766015944.442019,77
1766015944.4430232,76
1766015944.444032,74
1766015944.4450161,75
1766015944.446053,75
1766015944.447055,73
1766015944.4480362,74
1766015944.449038,73
1766015944.450034,74
1766015944.451102,77
1766015944.4521039,78
1766015944.453079,76
1766015944.4540899,78
1766015944.4551191,76
1766015944.456091,77
1766015944.457095,75
1766015944.458126,77
1766015944.4591181,77
1766015944.4601128,73
1766015944.461115,76
1766015944.4621189,77
1766015944.46315,71
1766015944.464103,73
1766015944.4651158,74
1766015944.4661162,72
1766015944.4671118,74
1766015944.4681149,72
1766015944.469117,72
1766015944.4701009,74
1766015944.471149,74
1766015944.472128,72
1766015944.473129,73
1766015944.474116,71
1766015944.475154,71
1766015944.476127,72
1766015944.477152,71
1766015944.478139,76
1766015944.479136,72
1766015944.480153,72
1766015944.481173,80
1766015944.482197,87
1766015944.48319,89
1766015944.484184,88
1766015944.4851599,86
1766015944.486167,89
1766015944.487224,87
1766015944.488252,93
1766015944.489182,91
1766015944.490182,90
1766015944.491179,89
1766015944.492168,93
1766015944.4931998,88
1766015944.494179,90
1766015944.4951959,90
1766015944.49617,85
1766015944.497199,86
1766015944.498179,85
1766015944.499187,86
1766015944.500204,84
1766015944.501218,84
1766015944.502205,83
1766015944.5032341,82
1766015944.504229,83
1766015944.505208,83
1766015944.5062232,81
1766015944.50723,82
1766015944.508244,82
1766015944.5092218,79
1766015944.510205,80
1766015944.511225,77
1766015944.5122318,78
1766015944.513226,75
1766015944.514215,77
1766015944.515289,74
1766015944.516237,75
1766015944.517241,74
1766015944.518244,74
1766015944.5192478,75
1766015944.520253,75
1766015944.521259,72
1766015944.5222578,72
1766015944.5232651,76
1766015944.524269,74
1766015944.525263,73
1766015944.526269,72
1766015944.527338,72
1766015944.5287628,75
1766015944.5293188,74
1766015944.530303,72
1766015944.531292,73
1766015944.532287,72
1766015944.53331,67
1766015944.534292,71
1766015944.53531,69
1766015944.536296,65
1766015944.5372958,67
1766015944.538302,67
1766015944.5393028,68
1766015944.5403252,65
1766015944.541316,70
1766015944.542337,70
1766015944.543325,71
1766015944.544352,74
1766015944.545321,71
1766015944.5463328,71
1766015944.5473359,71
1766015944.548337,73
1766015944.5493271,70
1766015944.550345,69
1766015944.551348,69
1766015944.552344,69
1766015944.5533388,68
1766015944.554353,66
1766015944.555392,67
1766015944.5564091,66
1766015944.557426,66
1766015944.558383,63
1766015944.559425,66
1766015944.560441,64
1766015944.5614169,65
1766015944.562419,63
1766015944.563408,63
1766015944.564391,62
1766015944.5653918,61
1766015944.5663738,61
1766015944.5674298,64
1766015944.568384,59
1766015944.569407,59
1766015944.5704021,61
1766015944.571446,58
1766015944.572433,60
1766015944.573396,61
1766015944.5743968,57
1766015944.575407,60
1766015944.576402,59
1766015944.577419,60
1766015944.5784152,60
1766015944.579432,55
1766015944.580415,58
1766015944.581426,56
1766015944.582417,58
1766015944.583423,60
1766015944.58444,62
1766015944.585446,63
1766015944.5864599,64
1766015944.587472,63
1766015944.588444,63
1766015944.5894458,64
1766015944.590454,62
1766015944.5914571,62
1766015944.59246,61
1766015944.593455,62
1766015944.59446,61
1766015944.595469,63
1766015944.596451,62
1766015944.597528,62
1766015944.5984588,60
1766015944.5994828,65
1766015944.600485,62
1766015944.601473,64
1766015944.602475,67
1766015944.6034958,67
1766015944.604502,69
1766015944.605546,67
1766015944.6065102,68
1766015944.607508,65
1766015944.608491,66
1766015944.609514,67
1766015944.610503,66
1766015944.6115031,67
1766015944.612513,65
1766015944.613513,66
1766015944.614516,64
1766015944.615541,61
1766015944.616517,61
1766015944.617525,62
1766015944.618519,65
1766015944.619515,62
1766015944.6205308,62
1766015944.621537,62
1766015944.622533,60
1766015944.623528,61
1766015944.624552,62
1766015944.6255538,60
1766015944.626605,61
1766015944.62755,61
1766015944.628545,62
1766015944.629573,61
1766015944.630568,60
1766015944.6315598,59
1766015944.632573,57
1766015944.63358,57
1766015944.634561,58
1766015944.6355782,56
1766015944.636596,58
1766015944.637575,60
1766015944.63858,61
1766015944.6395671,61
1766015944.640564,59
1766015944.641577,59
1766015944.64257,60
1766015944.64359,59
1766015944.644604,59
1766015944.645608,59
1766015944.6465962,56
1766015944.647611,56
1766015944.648603,57
1766015944.6495948,57
1766015944.6505978,58
1766015944.651631,53
1766015944.652618,57
1766015944.653627,53
1766015944.654609,54
1766015944.6556458,50
1766015944.6566138,52
1766015944.6576152,56
1766015944.658632,55
1766015944.6596491,53
1766015944.660649,52
1766015944.661673,56
1766015944.662689,53
1766015944.66365,55
1766015944.6646478,56
1766015944.665654,60
1766015944.666655,62
1766015944.667656,63
1766015944.668664,64
1766015944.669653,62
1766015944.670688,63
1766015944.6716669,66
1766015944.67267,63
1766015944.673672,63
1766015944.674693,67
1766015944.675704,67
1766015944.676693,64
1766015944.677674,66
1766015944.678698,62
1766015944.679685,65
1766015944.6807091,62
1766015944.681698,65
1766015944.682698,64
1766015944.6837702,63
1766015944.68472,61
1766015944.685718,59
1766015944.6866949,60
1766015944.6877172,59
1766015944.688736,58
1766015944.6897228,58
1766015944.6907399,58
1766015944.691746,61
1766015944.692734,60
1766015944.693739,56
1766015944.694767,56
1766015944.695754,57
1766015944.696751,57
1766015944.697748,59
1766015944.698755,57
1766015944.699764,58
1766015944.700744,57
1766015944.701771,56
1766015944.7027571,53
1766015944.7037609,55
1766015944.704778,57
1766015944.705771,56
1766015944.7067788,53
1766015944.7077918,53
1766015944.708766,52
1766015944.709785,54
1766015944.71079,53
1766015944.711793,52
1766015944.712801,52
1766015944.713805,50
1766015944.714794,49
1766015944.71579,52
1766015944.716815,52
1766015944.717807,51
1766015944.7187939,50
1766015944.719817,50
1766015944.7208052,48
1766015944.721813,49
1766015944.7227929,48
1766015944.723809,49
1766015944.7249112,49
1766015944.725909,48
1766015944.726814,47
1766015944.727912,48
1766015944.728906,45
1766015944.7299058,46
1766015944.730905,46
1766015944.731908,47
1766015944.732918,48
1766015944.733906,46
1766015944.73491,47
1766015944.7359412,47
1766015944.7369092,50
1766015944.737921,50
1766015944.738915,50
1766015944.739899,46
1766015944.7408981,49
1766015944.74191,47
1766015944.742908,51
1766015944.7438982,50
1766015944.74491,49
1766015944.745905,50
1766015944.746905,47
1766015944.7478988,47
1766015944.7489011,48
1766015944.7499049,47
1766015944.750907,50
1766015944.751897,47
1766015944.752911,46
1766015944.75391,47
1766015944.7549162,47
1766015944.755935,47
1766015944.7568982,49
1766015944.757926,45
1766015944.758919,47
1766015944.7599201,47
1766015944.7609248,49
1766015944.761935,48
1766015944.7630029,47
1766015944.763916,45
1766015944.764947,47
1766015944.765962,47
1766015944.766952,45
1766015944.7679381,45
1766015944.768935,46
1766015944.7699358,46
1766015944.7709582,48
1766015944.77196,45
1766015944.77299,47
1766015944.773959,47
1766015944.774945,48
1766015944.775956,45
1766015944.7769642,46
1766015944.777975,47
1766015944.778977,43
1766015944.779993,43
1766015944.780979,43
1766015944.781985,44
1766015944.7829912,42
1766015944.783999,42
1766015944.784991,47
1766015944.785992,47
1766015944.786999,45
1766015944.788011,49
1766015944.789008,47
1766015944.7900102,45
1766015944.791009,51
1766015944.792019,48
1766015944.793018,48
1766015944.79409,45
1766015944.7950678,47
1766015944.7960892,49
1766015944.79706,49
1766015944.798054,48
1766015944.7990642,49
1766015944.800045,46
1766015944.80104,46
1766015944.802058,45
1766015944.8030689,44
1766015944.8040462,45
1766015944.805055,46
1766015944.8060281,45
1766015944.8070421,42
1766015944.808055,45
1766015944.8090482,46
1766015944.8100622,45
1766015944.8110561,47
1766015944.812077,47
1766015944.81307,48
1766015944.814098,49
1766015944.8150709,44
1766015944.816073,47
1766015944.8170938,48
1766015944.818112,46
1766015944.819088,45
1766015944.8201091,44
1766015944.821107,47
1766015944.822127,45
1766015944.823101,42
1766015944.824115,46
1766015944.825115,46
1766015944.826114,46
1766015944.827112,44
1766015944.82811,45
1766015944.829098,44
1766015944.830131,42
1766015944.8311172,46
1766015944.832104,45
1766015944.833127,45
1766015944.8341389,45
1766015944.8351538,42
1766015944.836156,44
1766015944.837143,44
1766015944.838136,44
1766015944.839196,44
1766015944.840168,44
1766015944.841179,42
1766015944.8421981,41
1766015944.843169,43
1766015944.8441432,42
1766015944.845154,44
1766015944.846168,45
1766015944.847169,46
1766015944.848185,46
1766015944.849183,45
1766015944.850184,46
1766015944.8512158,49
1766015944.852187,48
1766015944.853164,49
1766015944.854181,48
1766015944.8551831,46
1766015944.856203,46
1766015944.857208,45
1766015944.858208,51
1766015944.859267,48
1766015944.860258,47
1766015944.861232,48
1766015944.862207,48
1766015944.863213,50
1766015944.86423,49
1766015944.865209,50
1766015944.866229,53
1766015944.8672352,55
1766015944.8682392,55
1766015944.869248,52
1766015944.870215,52
1766015944.871236,54
1766015944.8722508,52
1766015944.873251,53
1766015944.874238,51
1766015944.875251,51
1766015944.876228,53
1766015944.8772511,50
1766015944.878262,51
1766015944.879241,53
1766015944.880254,52
1766015944.881261,48
1766015944.8822699,52
1766015944.883251,50
1766015944.884284,50
1766015944.885281,48
1766015944.8862872,48
1766015944.887286,51
1766015944.888258,47
1766015944.889287,50
1766015944.890292,47
1766015944.891351,49
1766015944.892344,49
1766015944.893326,49
1766015944.894329,45
1766015944.895307,47
1766015944.89631,46
1766015944.8973088,48
1766015944.898311,47
1766015944.899312,47
1766015944.900312,47
1766015944.9013178,47
1766015944.902317,49
1766015944.903309,48
1766015944.9043489,46
1766015944.905349,49
1766015944.906341,45
1766015944.907329,44
1766015944.908351,42
1766015944.909346,48
1766015944.910343,45
1766015944.9113479,43
1766015944.9123359,43
1766015944.913391,43
1766015944.914434,44
1766015944.915384,45
1766015944.916403,41
1766015944.917381,43
1766015944.918474,40
1766015944.919403,42
1766015944.9203699,41
1766015944.921369,44
1766015944.9224782,40
1766015944.9234262,45
1766015944.924427,42
1766015944.925468,44
1766015944.9264362,42
1766015944.92743,43
1766015944.928443,39
1766015944.929439,42
1766015944.930454,44
1766015944.931484,44
1766015944.932458,46
1766015944.93349,44
1766015944.934453,44
1766015944.935442,44
1766015944.936424,42
1766015944.937432,42
1766015944.938472,46
1766015944.9394581,42
1766015944.940452,44
1766015944.941469,43
1766015944.942487,45
1766015944.9434838,42
1766015944.944433,45
1766015944.9455209,42
1766015944.9464488,44
1766015944.947531,43
1766015944.9484942,39
1766015944.9495318,42
1766015944.950506,44
1766015944.951543,42
1766015944.952497,44
1766015944.953544,40
1766015944.954494,43
1766015944.955549,45
1766015944.956501,43
1766015944.957509,42
1766015944.958536,43
1766015944.959562,43
1766015944.9605172,42
1766015944.9615018,42
1766015944.962528,45
1766015944.963565,43
1766015944.964556,42
1766015944.965569,42
1766015944.966502,40
1766015944.9675431,41
1766015944.9685361,43
1766015944.969522,45
1766015944.970599,41
1766015944.9715898,41
1766015944.972589,43
1766015944.973602,40
1766015944.974522,39
1766015944.9755578,40
1766015944.976608,38
1766015944.9775429,38
1766015944.978581,42
1766015944.97959,44
1766015944.980603,44
1766015944.981555,46
1766015944.9826298,47
1766015944.983575,46
1766015944.984616,44
1766015944.985621,47
1766015944.986638,46
1766015944.987634,48
1766015944.9886389,46
1766015944.989588,49
1766015944.990635,49
1766015944.9915829,48
1766015944.992639,48
1766015944.9936378,51
1766015944.9946082,49
1766015944.995637,47
1766015944.9966662,47
1766015944.997646,49
1766015944.9986591,47
1766015944.9996428,43
1766015945.000598,45
1766015945.001649,47
1766015945.002647,45
1766015945.003658,46
1766015945.0046551,46
1766015945.0056581,45
1766015945.0066812,44
1766015945.0076659,45
1766015945.0086322,44
1766015945.009654,45
1766015945.010703,43
1766015945.011692,44
1766015945.0126982,44
1766015945.013675,47
1766015945.014713,48
1766015945.0156958,45
1766015945.016715,48
1766015945.017685,44
1766015945.01874,43
1766015945.0196989,48
1766015945.02074,46
1766015945.021704,45
1766015945.022699,48
1766015945.02372,49
1766015945.02474,49
1766015945.025766,49
1766015945.0267541,48
1766015945.027688,48
1766015945.028703,48
1766015945.02972,47
1766015945.0307462,47
1766015945.0317519,48
1766015945.0327628,47
1766015945.033767,45
1766015945.034765,46
1766015945.035755,47
1766015945.036769,45
1766015945.037774,45
1766015945.038777,48
1766015945.039783,45
1766015945.04079,49
1766015945.0417762,43
1766015945.042791,45
1766015945.043788,47
1766015945.044746,44
1766015945.045789,41
1766015945.046769,44
1766015945.047798,47
1766015945.048769,46
1766015945.049751,44
1766015945.0507698,45
1766015945.051806,43
1766015945.052762,41
1766015945.053806,44
1766015945.054785,42
1766015945.055797,38
1766015945.056795,44
1766015945.0578098,41
1766015945.0588238,40
1766015945.059822,42
1766015945.060778,43
1766015945.061832,41
1766015945.062816,40
1766015945.063838,45
1766015945.064832,41
1766015945.06583,43
1766015945.066838,41
1766015945.0678341,43
1766015945.068835,41
1766015945.069848,40
1766015945.0708532,41
1766015945.071844,41
1766015945.0728629,42
1766015945.073822,38
1766015945.074848,40
1766015945.07585,39
1766015945.07686,43
1766015945.07794,41
1766015945.078846,45
1766015945.079848,42
1766015945.080937,41
1766015945.0819468,40
1766015945.0829482,42
1766015945.0839329,40
1766015945.084953,40
1766015945.085917,42
1766015945.0869288,41
1766015945.087947,39
1766015945.0889568,41
1766015945.089943,39
1766015945.0909498,41
1766015945.091949,40
1766015945.0929348,42
1766015945.093962,41
1766015945.094939,41
1766015945.095943,40
1766015945.096949,40
1766015945.0979562,43
1766015945.09896,41
1766015945.099946,46
1766015945.10092,45
1766015945.101936,45
1766015945.1029382,45
1766015945.103938,49
1766015945.104933,46
1766015945.105927,45
1766015945.1069179,49
1766015945.1079109,48
1766015945.108924,50
1766015945.1099231,48
1766015945.11092,46
1766015945.111914,47
1766015945.1129081,43
1766015945.1139069,48
1766015945.114924,45
1766015945.115956,45
1766015945.116948,46
1766015945.1179252,43
1766015945.1189508,45
1766015945.119945,44
1766015945.120929,47
1766015945.121954,41
1766015945.122954,46
1766015945.12397,44
1766015945.124962,41
1766015945.125947,44
1766015945.126962,47
1766015945.1279528,44
1766015945.1289668,46
1766015945.129986,46
1766015945.1309812,43
1766015945.132011,43
1766015945.132991,45
1766015945.1340108,42
1766015945.134995,44
1766015945.135985,43
1766015945.136971,43
1766015945.1379972,43
1766015945.1390028,44
1766015945.1399941,43
1766015945.140996,39
1766015945.1420212,40
1766015945.1430268,40
1766015945.144035,43
1766015945.145047,41
1766015945.146045,39
1766015945.14705,40
1766015945.148075,42
1766015945.149048,41
1766015945.150027,36
1766015945.151052,38
1766015945.1520388,40
1766015945.153023,39
1766015945.154027,36
1766015945.1550279,41
1766015945.1560571,38
1766015945.157045,38
1766015945.158062,39
1766015945.15906,42
1766015945.160073,41
1766015945.161052,38
1766015945.162067,42
1766015945.1630359,38
1766015945.164046,43
1766015945.165051,44
1766015945.16606,40
1766015945.167052,43
1766015945.168108,39
1766015945.1691132,42
1766015945.170089,39
1766015945.1710799,39
1766015945.1720781,39
1766015945.173114,39
1766015945.1741152,38
1766015945.1750798,40
1766015945.176128,40
1766015945.177087,41
1766015945.178122,38
1766015945.179083,43
1766015945.1801448,38
1766015945.181105,37
1766015945.182123,38
1766015945.183108,39
1766015945.1841438,41
1766015945.185156,36
1766015945.1861382,40
1766015945.18716,39
1766015945.188143,38
1766015945.189151,41
1766015945.190144,38
1766015945.191152,40
1766015945.1921751,41
1766015945.193165,37
1766015945.194154,36
1766015945.195168,40
1766015945.196181,40
1766015945.197194,38
1766015945.198169,36
1766015945.199174,40
1766015945.200181,40
1766015945.201196,38
1766015945.202195,39
1766015945.203208,38
1766015945.2042098,38
1766015945.205195,38
1766015945.206194,40
1766015945.207204,37
1766015945.2082088,43
1766015945.209207,42
