timestamp,emg_value
1766015934.566417,52
1766015934.566439,52
1766015934.566456,49
1766015934.566472,49
1766015934.566488,52
1766015934.566504,50
1766015934.56652,51
1766015934.566535,50
1766015934.56655,50
1766015934.566567,50
1766015934.5665832,53
1766015934.5665998,54
1766015934.566616,54
1766015934.5666308,56
1766015934.566646,55
1766015934.5666611,55
1766015934.566676,57
1766015934.566693,60
1766015934.5667078,58
1766015934.566723,61
1766015934.566738,57
1766015934.566753,60
1766015934.566769,56
1766015934.566784,59
1766015934.5667992,58
1766015934.566815,57
1766015934.5668302,61
1766015934.566845,58
1766015934.56686,58
1766015934.566875,57
1766015934.56689,55
1766015934.566905,56
1766015934.566931,56
1766015934.566947,55
1766015934.566962,53
1766015934.5669792,56
1766015934.566998,53
1766015934.567015,56
1766015934.5670311,55
1766015934.567049,52
1766015934.567064,54
1766015934.56708,51
1766015934.567095,47
1766015934.5671098,54
1766015934.567125,51
1766015934.56714,51
1766015934.567165,49
1766015934.567181,51
1766015934.567196,51
1766015934.567211,51
1766015934.5672262,50
1766015934.567241,46
1766015934.567256,48
1766015934.567272,48
1766015934.567287,48
1766015934.567303,47
1766015934.567318,49
1766015934.5673332,47
1766015934.567348,48
1766015934.567363,50
1766015934.5673778,53
1766015934.567394,49
1766015934.567415,49
1766015934.567432,48
1766015934.5674508,51
1766015934.567473,51
1766015934.567488,47
1766015934.567504,47
1766015934.567519,50
1766015934.567536,48
1766015934.567552,47
1766015934.567567,48
1766015934.567582,49
1766015934.5675972,49
1766015934.567613,47
1766015934.5676281,51
1766015934.567643,51
1766015934.5676641,50
1766015934.567679,50
1766015934.5676942,49
1766015934.567709,49
1766015934.567725,52
1766015934.56774,45
1766015934.567755,45
1766015934.56777,45
1766015934.567785,47
1766015934.5678,42
1766015934.5678148,48
1766015934.56783,49
1766015934.567845,43
1766015934.56786,46
1766015934.567876,45
1766015934.567893,46
1766015934.567913,47
1766015934.567928,45
1766015934.5679429,47
1766015934.567959,46
1766015934.567979,47
1766015934.5679948,49
1766015934.56801,49
1766015934.568025,48
1766015934.5680408,51
1766015934.568056,54
1766015934.568071,53
1766015934.568086,52
1766015934.5681012,52
1766015934.568117,52
1766015934.5681322,49
1766015934.568149,50
1766015934.568168,50
1766015934.568183,48
1766015934.568198,50
1766015934.568213,52
1766015934.56823,54
1766015934.5682461,50
1766015934.5682628,49
1766015934.568279,50
1766015934.568296,49
1766015934.5683122,52
1766015934.568327,50
1766015934.56834,47
1766015934.568353,46
1766015934.568366,49
1766015934.5683782,46
1766015934.568392,47
1766015934.568404,49
1766015934.568417,49
1766015934.5684302,45
1766015934.5684428,44
1766015934.56846,46
1766015934.568476,49
1766015934.56849,47
1766015934.568512,51
1766015934.568526,48
1766015934.568539,50
1766015934.568552,47
1766015934.568565,52
1766015934.568578,48
1766015934.568591,53
1766015934.568604,52
1766015934.5686169,55
1766015934.56863,54
1766015934.5686421,54
1766015934.568655,54
1766015934.568668,52
1766015934.568681,52
1766015934.568695,47
1766015934.5687082,50
1766015934.5687208,48
1766015934.568734,51
1766015934.568746,51
1766015934.568761,50
1766015934.568774,50
1766015934.5687869,49
1766015934.5688,48
1766015934.568814,47
1766015934.568827,49
1766015934.5688388,48
1766015934.568852,48
1766015934.568865,48
1766015934.568888,49
1766015934.568903,47
1766015934.568929,43
1766015934.568952,45
1766015934.568966,43
1766015934.568979,46
1766015934.568991,45
1766015934.569004,44
1766015934.5690172,42
1766015934.5690298,45
1766015934.569043,45
1766015934.569056,45
1766015934.5690691,44
1766015934.569083,43
1766015934.5690958,43
1766015934.569109,45
1766015934.569122,43
1766015934.5691352,45
1766015934.569149,42
1766015934.569161,41
1766015934.569175,41
1766015934.569188,40
1766015934.5692,42
1766015934.569215,42
1766015934.569228,44
1766015934.569242,39
1766015934.5692549,41
1766015934.569268,41
1766015934.569281,41
1766015934.569294,40
1766015934.5693069,41
1766015934.56932,38
1766015934.569334,40
1766015934.5693471,41
1766015934.569362,40
1766015934.569375,43
1766015934.569393,41
1766015934.569407,40
1766015934.56942,38
1766015934.569435,37
1766015934.569448,36
1766015934.569461,40
1766015934.569474,37
1766015934.569487,41
1766015934.5695,41
1766015934.569516,39
1766015934.569531,41
1766015934.5695438,42
1766015934.569557,42
1766015934.56957,40
1766015934.5695832,41
1766015934.5695958,40
1766015934.569609,38
1766015934.569622,40
1766015934.5696352,38
1766015934.569648,40
1766015934.569661,37
1766015934.569674,38
1766015934.5696871,37
1766015934.5697,37
1766015934.5697129,39
1766015934.569726,38
1766015934.569739,34
1766015934.569752,38
1766015934.5697658,35
1766015934.569778,37
1766015934.569791,35
1766015934.569809,37
1766015934.569823,34
1766015934.5698361,37
1766015934.569849,34
1766015934.5698628,37
1766015934.569876,34
1766015934.569895,36
1766015934.569908,34
1766015934.569921,36
1766015934.5699341,34
1766015934.5699468,35
1766015934.569961,32
1766015934.569976,32
1766015934.5699892,33
1766015934.5700018,35
1766015934.570015,32
1766015934.570028,34
1766015934.5700412,33
1766015934.570056,32
1766015934.570071,31
1766015934.570084,30
1766015934.570097,32
1766015934.570111,35
1766015934.5701241,31
1766015934.570137,33
1766015934.57015,31
1766015934.5701618,31
1766015934.570175,32
1766015934.570188,34
1766015934.5702012,31
1766015934.5702138,31
1766015934.570227,28
1766015934.5702431,28
1766015934.570258,32
1766015934.570271,31
1766015934.5702841,29
1766015934.570297,32
1766015934.5703099,33
1766015934.570323,33
1766015934.570336,28
1766015934.5703511,30
1766015934.570364,30
1766015934.570379,30
1766015934.570394,30
1766015934.570407,27
1766015934.57042,26
1766015934.5704331,30
1766015934.570446,28
1766015934.570459,29
1766015934.570472,30
1766015934.5704849,30
1766015934.5704992,30
1766015934.570518,31
1766015934.5705311,29
1766015934.5705442,30
1766015934.5705569,29
1766015934.57057,25
1766015934.570584,26
1766015934.5705972,27
1766015934.570611,27
1766015934.570624,28
1766015934.570637,26
1766015934.57065,29
1766015934.570663,28
1766015934.5706758,30
1766015934.570691,31
1766015934.570704,27
1766015934.5707169,27
1766015934.570732,29
1766015934.570745,29
1766015934.5707579,27
1766015934.57077,26
1766015934.570783,22
1766015934.570796,25
1766015934.5708091,27
1766015934.570822,28
1766015934.5708349,24
1766015934.570848,26
1766015934.570861,30
1766015934.5708742,27
1766015934.570886,29
1766015934.570899,25
1766015934.570913,26
1766015934.5709262,25
1766015934.5709388,28
1766015934.570952,26
1766015934.570965,26
1766015934.5709782,29
1766015934.570991,25
1766015934.571006,24
1766015934.571019,25
1766015934.571032,24
1766015934.5710452,28
1766015934.571059,26
1766015934.571072,29
1766015934.571085,27
1766015934.571098,27
1766015934.571111,27
1766015934.571125,29
1766015934.571139,27
1766015934.571152,28
1766015934.571164,25
1766015934.571177,27
1766015934.57119,27
1766015934.571203,25
1766015934.5712152,28
1766015934.5712278,24
1766015934.571241,27
1766015934.571254,26
1766015934.5712671,25
1766015934.5712798,22
1766015934.5712929,25
1766015934.571306,25
1766015934.571319,22
1766015934.571332,25
1766015934.5713449,27
1766015934.571359,25
1766015934.571373,24
1766015934.5713851,25
1766015934.5713978,23
1766015934.571413,26
1766015934.571425,26
1766015934.571438,26
1766015934.571451,25
1766015934.571466,22
1766015934.571479,24
1766015934.5714939,23
1766015934.5715132,26
1766015934.5715258,25
1766015934.571539,23
1766015934.571553,23
1766015934.571566,23
1766015934.57158,22
1766015934.571593,21
1766015934.571606,26
1766015934.571619,25
1766015934.5716321,24
1766015934.571645,24
1766015934.571657,23
1766015934.571671,23
1766015934.5716832,25
1766015934.571696,23
1766015934.571709,25
1766015934.571722,24
1766015934.5717351,21
1766015934.571747,25
1766015934.5717602,22
1766015934.571774,24
1766015934.571787,25
1766015934.5718012,21
1766015934.5718138,22
1766015934.571828,26
1766015934.571841,25
1766015934.571854,27
1766015934.571867,26
1766015934.5718799,22
1766015934.571893,24
1766015934.571906,22
1766015934.5719192,25
1766015934.571933,24
1766015934.571946,23
1766015934.57196,25
1766015934.571973,22
1766015934.5719879,23
1766015934.572001,23
1766015934.572015,21
1766015934.572028,23
1766015934.572041,24
1766015934.572054,20
1766015934.572067,24
1766015934.5720792,22
1766015934.5720918,23
1766015934.572105,23
1766015934.572118,24
1766015934.572132,27
1766015934.572144,21
1766015934.572157,24
1766015934.57217,22
1766015934.5721831,25
1766015934.572196,22
1766015934.572209,20
1766015934.572222,22
1766015934.572237,20
1766015934.5722518,23
1766015934.572265,21
1766015934.572277,24
1766015934.57229,25
1766015934.572303,25
1766015934.572316,21
1766015934.5723321,25
1766015934.572345,23
1766015934.5723572,25
1766015934.5723698,24
1766015934.572383,23
1766015934.572396,25
1766015934.572412,23
1766015934.572426,21
1766015934.572439,23
1766015934.572453,23
1766015934.572468,22
1766015934.572481,23
1766015934.572494,23
1766015934.5725079,24
1766015934.572521,22
1766015934.572534,23
1766015934.5725482,23
1766015934.5725598,23
1766015934.572574,23
1766015934.572587,24
1766015934.5726001,26
1766015934.572612,23
1766015934.5726259,23
1766015934.57264,23
1766015934.572653,23
1766015934.5726662,24
1766015934.5726788,23
1766015934.572692,24
1766015934.572705,25
1766015934.5727181,24
1766015934.5727308,24
1766015934.572746,23
1766015934.5727592,21
1766015934.572772,23
1766015934.572785,25
1766015934.572798,22
1766015934.5728111,27
1766015934.5728252,23
1766015934.5728378,27
1766015934.572854,26
1766015934.5728672,26
1766015934.572881,21
1766015934.5728939,21
1766015934.572907,24
1766015934.5729191,23
1766015934.572932,22
1766015934.5729449,25
1766015934.57296,24
1766015934.572974,25
1766015934.5729861,24
1766015934.572999,24
1766015934.5730119,26
1766015934.573025,26
1766015934.573038,27
1766015934.573051,28
1766015934.5730639,25
1766015934.573077,24
1766015934.573091,29
1766015934.5731032,24
1766015934.5731158,28
1766015934.573129,26
1766015934.573143,25
1766015934.573156,24
1766015934.573169,23
1766015934.5731819,25
1766015934.573194,24
1766015934.5732071,25
1766015934.5732212,26
1766015934.573233,25
1766015934.573247,21
1766015934.573259,26
1766015934.5732749,23
1766015934.573291,24
1766015934.5733042,26
1766015934.573317,26
1766015934.573338,27
1766015934.5733519,26
1766015934.573365,24
1766015934.573378,24
1766015934.5733912,27
1766015934.5734038,26
1766015934.573417,27
1766015934.573429,24
1766015934.573442,26
1766015934.573455,26
1766015934.573468,25
1766015934.5734808,26
1766015934.573494,24
1766015934.573507,25
1766015934.573521,25
1766015934.573535,26
1766015934.573549,24
1766015934.5735612,21
1766015934.5735738,24
1766015934.573587,24
1766015934.5736,24
1766015934.5736132,26
1766015934.573626,26
1766015934.573639,24
1766015934.573652,25
1766015934.5736651,24
1766015934.573678,26
1766015934.573691,22
1766015934.573704,27
1766015934.5737212,25
1766015934.573735,26
1766015934.5737479,24
1766015934.573761,25
1766015934.573774,25
1766015934.573787,23
1766015934.573801,26
1766015934.573815,28
1766015934.573828,25
1766015934.5738409,27
1766015934.573854,23
1766015934.573867,24
1766015934.57388,26
1766015934.573893,26
1766015934.573906,26
1766015934.573919,27
1766015934.573932,24
1766015934.573945,27
1766015934.5739589,23
1766015934.573972,23
1766015934.573985,23
1766015934.5739992,25
1766015934.5740118,25
1766015934.574025,21
1766015934.574038,23
1766015934.5740511,25
1766015934.574064,25
1766015934.574077,27
1766015934.57409,28
1766015934.574103,26
1766015934.574116,26
1766015934.5741298,29
1766015934.574144,28
1766015934.5741608,27
1766015934.574177,24
1766015934.574191,27
1766015934.574205,26
1766015934.5742168,26
1766015934.5742311,25
1766015934.574243,30
1766015934.574257,28
1766015934.5742688,27
1766015934.574282,26
1766015934.574296,28
1766015934.574309,27
1766015934.574322,27
1766015934.5743349,27
1766015934.574348,23
1766015934.574361,26
1766015934.574374,24
1766015934.574388,27
1766015934.5744011,24
1766015934.574414,27
1766015934.574427,24
1766015934.57444,24
1766015934.5744529,25
1766015934.574466,26
1766015934.574479,25
1766015934.574492,26
1766015934.5745049,27
1766015934.574518,27
1766015934.5745332,24
1766015934.5745459,28
1766015934.574559,25
1766015934.574572,25
1766015934.5745869,27
1766015934.574603,25
1766015934.574616,24
1766015934.574629,30
1766015934.574642,25
1766015934.574655,30
1766015934.574668,26
1766015934.574681,26
1766015934.5746949,25
1766015934.574708,24
1766015934.574721,26
1766015934.574734,26
1766015934.5747468,26
1766015934.57476,25
1766015934.574772,29
1766015934.574785,25
1766015934.574798,30
1766015934.574811,23
1766015934.5748239,24
1766015934.574839,22
1766015934.5748532,25
1766015934.574867,23
1766015934.574882,26
1766015934.5748951,28
1766015934.574908,26
1766015934.574921,28
1766015934.574934,24
1766015934.574947,24
1766015934.5749602,28
1766015934.5749729,28
1766015934.574986,24
1766015934.574999,26
1766015934.5750191,25
1766015934.575037,27
1766015934.575053,25
1766015934.575066,28
1766015934.575079,28
1766015934.575092,28
1766015934.575105,25
1766015934.575117,27
1766015934.575132,26
1766015934.575145,26
1766015934.575158,29
1766015934.575171,28
1766015934.5751839,27
1766015934.575197,25
1766015934.57521,27
1766015934.575223,25
1766015934.575244,23
1766015934.5752609,27
1766015934.5752761,28
1766015934.575289,28
1766015934.5753028,25
1766015934.575316,24
1766015934.575329,28
1766015934.5753422,26
1766015934.5753548,31
1766015934.575368,30
1766015934.575381,33
1766015934.5753942,31
1766015934.575407,31
1766015934.5754209,33
1766015934.575434,32
1766015934.5754461,34
1766015934.575459,31
1766015934.575474,31
1766015934.57549,32
1766015934.575503,32
1766015934.575516,34
1766015934.57553,29
1766015934.575544,32
1766015934.5755572,32
1766015934.5755699,31
1766015934.575583,29
1766015934.575596,31
1766015934.5756092,30
1766015934.5756211,33
1766015934.575635,31
1766015934.575648,31
1766015934.57566,33
1766015934.575673,35
1766015934.575686,34
1766015934.575708,36
1766015934.5757282,37
1766015934.575743,37
1766015934.575758,33
1766015934.5757709,33
1766015934.575784,35
1766015934.575797,36
1766015934.57581,35
1766015934.575823,34
1766015934.575836,36
1766015934.5758562,35
1766015934.5758688,35
1766015934.575882,39
1766015934.575895,35
1766015934.5759082,34
1766015934.57592,36
1766015934.575937,36
1766015934.5759518,35
1766015934.575965,35
1766015934.575978,35
1766015934.5759912,37
1766015934.576003,36
1766015934.576016,32
1766015934.5760288,34
1766015934.576042,36
1766015934.576055,35
1766015934.5760682,36
1766015934.5760798,35
1766015934.576093,36
1766015934.576106,36
1766015934.576119,33
1766015934.576132,36
1766015934.576145,33
1766015934.576158,35
1766015934.576171,37
1766015934.576184,35
1766015934.5761971,34
1766015934.57621,34
1766015934.5762272,33
1766015934.57624,38
1766015934.5762508,40
1766015934.576263,38
1766015934.576274,38
1766015934.576285,43
1766015934.576297,39
1766015934.576308,40
1766015934.576319,46
1766015934.57633,46
1766015934.576342,49
1766015934.576355,45
1766015934.5763662,47
1766015934.5763772,47
1766015934.576389,53
1766015934.5763998,51
1766015934.5764108,48
1766015934.576422,52
1766015934.576434,51
1766015934.5764449,50
1766015934.576457,50
1766015934.576468,50
1766015934.576479,52
1766015934.57649,49
1766015934.576502,48
1766015934.576513,48
1766015934.57653,50
1766015934.576541,52
1766015934.5765529,50
1766015934.576564,50
1766015934.576575,52
1766015934.576586,51
1766015934.576598,51
1766015934.5766091,50
1766015934.576621,51
1766015934.576632,51
1766015934.5766442,52
1766015934.5766551,50
1766015934.576666,47
1766015934.576677,48
1766015934.576689,48
1766015934.576706,49
1766015934.576718,50
1766015934.5767722,47
1766015934.576791,48
1766015934.5768042,52
1766015934.5768168,48
1766015934.57683,49
1766015934.576843,49
1766015934.576855,51
1766015934.5768661,49
1766015934.576877,53
1766015934.576888,49
1766015934.576899,52
1766015934.576912,50
1766015934.576923,53
1766015934.576936,53
1766015934.576948,49
1766015934.576959,53
1766015934.57697,50
1766015934.576981,53
1766015934.576992,48
1766015934.577003,49
1766015934.577014,48
1766015934.5770261,51
1766015934.577037,51
1766015934.577048,52
1766015934.577059,53
1766015934.57707,54
1766015934.5770822,51
1766015934.5770938,57
1766015934.5771048,55
1766015934.577116,57
1766015934.577127,55
1766015934.577138,57
1766015934.577151,53
1766015934.577163,57
1766015934.577174,57
1766015934.577185,54
1766015934.5771961,55
1766015934.577209,55
1766015934.5772202,51
1766015934.5772312,54
1766015934.5772429,56
1766015934.577255,55
1766015934.577266,54
1766015934.577279,56
1766015934.57729,56
1766015934.577301,53
1766015934.577312,55
1766015934.577323,52
1766015934.5773351,52
1766015934.577346,55
1766015934.577357,55
1766015934.577368,55
1766015934.5773802,54
1766015934.5773911,54
1766015934.577402,57
1766015934.577413,52
1766015934.5774238,53
1766015934.577437,54
1766015934.577448,56
1766015934.57746,53
1766015934.577471,58
1766015934.577483,56
1766015934.577494,54
1766015934.577506,55
1766015934.577517,55
1766015934.577539,56
1766015934.5775518,57
1766015934.577564,58
1766015934.577575,59
1766015934.577586,60
1766015934.577597,60
1766015934.5776079,61
1766015934.57762,59
1766015934.577632,57
1766015934.577644,57
1766015934.577655,56
1766015934.577667,57
1766015934.5776799,59
1766015934.5776918,56
1766015934.577703,56
1766015934.577715,55
1766015934.577729,55
1766015934.57774,55
1766015934.577751,54
1766015934.577764,54
1766015934.577777,53
1766015934.5777879,52
1766015934.5778,52
1766015934.577811,51
1766015934.577822,50
1766015934.577833,50
1766015934.577845,52
1766015934.577856,50
1766015934.577868,48
1766015934.577879,51
1766015934.5778902,52
1766015934.577902,54
1766015934.577915,50
1766015934.5779278,50
1766015934.577939,49
1766015934.577951,50
1766015934.577962,49
1766015934.577973,52
1766015934.577985,53
1766015934.577996,53
1766015934.578007,54
1766015934.5780191,51
1766015934.57803,53
1766015934.578041,54
1766015934.578052,51
1766015934.578064,49
1766015934.578075,53
1766015934.578086,55
1766015934.5780978,53
1766015934.57811,52
1766015934.578121,53
1766015934.578132,49
1766015934.578144,50
1766015934.578155,50
1766015934.578166,48
1766015934.578177,51
1766015934.5781891,48
1766015934.5782,47
1766015934.578212,45
1766015934.578223,49
1766015934.5782342,48
1766015934.5782452,44
1766015934.5782568,46
1766015934.5782678,47
1766015934.578279,45
1766015934.578293,47
1766015934.5783072,45
1766015934.578319,48
1766015934.57833,46
1766015934.578342,46
1766015934.578353,46
1766015934.578364,47
1766015934.578376,45
1766015934.578387,48
1766015934.578398,46
1766015934.57841,45
1766015934.5784209,47
1766015934.578432,45
1766015934.578444,46
1766015934.578455,45
1766015934.578466,47
1766015934.578478,47
1766015934.578489,46
1766015934.5785,46
1766015934.578511,45
1766015934.578523,45
1766015934.578534,44
1766015934.5785449,46
1766015934.578558,47
1766015934.578572,45
1766015934.578583,43
1766015934.5785952,41
1766015934.5786061,41
1766015934.578617,43
1766015934.578628,41
1766015934.57864,40
1766015934.578651,40
1766015934.5786629,38
1766015934.578677,42
1766015934.57869,41
1766015934.578701,39
1766015934.5787132,41
1766015934.5787241,40
1766015934.578735,39
1766015934.578746,39
1766015934.578757,38
1766015934.5787678,39
1766015934.57878,41
1766015934.578791,42
1766015934.5788019,38
1766015934.5788128,42
1766015934.578825,41
1766015934.578836,39
1766015934.578847,40
1766015934.578858,43
1766015934.578869,36
1766015934.57888,37
1766015934.578892,40
1766015934.578903,34
1766015934.5789142,37
1766015934.578926,40
1766015934.578937,38
1766015934.578948,40
1766015934.578959,38
1766015934.578971,39
1766015934.5789819,38
1766015934.5789928,36
1766015934.5790038,36
1766015934.579016,36
1766015934.579027,40
1766015934.579041,39
1766015934.579055,38
1766015934.579066,39
1766015934.579077,37
1766015934.579089,41
1766015934.5791,40
1766015934.5791109,38
1766015934.5791218,39
1766015934.579134,38
1766015934.579145,42
1766015934.579156,38
1766015934.579168,37
1766015934.579179,38
1766015934.57919,41
1766015934.5792031,36
1766015934.5792158,38
1766015934.579228,37
1766015934.579239,39
1766015934.579251,39
1766015934.579263,37
1766015934.579275,34
1766015934.579286,37
1766015934.579298,40
1766015934.579309,40
1766015934.57932,37
1766015934.5793312,38
1766015934.579343,37
1766015934.579354,38
1766015934.579366,37
1766015934.579377,36
1766015934.57939,38
1766015934.579401,37
1766015934.5794141,35
1766015934.5794282,35
1766015934.5794408,36
1766015934.5794518,37
1766015934.579463,35
1766015934.579474,37
1766015934.579486,36
1766015934.5794969,35
1766015934.579508,38
1766015934.579519,32
1766015934.579531,37
1766015934.579542,35
1766015934.579554,36
1766015934.5795681,37
1766015934.5795798,36
1766015934.5795908,37
1766015934.579602,38
1766015934.579614,38
1766015934.579625,35
1766015934.5796359,37
1766015934.579647,33
1766015934.579659,35
1766015934.57967,39
1766015934.579681,37
1766015934.579693,37
1766015934.579704,36
1766015934.579715,37
1766015934.579726,34
1766015934.5797372,38
1766015934.579749,34
1766015934.57976,36
1766015934.5797708,35
1766015934.5797818,36
1766015934.579796,37
1766015934.5798101,34
1766015934.579821,36
1766015934.579832,36
1766015934.579843,31
1766015934.579854,34
1766015934.579865,35
1766015934.5798762,36
1766015934.579888,34
1766015934.5798988,38
1766015934.5799098,35
1766015934.579921,33
1766015934.579932,33
1766015934.5799448,35
1766015934.5799592,34
1766015934.579972,36
1766015934.579985,34
1766015934.5799959,35
1766015934.5800068,34
1766015934.5800178,34
1766015934.58003,35
1766015934.580041,36
1766015934.580054,33
1766015934.5800672,36
1766015934.5800781,35
1766015934.580089,32
1766015934.580101,35
1766015934.580112,34
1766015934.5801249,34
1766015934.5801358,33
1766015934.580148,34
1766015934.580162,36
1766015934.5801752,35
1766015934.5801878,34
1766015934.5802,37
1766015934.58021,35
1766015934.58022,33
1766015934.58023,33
1766015934.5802398,34
1766015934.580249,33
1766015934.580259,32
1766015934.58027,34
1766015934.58028,35
1766015934.58029,33
1766015934.580299,34
1766015934.580309,35
1766015934.58032,33
1766015934.580332,33
1766015934.580342,35
1766015934.580352,35
1766015934.580362,34
1766015934.5803719,32
1766015934.5803819,31
1766015934.580393,33
1766015934.5804029,32
1766015934.580412,35
1766015934.5804229,31
1766015934.580432,33
1766015934.5804422,35
1766015934.5804522,33
1766015934.580462,33
1766015934.580472,31
1766015934.580482,34
1766015934.580492,32
1766015934.580502,33
1766015934.5805151,33
1766015934.580527,33
1766015934.580538,33
1766015934.58055,31
1766015934.58056,33
1766015934.5805702,34
1766015934.58058,34
1766015934.58059,31
1766015934.5806,34
1766015934.58061,32
1766015934.58062,33
1766015934.58063,33
1766015934.58064,30
1766015934.58065,32
1766015934.580659,33
1766015934.580669,33
1766015934.580679,33
1766015934.580689,32
1766015934.5807,31
1766015934.5807118,34
1766015934.5807219,33
1766015934.5807319,32
1766015934.580742,32
1766015934.580752,30
1766015934.5807621,32
1766015934.5807722,31
1766015934.5807822,32
1766015934.580792,33
1766015934.5808032,30
1766015934.5808132,30
1766015934.580823,32
1766015934.580833,30
1766015934.580844,30
1766015934.580856,31
1766015934.580868,30
1766015934.580878,31
1766015934.580888,29
1766015934.580898,32
1766015934.580908,29
1766015934.580918,30
1766015934.580928,31
1766015934.580938,28
1766015934.580947,29
1766015934.580958,30
1766015934.580968,28
1766015934.58098,30
1766015934.5809898,29
1766015934.581001,28
1766015934.581013,29
1766015934.581024,28
1766015934.581033,29
1766015934.581044,31
1766015934.581056,28
1766015934.581067,30
1766015934.581078,28
1766015934.581089,28
1766015934.5811,30
1766015934.58111,27
1766015934.58112,26
1766015934.58113,27
1766015934.58114,26
1766015934.581151,29
1766015934.581162,29
1766015934.581172,29
1766015934.581182,27
1766015934.581195,29
1766015934.581207,27
1766015934.581218,28
1766015934.581228,28
1766015934.581238,29
1766015934.581248,28
1766015934.5812569,30
1766015934.5812669,27
1766015934.581277,27
1766015934.581287,27
1766015934.581297,27
1766015934.581307,27
1766015934.5813172,27
1766015934.5813272,29
1766015934.581337,28
1766015934.581347,26
1766015934.581357,27
1766015934.581367,22
1766015934.581377,26
1766015934.581387,26
1766015934.581397,29
1766015934.581407,25
1766015934.5814168,26
1766015934.5814269,28
1766015934.581436,26
1766015934.581446,25
1766015934.581456,26
1766015934.5814662,26
1766015934.5814762,24
1766015934.581486,21
1766015934.581496,25
1766015934.581506,27
1766015934.581517,24
1766015934.58153,21
1766015934.5815418,27
1766015934.581552,26
1766015934.581564,25
1766015934.5815759,28
1766015934.581585,26
1766015934.581595,25
1766015934.5816052,25
1766015934.5816152,26
1766015934.581625,26
1766015934.581635,27
1766015934.581645,23
1766015934.581655,23
1766015934.581665,22
1766015934.581676,25
1766015934.581687,24
1766015934.5816991,28
1766015934.5817091,23
1766015934.581719,25
1766015934.581729,23
1766015934.581739,23
1766015934.581749,26
1766015934.581758,24
1766015934.581768,25
1766015934.5817778,26
1766015934.5817878,25
1766015934.5817978,23
1766015934.581808,27
1766015934.581818,23
1766015934.5818272,24
1766015934.581837,22
1766015934.581847,23
1766015934.58186,26
1766015934.5818722,21
1766015934.581882,26
1766015934.581892,25
1766015934.581902,23
1766015934.581912,21
1766015934.581922,23
1766015934.581932,24
1766015934.581942,21
1766015934.581951,22
1766015934.581961,22
1766015934.581972,23
1766015934.581982,25
1766015934.581991,24
1766015934.582001,25
1766015934.582011,26
1766015934.5820212,25
1766015934.582031,23
1766015934.582041,25
1766015934.582051,24
1766015934.582061,20
1766015934.582071,23
1766015934.582081,24
1766015934.582091,21
1766015934.58217,25
1766015934.582186,24
1766015934.582199,24
1766015934.5822122,26
1766015934.5822248,23
1766015934.582238,27
1766015934.582251,25
1766015934.582263,20
1766015934.5822809,24
1766015934.582295,23
1766015934.582307,25
1766015934.5823202,26
1766015934.5823328,23
1766015934.582345,23
1766015934.5823581,24
1766015934.58237,23
1766015934.5823832,23
1766015934.5823948,24
1766015934.5824142,25
1766015934.582426,24
1766015934.582439,24
1766015934.582454,24
1766015934.5824661,25
1766015934.582479,26
1766015934.582491,21
1766015934.582504,24
1766015934.582517,21
1766015934.582529,22
1766015934.5825422,23
1766015934.582554,24
1766015934.582567,24
1766015934.5825799,22
1766015934.582592,23
1766015934.5826051,23
1766015934.582617,24
1766015934.58263,21
1766015934.5826418,22
1766015934.582655,25
1766015934.582668,24
1766015934.58268,24
1766015934.582693,26
1766015934.582709,27
1766015934.582724,25
1766015934.582737,21
1766015934.582749,24
1766015934.582762,21
1766015934.582775,23
1766015934.582787,24
1766015934.5828,24
1766015934.5828118,21
1766015934.582825,24
1766015934.582838,26
1766015934.58285,23
1766015934.582863,23
1766015934.5828748,24
1766015934.582888,24
1766015934.5829,23
1766015934.582913,25
1766015934.582926,22
1766015934.5829382,24
1766015934.5829508,22
1766015934.582963,25
1766015934.582976,24
1766015934.582989,25
1766015934.5830011,21
1766015934.583013,23
1766015934.583026,23
1766015934.583039,23
1766015934.583051,25
1766015934.583064,27
1766015934.583076,23
1766015934.5830889,24
1766015934.583102,23
1766015934.583114,28
1766015934.583136,25
1766015934.583149,25
1766015934.583161,24
1766015934.583174,25
1766015934.583186,24
1766015934.583199,24
1766015934.583211,22
1766015934.583224,23
1766015934.583236,25
1766015934.5832489,23
1766015934.583261,26
1766015934.583274,23
1766015934.583286,24
1766015934.5832992,26
1766015934.5833118,26
1766015934.583324,25
1766015934.583337,24
1766015934.583349,24
1766015934.583362,24
1766015934.5833752,25
1766015934.583387,25
1766015934.5834,21
1766015934.583412,26
1766015934.583425,22
1766015934.5834382,23
1766015934.58345,24
1766015934.583463,24
1766015934.583476,22
1766015934.583488,24
1766015934.583501,25
1766015934.5835142,26
1766015934.583526,24
1766015934.583539,25
1766015934.583552,23
1766015934.583564,25
1766015934.5835772,25
1766015934.5835898,25
1766015934.583602,26
1766015934.583615,26
1766015934.583627,24
1766015934.58364,24
1766015934.5836532,23
1766015934.583665,23
1766015934.583678,22
1766015934.58369,24
1766015934.583703,21
1766015934.5837162,24
1766015934.583728,26
1766015934.583741,26
1766015934.583754,22
1766015934.583766,23
1766015934.583779,25
1766015934.5837922,23
1766015934.583804,24
1766015934.583817,26
1766015934.583829,24
1766015934.583895,27
1766015934.583969,22
1766015934.5840378,22
1766015934.584076,25
1766015934.584116,23
1766015934.584181,24
1766015934.5842729,24
1766015934.584289,24
1766015934.5843022,21
1766015934.5843148,23
1766015934.5843499,25
1766015934.584404,25
1766015934.5844202,24
1766015934.5844328,23
1766015934.584446,23
1766015934.584459,26
1766015934.5844722,23
1766015934.584484,22
1766015934.584497,23
1766015934.5845098,24
1766015934.584523,25
1766015934.584536,24
1766015934.5845492,23
1766015934.5845618,23
1766015934.584576,22
1766015934.584589,22
1766015934.584602,22
1766015934.584615,21
1766015934.584627,26
1766015934.58464,23
1766015934.5846531,26
1766015934.584666,24
1766015934.584678,25
1766015934.584691,26
1766015934.584704,25
1766015934.584717,21
1766015934.5847292,25
1766015934.5847418,24
1766015934.584755,24
1766015934.584768,26
1766015934.58478,25
1766015934.584793,23
1766015934.584806,26
1766015934.584818,23
1766015934.584831,26
1766015934.584844,25
1766015934.584856,28
1766015934.5848691,23
1766015934.584885,23
1766015934.584897,23
1766015934.5849102,26
1766015934.5849228,24
1766015934.584936,21
1766015934.584948,21
1766015934.584961,23
1766015934.584975,22
1766015934.5849879,23
1766015934.585,26
1766015934.585013,20
1766015934.585026,24
1766015934.5850391,24
1766015934.585052,24
1766015934.585064,23
1766015934.585077,23
1766015934.5850902,24
1766015934.585103,22
1766015934.585116,26
1766015934.585129,23
1766015934.585142,25
1766015934.585155,22
1766015934.5851672,23
1766015934.5851798,20
1766015934.585193,23
1766015934.585205,26
1766015934.585218,24
1766015934.585231,20
1766015934.585244,24
1766015934.5852559,21
1766015934.585269,25
1766015934.5852811,23
1766015934.585294,24
1766015934.585307,24
1766015934.585322,23
1766015934.585335,24
1766015934.5853481,21
1766015934.585361,23
1766015934.585373,23
1766015934.585386,24
1766015934.5853992,24
1766015934.585411,25
1766015934.585424,25
1766015934.5854368,24
1766015934.58545,22
1766015934.585463,23
1766015934.5854762,23
1766015934.5854878,27
1766015934.585501,26
1766015934.585514,22
1766015934.585527,23
1766015934.585552,25
1766015934.5855649,24
1766015934.585578,24
1766015934.585591,23
1766015934.5856042,21
1766015934.5856159,24
1766015934.585629,24
1766015934.585642,23
1766015934.585655,24
1766015934.585668,22
1766015934.585681,24
1766015934.585693,20
1766015934.585707,22
1766015934.58572,19
1766015934.585732,25
1766015934.5857449,25
1766015934.585758,22
1766015934.585772,24
1766015934.585784,24
1766015934.585797,22
1766015934.58581,23
1766015934.585823,26
1766015934.585835,22
1766015934.585848,23
1766015934.5858612,22
1766015934.5858738,22
1766015934.585886,24
1766015934.585899,23
1766015934.585912,26
1766015934.585925,23
1766015934.585938,19
1766015934.58595,24
1766015934.585963,22
1766015934.5859761,22
1766015934.5859892,22
1766015934.586001,23
1766015934.586014,23
1766015934.586027,22
1766015934.58604,21
1766015934.5860538,23
1766015934.586066,21
1766015934.586077,22
1766015934.586088,23
1766015934.586099,26
1766015934.5861099,21
1766015934.5861208,23
1766015934.586132,23
1766015934.586142,24
1766015934.586153,26
1766015934.586164,26
1766015934.586175,25
1766015934.586185,24
1766015934.586196,25
1766015934.586207,24
1766015934.5862179,28
1766015934.586229,22
1766015934.5862389,24
1766015934.58625,23
1766015934.586261,21
1766015934.586272,21
1766015934.586282,24
1766015934.586293,22
1766015934.586304,22
1766015934.586315,21
1766015934.586325,24
1766015934.586336,21
1766015934.586347,25
1766015934.5863569,25
1766015934.586368,23
1766015934.586379,23
1766015934.586389,22
1766015934.5864,25
1766015934.586411,26
1766015934.586421,23
1766015934.586432,24
1766015934.586443,23
1766015934.586453,23
1766015934.586464,22
1766015934.586475,24
1766015934.586486,24
1766015934.586496,22
1766015934.586507,26
1766015934.586518,24
1766015934.586529,22
1766015934.586539,22
1766015934.586551,24
1766015934.5865622,22
1766015934.586572,22
1766015934.5865831,26
1766015934.586594,23
1766015934.586605,22
1766015934.586616,24
1766015934.586627,22
1766015934.586637,19
1766015934.586648,23
1766015934.586659,23
1766015934.586669,22
1766015934.5876071,24
1766015934.5886562,22
1766015934.5896509,25
1766015934.59065,27
1766015934.591632,22
1766015934.592631,26
1766015934.5936298,21
1766015934.5946398,20
1766015934.5956402,24
1766015934.596664,24
1766015934.597661,23
1766015934.598665,22
1766015934.5996852,25
1766015934.6006908,21
1766015934.601685,23
1766015934.60271,20
1766015934.603669,25
1766015934.604699,22
1766015934.6057012,24
1766015934.606693,24
1766015934.6076999,23
1766015934.608715,22
1766015934.6097002,23
1766015934.610708,23
1766015934.611777,23
1766015934.61275,23
1766015934.613755,25
1766015934.614688,24
1766015934.615696,22
1766015934.616705,23
1766015934.617781,19
1766015934.618725,22
1766015934.6196868,21
1766015934.620693,23
1766015934.621728,22
1766015934.622753,25
1766015934.623785,24
1766015934.624723,25
1766015934.6257842,24
1766015934.626764,21
1766015934.62775,22
1766015934.6287518,23
1766015934.629745,24
1766015934.630759,23
1766015934.631731,26
1766015934.63275,23
1766015934.633761,26
1766015934.634736,22
1766015934.6357272,22
1766015934.636739,25
1766015934.637752,24
1766015934.638762,26
1766015934.639755,19
1766015934.640782,22
1766015934.641757,21
1766015934.64274,22
1766015934.643769,24
1766015934.644743,23
1766015934.645764,22
1766015934.646796,25
1766015934.647816,22
1766015934.648781,25
1766015934.6497731,22
1766015934.650771,23
1766015934.651777,25
1766015934.652788,23
1766015934.653806,26
1766015934.6547909,23
1766015934.6557949,23
1766015934.65678,21
1766015934.657811,24
1766015934.658803,27
1766015934.659811,25
1766015934.6608052,26
1766015934.6618009,22
1766015934.662815,27
1766015934.663808,25
1766015934.6648362,24
1766015934.665846,25
1766015934.6668181,27
1766015934.667884,32
1766015934.668851,34
1766015934.6698098,40
1766015934.6708689,44
1766015934.671864,45
1766015934.672849,49
1766015934.673864,51
1766015934.6748679,51
1766015934.675904,52
1766015934.676933,53
1766015934.6778722,54
1766015934.678875,55
1766015934.679971,53
1766015934.680958,56
1766015934.681957,52
1766015934.682954,57
1766015934.683958,55
1766015934.684984,57
1766015934.68596,58
1766015934.686959,54
1766015934.687959,55
1766015934.6889632,54
1766015934.6899688,50
1766015934.690961,53
1766015934.691958,54
1766015934.6929688,50
1766015934.693957,53
1766015934.694955,51
1766015934.6959622,52
1766015934.696953,55
1766015934.697963,55
1766015934.6989639,56
1766015934.699956,55
1766015934.7009568,55
1766015934.7019598,53
1766015934.702956,54
1766015934.703955,54
1766015934.70497,53
1766015934.705965,52
1766015934.70696,55
1766015934.707953,53
1766015934.708972,52
1766015934.709964,55
1766015934.7109601,55
1766015934.711957,52
1766015934.712961,56
1766015934.71396,55
1766015934.7149708,58
1766015934.71597,64
1766015934.7169979,69
1766015934.7179909,80
1766015934.718998,87
1766015934.719983,93
1766015934.721,97
1766015934.722103,101
1766015934.722998,97
1766015934.7240078,99
1766015934.725,99
1766015934.726005,99
1766015934.727123,101
1766015934.728106,102
1766015934.729107,100
1766015934.7301161,108
1766015934.731124,108
1766015934.732117,108
1766015934.733126,106
1766015934.734137,106
1766015934.735153,106
1766015934.73613,106
1766015934.737149,104
1766015934.7381551,105
1766015934.739132,104
1766015934.740146,106
1766015934.741159,109
1766015934.7421591,108
1766015934.743142,108
1766015934.744151,106
1766015934.745162,106
1766015934.746167,103
1766015934.747146,102
1766015934.748148,103
1766015934.749162,103
1766015934.750151,103
1766015934.751177,102
1766015934.752098,97
1766015934.753103,98
1766015934.754076,98
1766015934.755082,98
1766015934.756097,98
1766015934.757108,95
1766015934.7581,92
1766015934.75911,91
1766015934.760127,89
1766015934.7611232,90
1766015934.762123,86
1766015934.763121,87
1766015934.7641191,87
1766015934.765141,88
1766015934.766135,85
1766015934.767141,84
1766015934.768118,84
1766015934.769127,80
1766015934.770134,82
1766015934.771136,82
1766015934.772136,84
1766015934.7731378,80
1766015934.774144,82
1766015934.775168,83
1766015934.776139,82
1766015934.7771351,84
1766015934.7781398,83
1766015934.7791529,79
1766015934.780153,77
1766015934.781177,79
1766015934.7821598,76
1766015934.7831612,76
1766015934.784163,78
1766015934.785179,75
1766015934.786177,75
1766015934.787183,76
1766015934.788191,76
1766015934.789185,76
1766015934.790185,73
1766015934.79119,74
1766015934.792191,74
1766015934.793196,74
1766015934.794195,71
1766015934.79522,75
1766015934.7962308,73
1766015934.7972028,74
1766015934.798235,74
1766015934.7992268,70
1766015934.800246,71
1766015934.8012311,74
1766015934.802227,74
1766015934.8032482,74
1766015934.804242,71
1766015934.8052402,71
1766015934.806255,71
1766015934.8072371,71
1766015934.808244,72
1766015934.809247,73
1766015934.810241,71
1766015934.811247,74
1766015934.812264,73
1766015934.813271,74
1766015934.814281,70
1766015934.815264,70
1766015934.816268,69
1766015934.817266,72
1766015934.81828,70
1766015934.8192651,70
1766015934.8202848,68
1766015934.821256,71
1766015934.822247,72
1766015934.8232791,76
1766015934.824277,75
1766015934.825276,77
1766015934.8262541,78
1766015934.827269,82
1766015934.828258,81
1766015934.829275,80
1766015934.8302631,81
1766015934.831264,80
1766015934.832274,80
1766015934.8332841,80
1766015934.83428,81
1766015934.835278,81
1766015934.836282,78
1766015934.837308,81
1766015934.838279,79
1766015934.839296,81
1766015934.840307,78
1766015934.8413272,75
1766015934.842317,80
1766015934.8433769,78
1766015934.84433,75
1766015934.845388,79
1766015934.846377,79
1766015934.847415,77
1766015934.848373,79
1766015934.849375,74
1766015934.850357,81
1766015934.851434,79
1766015934.852386,84
1766015934.853437,82
1766015934.854379,87
1766015934.85535,83
1766015934.8563578,84
1766015934.8573608,90
1766015934.858367,88
1766015934.8594189,87
1766015934.860377,88
1766015934.8613482,87
1766015934.862359,87
1766015934.8633542,84
1766015934.864374,82
1766015934.865387,85
1766015934.866393,83
1766015934.8674078,81
1766015934.8683782,86
1766015934.8693619,84
1766015934.870359,79
1766015934.8713589,86
1766015934.872372,82
1766015934.873399,83
1766015934.874395,83
1766015934.87539,83
1766015934.876374,81
1766015934.877374,80
1766015934.8783932,77
1766015934.8794172,79
1766015934.8804119,77
1766015934.881403,80
1766015934.882426,76
1766015934.883456,74
1766015934.8844092,75
1766015934.88542,75
1766015934.886413,74
1766015934.887427,74
1766015934.888417,71
1766015934.8894331,73
1766015934.890423,73
1766015934.891432,75
1766015934.892431,75
1766015934.893447,73
1766015934.8944561,74
1766015934.8954492,75
1766015934.8964329,72
1766015934.897424,73
1766015934.898436,72
1766015934.899447,72
1766015934.900471,69
1766015934.901449,70
1766015934.9024441,67
1766015934.9034739,69
1766015934.9044638,67
1766015934.9054668,68
1766015934.906455,67
1766015934.9075031,63
1766015934.908552,64
1766015934.909492,64
1766015934.91049,64
1766015934.9114728,66
1766015934.912488,67
1766015934.9134889,62
1766015934.914509,63
1766015934.9154959,62
1766015934.916482,63
1766015934.917498,63
1766015934.918499,61
1766015934.919505,58
1766015934.920526,62
1766015934.921501,61
1766015934.92254,59
1766015934.923525,62
1766015934.924526,60
1766015934.925529,65
1766015934.926541,63
1766015934.927543,64
1766015934.92855,64
1766015934.9295301,65
1766015934.9305558,63
1766015934.931537,61
1766015934.932551,59
1766015934.933571,61
1766015934.93457,60
1766015934.935561,62
1766015934.936574,60
1766015934.937557,61
1766015934.938553,57
1766015934.939587,60
1766015934.940555,60
1766015934.941622,58
1766015934.942589,60
1766015934.943587,58
1766015934.944598,58
1766015934.945573,59
1766015934.946595,56
1766015934.9476008,57
1766015934.948603,59
1766015934.9496078,64
1766015934.950639,68
1766015934.9515991,63
1766015934.9525938,69
1766015934.953603,72
1766015934.954634,71
1766015934.955627,77
1766015934.9565928,81
1766015934.957623,81
1766015934.958613,87
1766015934.959666,86
1766015934.960602,85
1766015934.9616482,83
1766015934.962614,86
1766015934.963625,86
1766015934.964639,85
1766015934.965687,84
1766015934.966625,86
1766015934.967638,83
1766015934.968637,86
1766015934.9696388,87
1766015934.970625,83
1766015934.971631,83
1766015934.972642,83
1766015934.973663,85
1766015934.974663,83
1766015934.975661,82
1766015934.976695,82
1766015934.977664,84
1766015934.978712,79
1766015934.979669,78
1766015934.980661,78
1766015934.981672,79
1766015934.982678,82
1766015934.983677,76
1766015934.98468,79
1766015934.985701,78
1766015934.986698,75
1766015934.987683,76
1766015934.988679,73
1766015934.989696,76
1766015934.990711,76
1766015934.991689,74
1766015934.992695,76
1766015934.993706,74
1766015934.994727,76
1766015934.995712,78
1766015934.9967082,75
1766015934.9977431,74
1766015934.9987369,71
1766015934.999716,72
1766015935.000733,72
1766015935.00172,72
1766015935.002785,72
1766015935.0037382,71
1766015935.004732,69
1766015935.005734,70
1766015935.006741,70
1766015935.007743,69
1766015935.008737,68
1766015935.0097542,68
1766015935.010738,68
1766015935.011755,68
1766015935.012749,66
1766015935.013748,70
1766015935.0147572,67
1766015935.015766,65
1766015935.016775,64
1766015935.017784,65
1766015935.0187619,65
1766015935.019757,61
1766015935.0207858,61
1766015935.021801,61
1766015935.022774,61
1766015935.023786,61
1766015935.024843,60
1766015935.025831,61
1766015935.026786,60
1766015935.027794,62
1766015935.028824,66
1766015935.029808,66
1766015935.0308118,65
1766015935.031785,66
1766015935.032823,63
1766015935.033827,67
1766015935.034827,64
1766015935.035839,63
1766015935.03682,61
1766015935.037822,63
1766015935.038823,63
1766015935.039822,67
1766015935.0409229,65
1766015935.041962,69
1766015935.0428538,70
1766015935.043853,70
1766015935.04492,69
1766015935.0459142,71
1766015935.046913,66
1766015935.047911,69
1766015935.0489118,66
1766015935.04992,64
1766015935.0509472,68
1766015935.051931,65
1766015935.05293,66
1766015935.053925,69
1766015935.0549152,63
1766015935.055936,67
1766015935.056946,62
1766015935.057933,65
1766015935.058928,64
1766015935.059942,66
1766015935.060971,60
1766015935.0619578,65
1766015935.062937,64
1766015935.06392,68
1766015935.06492,69
1766015935.065931,69
1766015935.066921,70
1766015935.067926,71
1766015935.068908,72
1766015935.069935,72
1766015935.070934,72
1766015935.071916,68
1766015935.0729148,69
1766015935.0739079,70
1766015935.0749109,70
1766015935.075902,68
1766015935.076947,69
1766015935.077944,67
1766015935.078929,66
1766015935.07996,69
1766015935.0809479,69
1766015935.081953,68
1766015935.082957,63
1766015935.08395,68
1766015935.0849578,66
1766015935.0859551,65
1766015935.08697,64
1766015935.0879622,64
1766015935.088968,65
1766015935.089982,63
1766015935.0909839,65
1766015935.091987,63
1766015935.092979,63
1766015935.0939572,65
1766015935.0949981,61
1766015935.095994,60
1766015935.0969899,62
1766015935.097991,61
1766015935.098986,62
1766015935.0999942,60
1766015935.100986,61
1766015935.101998,59
1766015935.103025,59
1766015935.104057,59
1766015935.1050398,58
1766015935.106036,59
1766015935.107012,55
1766015935.108072,57
1766015935.1090329,58
1766015935.110025,55
1766015935.1110332,59
1766015935.112025,57
1766015935.113023,59
1766015935.114047,58
1766015935.115031,57
1766015935.116035,57
1766015935.117035,58
1766015935.1180348,59
1766015935.1190348,60
1766015935.1200352,58
1766015935.121065,63
1766015935.122067,68
1766015935.123071,71
1766015935.1240451,69
1766015935.125081,74
1766015935.126066,77
1766015935.127072,79
1766015935.128063,73
1766015935.1290839,77
1766015935.13008,74
1766015935.13109,74
1766015935.132083,72
1766015935.133085,74
1766015935.134096,72
1766015935.1351008,74
1766015935.136101,72
1766015935.137113,72
1766015935.138091,68
1766015935.139114,69
1766015935.14011,71
1766015935.141106,72
1766015935.142116,72
1766015935.143112,69
1766015935.144112,71
1766015935.14512,68
1766015935.146125,68
1766015935.147135,68
1766015935.148124,68
1766015935.149119,68
1766015935.150142,67
1766015935.151134,64
1766015935.152141,66
1766015935.1531389,64
1766015935.1541529,61
1766015935.155148,63
1766015935.1561658,66
1766015935.1571698,62
1766015935.1581461,63
1766015935.159153,64
1766015935.160158,63
1766015935.161231,65
1766015935.162154,59
1766015935.1631832,63
1766015935.164167,60
1766015935.165165,62
1766015935.166176,57
1766015935.1671739,59
1766015935.168185,61
1766015935.1691809,62
1766015935.1701891,60
1766015935.171194,60
1766015935.172201,62
1766015935.173194,61
1766015935.174195,62
1766015935.175264,59
1766015935.176234,61
1766015935.177227,60
1766015935.178216,58
1766015935.17922,61
1766015935.1802208,58
1766015935.18123,58
1766015935.182234,61
1766015935.183209,60
1766015935.184233,63
1766015935.1852338,63
1766015935.186225,60
1766015935.187213,56
1766015935.188242,59
1766015935.1892512,61
1766015935.190239,59
1766015935.191234,62
1766015935.1922581,60
1766015935.193262,62
1766015935.1942458,62
1766015935.19524,63
1766015935.196259,62
1766015935.1972978,62
1766015935.19824,59
1766015935.199264,59
1766015935.2002711,63
1766015935.201302,60
1766015935.2023108,63
1766015935.203275,62
1766015935.2042801,64
1766015935.205293,62
1766015935.206293,62
1766015935.2072861,61
1766015935.208307,61
1766015935.209292,58
1766015935.2102919,63
1766015935.211314,59
1766015935.212309,59
1766015935.213314,56
1766015935.214311,58
1766015935.2153249,57
1766015935.2163231,60
1766015935.217333,60
1766015935.2183301,59
1766015935.219334,57
1766015935.220343,55
1766015935.22135,58
1766015935.2223418,56
1766015935.2233448,57
1766015935.224342,54
1766015935.2253408,57
1766015935.226341,56
1766015935.22733,57
1766015935.228357,54
1766015935.229363,55
1766015935.230346,53
1766015935.2313569,58
1766015935.232367,55
1766015935.233369,56
1766015935.23438,56
1766015935.2353652,56
1766015935.236367,56
1766015935.2373939,56
1766015935.2384,53
1766015935.239397,55
1766015935.240382,51
1766015935.241407,53
1766015935.2423942,54
1766015935.243395,51
1766015935.244395,49
1766015935.245419,52
1766015935.2464,53
1766015935.247405,49
1766015935.2484128,49
1766015935.249496,49
1766015935.250448,48
1766015935.251442,48
1766015935.2524312,46
1766015935.2534158,48
1766015935.254418,50
1766015935.2554271,52
1766015935.256433,52
1766015935.257438,51
1766015935.25844,55
1766015935.259446,54
1766015935.260454,49
1766015935.261427,52
1766015935.26245,48
1766015935.2634602,53
1766015935.264458,52
1766015935.265454,52
1766015935.2664561,49
1766015935.2674618,52
1766015935.268469,53
1766015935.2694762,52
1766015935.270487,52
1766015935.271488,51
1766015935.272474,58
1766015935.27349,58
1766015935.274501,60
1766015935.2755,59
1766015935.2764869,59
1766015935.277477,64
1766015935.278471,61
1766015935.279499,60
1766015935.28051,62
1766015935.2815082,59
1766015935.282516,61
1766015935.2835178,59
1766015935.284517,61
1766015935.2855082,61
1766015935.286508,59
1766015935.2875469,61
1766015935.288513,61
1766015935.2895749,58
1766015935.290514,57
1766015935.291542,57
1766015935.292562,54
1766015935.293548,54
1766015935.294542,57
1766015935.295545,54
1766015935.2965472,59
1766015935.2975528,53
1766015935.298579,56
1766015935.29955,56
1766015935.300541,56
1766015935.3015628,55
1766015935.3025799,56
1766015935.303587,55
1766015935.304579,54
1766015935.305581,51
1766015935.306582,56
1766015935.3075762,52
1766015935.308587,53
1766015935.309589,52
1766015935.31059,50
1766015935.31159,52
1766015935.312591,48
1766015935.3135931,52
1766015935.3145971,50
1766015935.315606,52
1766015935.316611,52
1766015935.3176079,48
1766015935.3186078,48
1766015935.3195982,50
1766015935.320621,49
1766015935.3216288,48
1766015935.322623,49
1766015935.323613,46
1766015935.324686,49
1766015935.3256938,52
1766015935.326667,50
1766015935.32763,49
1766015935.328632,50
1766015935.329639,50
1766015935.330645,46
1766015935.3316429,47
1766015935.332685,46
1766015935.3336651,47
1766015935.334652,46
1766015935.3356779,44
1766015935.3366568,49
1766015935.3376598,50
1766015935.338679,52
1766015935.3396852,57
1766015935.3406541,53
1766015935.341693,57
1766015935.342674,53
1766015935.343693,52
1766015935.344696,53
1766015935.345698,54
1766015935.346706,53
1766015935.347692,56
1766015935.348686,55
1766015935.3497028,56
1766015935.3507168,56
1766015935.3516889,56
1766015935.352715,54
1766015935.353706,58
1766015935.3547242,57
1766015935.355718,60
1766015935.356731,59
1766015935.357725,57
1766015935.358714,60
1766015935.359738,57
1766015935.360727,58
1766015935.3617868,58
1766015935.3627641,55
1766015935.363761,54
1766015935.364735,54
1766015935.365741,54
1766015935.3667588,52
1766015935.3677492,53
1766015935.368772,49
1766015935.369761,53
1766015935.3707662,54
1766015935.3717701,53
1766015935.372768,51
1766015935.3737779,49
1766015935.374754,51
1766015935.3757498,49
1766015935.376766,51
1766015935.3777752,53
1766015935.378783,54
1766015935.379777,48
1766015935.380789,50
1766015935.3817868,50
1766015935.3827698,49
1766015935.3837981,47
1766015935.384788,47
1766015935.385788,50
1766015935.386807,47
1766015935.387794,48
1766015935.388795,49
1766015935.389794,47
1766015935.390798,47
1766015935.391801,47
1766015935.392831,47
1766015935.3938591,46
1766015935.394838,46
1766015935.395913,45
1766015935.396857,43
1766015935.397862,43
1766015935.398823,44
1766015935.399828,43
1766015935.4008288,42
1766015935.4018948,45
1766015935.402993,44
1766015935.404014,47
1766015935.404969,42
1766015935.4060102,43
1766015935.406962,46
1766015935.407934,47
1766015935.408969,43
1766015935.409929,44
1766015935.410969,46
1766015935.412002,44
1766015935.41295,45
1766015935.413953,44
1766015935.414957,44
1766015935.4159548,43
1766015935.416961,41
1766015935.418001,42
1766015935.418932,43
1766015935.41996,42
1766015935.420931,42
1766015935.422004,45
1766015935.422954,41
1766015935.424006,42
1766015935.42498,43
1766015935.426003,43
1766015935.426951,46
1766015935.427995,47
1766015935.428958,48
1766015935.429933,49
1766015935.430967,49
1766015935.431961,45
1766015935.432954,47
1766015935.434001,46
1766015935.434976,45
1766015935.435956,44
1766015935.43696,46
1766015935.4379652,48
1766015935.438946,46
1766015935.4399738,47
1766015935.44097,47
1766015935.442034,47
1766015935.4429991,49
1766015935.443979,47
1766015935.44502,47
1766015935.445995,47
1766015935.446968,48
1766015935.447988,45
1766015935.448996,47
1766015935.4500532,45
1766015935.451033,49
1766015935.452003,50
1766015935.452986,46
1766015935.454047,47
1766015935.454991,50
1766015935.45603,47
1766015935.457064,50
1766015935.458072,48
1766015935.459062,48
1766015935.460064,47
1766015935.46107,49
1766015935.462014,47
1766015935.463091,50
1766015935.464031,50
1766015935.4650528,51
1766015935.466017,47
1766015935.467084,46
1766015935.468035,48
1766015935.469089,48
1766015935.470052,48
1766015935.4710982,49
1766015935.472065,47
1766015935.473124,46
1766015935.474072,45
1766015935.475104,47
1766015935.476086,46
1766015935.477115,46
1766015935.478058,49
1766015935.479111,46
1766015935.480088,46
1766015935.48114,45
1766015935.4821172,47
1766015935.483129,46
1766015935.484098,46
1766015935.4851599,45
1766015935.4861171,46
1766015935.487162,46
1766015935.48813,46
1766015935.4891589,49
1766015935.4901319,50
1766015935.491161,52
1766015935.4921489,53
1766015935.493155,56
1766015935.494134,55
1766015935.495177,55
1766015935.496157,57
1766015935.497181,57
1766015935.4981802,55
1766015935.499189,57
1766015935.50016,58
1766015935.501184,57
1766015935.502187,54
1766015935.5031419,56
1766015935.5041568,55
1766015935.5051892,55
1766015935.506162,52
1766015935.507186,56
1766015935.50816,57
1766015935.509185,55
1766015935.51019,55
1766015935.511159,52
1766015935.512147,52
1766015935.513193,52
1766015935.5142012,54
1766015935.515202,51
1766015935.5162098,52
1766015935.5172071,48
1766015935.518205,50
1766015935.519211,49
1766015935.52021,46
1766015935.5212119,49
1766015935.522207,47
1766015935.523242,46
1766015935.524223,45
1766015935.525186,49
1766015935.526199,50
1766015935.527183,47
1766015935.52821,48
1766015935.529202,50
1766015935.530189,49
1766015935.531209,47
1766015935.5322409,48
1766015935.5332181,46
1766015935.534206,47
1766015935.5352051,48
1766015935.5362072,46
1766015935.537277,46
1766015935.538225,47
1766015935.539266,48
1766015935.5402648,51
1766015935.541249,48
1766015935.542271,48
1766015935.5432599,48
1766015935.544276,47
1766015935.545268,47
1766015935.546297,48
1766015935.547246,49
1766015935.5482728,46
1766015935.549289,44
1766015935.550299,45
1766015935.5512729,46
1766015935.5522912,43
1766015935.5532942,46
1766015935.554302,44
1766015935.555275,43
1766015935.55631,47
1766015935.5573068,44
1766015935.558295,44
1766015935.559293,45
1766015935.560292,44
1766015935.56129,43
1766015935.5623198,44
1766015935.5633018,44
1766015935.564283,44
1766015935.5653188,41
1766015935.566326,41
