timestamp,emg_value
1765877534.6861172,494
1765877534.686125,494
1765877534.686133,495
1765877534.6861398,495
1765877534.686147,495
1765877534.686154,495
1765877534.6861608,495
1765877534.686168,495
1765877534.6861749,494
1765877534.6861818,495
1765877534.6861901,496
1765877534.686197,496
1765877534.6862028,497
1765877534.6862102,498
1765877534.686217,497
1765877534.686224,496
1765877534.6862311,499
1765877534.6862369,499
1765877534.686244,495
1765877534.686251,495
1765877534.6862578,495
1765877534.686265,494
1765877534.686271,493
1765877534.6862779,492
1765877534.686285,493
1765877534.686296,493
1765877534.686304,493
1765877534.686311,492
1765877534.6863182,495
1765877534.686324,495
1765877534.6863308,495
1765877534.686338,495
1765877534.6863449,494
1765877534.6863518,493
1765877534.686358,494
1765877534.686365,493
1765877534.686372,494
1765877534.6863801,493
1765877534.686387,494
1765877534.6863942,494
1765877534.6864011,494
1765877534.686409,494
1765877534.686416,494
1765877534.686423,495
1765877534.68643,495
1765877534.6864371,494
1765877534.686443,495
1765877534.68645,495
1765877534.6864572,495
1765877534.686464,496
1765877534.686471,496
1765877534.686477,495
1765877534.686486,495
1765877534.6864939,494
1765877534.6865,494
1765877534.686507,494
1765877534.686514,495
1765877534.686521,495
1765877534.686528,495
1765877534.686534,496
1765877534.686541,498
1765877534.686548,498
1765877534.6865542,497
1765877534.686561,497
1765877534.686568,495
1765877534.68659,495
1765877534.6865962,495
1765877534.686603,494
1765877534.68661,493
1765877534.6866162,493
1765877534.6866229,494
1765877534.6866298,493
1765877534.6866372,493
1765877534.686643,495
1765877534.68665,494
1765877534.686657,494
1765877534.6866639,494
1765877534.686681,494
1765877534.686687,495
1765877534.686696,495
1765877534.6867042,494
1765877534.686711,495
1765877534.686717,495
1765877534.6867242,495
1765877534.686731,496
1765877534.6867368,495
1765877534.686744,496
1765877534.686751,495
1765877534.6867578,495
1765877534.686764,495
1765877534.686771,495
1765877534.686778,497
1765877534.686785,497
1765877534.686792,497
1765877534.686799,496
1765877534.686806,495
1765877534.6868129,492
1765877534.686819,492
1765877534.686826,493
1765877534.686833,491
1765877534.68684,494
1765877534.686847,495
1765877534.6868532,495
1765877534.68686,494
1765877534.686867,494
1765877534.686878,495
1765877534.686893,496
1765877534.686899,495
1765877534.686906,495
1765877534.6869361,495
1765877534.686943,497
1765877534.68695,498
1765877534.6869571,497
1765877534.6869628,497
1765877534.68697,498
1765877534.686977,493
1765877534.6869838,495
1765877534.68699,496
1765877534.686997,496
1765877534.6870039,496
1765877534.687011,496
1765877534.687017,497
1765877534.687024,495
1765877534.687031,493
1765877534.687037,496
1765877534.6870441,496
1765877534.687051,493
1765877534.687058,494
1765877534.6870642,495
1765877534.6870809,495
1765877534.687088,493
1765877534.687095,493
1765877534.687103,495
1765877534.687111,495
1765877534.687118,494
1765877534.687125,494
1765877534.687132,494
1765877534.687138,494
1765877534.687145,494
1765877534.6871521,493
1765877534.687159,494
1765877534.687165,494
1765877534.6871722,494
1765877534.687179,494
1765877534.687186,494
1765877534.6871932,494
1765877534.6872,494
1765877534.687207,495
1765877534.687213,494
1765877534.6872199,494
1765877534.6872268,495
1765877534.6872342,494
1765877534.687241,495
1765877534.6872478,496
1765877534.687254,495
1765877534.6872609,496
1765877534.687268,495
1765877534.687275,495
1765877534.687283,497
1765877534.687291,496
1765877534.687298,496
1765877534.687305,495
1765877534.6873112,494
1765877534.687318,495
1765877534.687329,494
1765877534.687336,494
1765877534.6873431,493
1765877534.687349,494
1765877534.687356,494
1765877534.6873631,495
1765877534.68737,495
1765877534.6873758,494
1765877534.687383,493
1765877534.6873899,493
1765877534.687397,494
1765877534.687404,494
1765877534.6874099,494
1765877534.687417,495
1765877534.687424,495
1765877534.6874309,495
1765877534.687437,495
1765877534.687444,495
1765877534.687451,495
1765877534.687457,495
1765877534.687464,497
1765877534.6874728,498
1765877534.6874812,499
1765877534.687487,497
1765877534.6874938,493
1765877534.687501,491
1765877534.6875079,492
1765877534.687514,494
1765877534.687521,494
1765877534.687528,494
1765877534.687535,493
1765877534.687541,494
1765877534.687548,495
1765877534.687555,495
1765877534.687562,497
1765877534.687569,498
1765877534.687576,500
1765877534.687582,497
1765877534.6875892,492
1765877534.687596,494
1765877534.687603,494
1765877534.6876101,493
1765877534.687616,495
1765877534.687623,497
1765877534.6876302,498
1765877534.687637,499
1765877534.6876428,498
1765877534.68765,494
1765877534.687659,492
1765877534.687667,493
1765877534.687673,492
1765877534.68768,492
1765877534.687687,494
1765877534.687694,494
1765877534.6877,493
1765877534.687707,493
1765877534.687714,494
1765877534.687721,495
1765877534.6877272,497
1765877534.6877341,498
1765877534.687741,497
1765877534.6877482,497
1765877534.687754,494
1765877534.6877608,495
1765877534.687768,494
1765877534.687775,495
1765877534.6877818,495
1765877534.687788,495
1765877534.687795,492
1765877534.687802,493
1765877534.687809,493
1765877534.687815,495
1765877534.687822,495
1765877534.687829,495
1765877534.687837,496
1765877534.6878452,495
1765877534.6878521,495
1765877534.687859,494
1765877534.687865,494
1765877534.687872,494
1765877534.6878788,496
1765877534.687886,497
1765877534.687892,496
1765877534.6878989,495
1765877534.687906,494
1765877534.687913,493
1765877534.6879191,494
1765877534.687926,495
1765877534.687933,495
1765877534.6879392,495
1765877534.687946,494
1765877534.687953,494
1765877534.687959,495
1765877534.6879659,495
1765877534.687973,497
1765877534.687979,498
1765877534.687986,496
1765877534.687993,497
1765877534.688,498
1765877534.688006,493
1765877534.688013,493
1765877534.688021,495
1765877534.6880288,495
1765877534.6880362,494
1765877534.688043,494
1765877534.68805,495
1765877534.6880572,496
1765877534.688063,496
1765877534.6880698,497
1765877534.688077,495
1765877534.688084,494
1765877534.68809,492
1765877534.688097,494
1765877534.688104,494
1765877534.688111,495
1765877534.688118,495
1765877534.688125,495
1765877534.688131,494
1765877534.688138,495
1765877534.688145,495
1765877534.6881511,496
1765877534.688158,495
1765877534.6881652,498
1765877534.688171,501
1765877534.6881778,499
1765877534.688185,498
1765877534.688191,499
1765877534.6882,496
1765877534.6882079,497
1765877534.688215,495
1765877534.688221,491
1765877534.6882281,493
1765877534.688235,493
1765877534.688241,494
1765877534.6882482,493
1765877534.688255,493
1765877534.688262,494
1765877534.688268,494
1765877534.6882749,495
1765877534.688282,493
1765877534.688289,494
1765877534.688295,494
1765877534.688302,494
1765877534.688309,496
1765877534.688315,498
1765877534.688322,498
1765877534.688329,497
1765877534.688336,496
1765877534.688342,495
1765877534.688349,494
1765877534.6883562,495
1765877534.688363,496
1765877534.6883688,495
1765877534.688376,495
1765877534.688385,497
1765877534.688392,495
1765877534.688399,494
1765877534.688406,494
1765877534.688412,495
1765877534.688419,495
1765877534.688427,494
1765877534.688434,493
1765877534.688441,494
1765877534.688447,493
1765877534.688454,495
1765877534.688461,495
1765877534.688467,495
1765877534.6884742,496
1765877534.688481,498
1765877534.688488,499
1765877534.6884952,500
1765877534.688501,499
1765877534.6885078,497
1765877534.6885152,496
1765877534.688521,492
1765877534.6885278,494
1765877534.688535,494
1765877534.688542,492
1765877534.688548,492
1765877534.688555,493
1765877534.688562,494
1765877534.68857,496
1765877534.6885781,496
1765877534.688585,495
1765877534.688591,495
1765877534.688598,495
1765877534.6886048,494
1765877534.688612,495
1765877534.688618,496
1765877534.6886249,495
1765877534.688632,495
1765877534.688639,495
1765877534.6886451,495
1765877534.688652,495
1765877534.688659,495
1765877534.688666,495
1765877534.688673,495
1765877534.68868,494
1765877534.6886861,495
1765877534.688693,496
1765877534.6887,497
1765877534.688707,496
1765877534.688713,496
1765877534.68872,497
1765877534.6887271,496
1765877534.688734,494
1765877534.68874,494
1765877534.688749,494
1765877534.688757,494
1765877534.6887639,494
1765877534.688771,494
1765877534.688778,494
1765877534.688784,494
1765877534.688791,494
1765877534.688798,495
1765877534.688805,497
1765877534.688811,496
1765877534.688818,495
1765877534.6888251,495
1765877534.688831,495
1765877534.688838,494
1765877534.6888452,494
1765877534.688852,495
1765877534.688858,495
1765877534.688865,494
1765877534.6888719,494
1765877534.688879,495
1765877534.688886,495
1765877534.688892,495
1765877534.688899,495
1765877534.688906,496
1765877534.688912,497
1765877534.688919,497
1765877534.688926,495
1765877534.688938,495
1765877534.6889448,494
1765877534.688952,495
1765877534.688959,498
1765877534.688965,499
1765877534.688972,498
1765877534.688979,496
1765877534.688986,497
1765877534.688992,494
1765877534.688999,493
1765877534.689006,495
1765877534.689012,497
1765877534.689019,495
1765877534.689026,494
1765877534.6890318,494
1765877534.689039,496
1765877534.689046,496
1765877534.6890519,496
1765877534.689059,495
1765877534.689066,496
1765877534.6890728,495
1765877534.689079,493
1765877534.689086,493
1765877534.689093,495
1765877534.689099,496
1765877534.689106,497
1765877534.689114,497
1765877534.689122,496
1765877534.6891289,493
1765877534.689136,493
1765877534.689143,494
1765877534.689149,494
1765877534.689156,497
1765877534.689162,500
1765877534.689169,500
1765877534.689176,500
1765877534.689183,497
1765877534.6891892,489
1765877534.689196,493
1765877534.689203,495
1765877534.6892102,495
1765877534.689216,495
1765877534.6892228,495
1765877534.68923,494
1765877534.6892369,494
1765877534.6892428,494
1765877534.68925,494
1765877534.689256,495
1765877534.689263,494
1765877534.68927,495
1765877534.689276,495
1765877534.6892831,496
1765877534.68929,496
1765877534.6892989,496
1765877534.689306,496
1765877534.689313,496
1765877534.6893198,496
1765877534.689326,496
1765877534.689333,495
1765877534.6893399,495
1765877534.689347,496
1765877534.689353,497
1765877534.68936,499
1765877534.689367,499
1765877534.689373,499
1765877534.6893802,498
1765877534.689387,494
1765877534.689394,496
1765877534.6894,496
1765877534.6894069,494
1765877534.6894138,494
1765877534.68942,495
1765877534.689427,495
1765877534.689434,495
1765877534.689441,497
1765877534.6894479,498
1765877534.689454,499
1765877534.689461,498
1765877534.689468,497
1765877534.689476,496
1765877534.689485,493
1765877534.689492,493
1765877534.6894982,494
1765877534.689505,495
1765877534.689512,495
1765877534.6895192,496
1765877534.689525,496
1765877534.6895318,495
1765877534.689539,495
1765877534.689545,497
1765877534.6895518,497
1765877534.689559,495
1765877534.689565,496
1765877534.689572,495
1765877534.689579,495
1765877534.689586,494
1765877534.6895921,495
1765877534.689599,495
1765877534.689606,495
1765877534.689613,496
1765877534.68962,496
1765877534.6896262,496
1765877534.6896331,497
1765877534.68964,496
1765877534.689646,494
1765877534.689653,494
1765877534.689662,495
1765877534.6896691,495
1765877534.689676,496
1765877534.6896892,495
1765877534.689705,496
1765877534.6897202,496
1765877534.689735,496
1765877534.6897511,495
1765877534.689766,495
1765877534.689781,495
1765877534.6897972,495
1765877534.689812,496
1765877534.689821,495
1765877534.6898282,495
1765877534.6898339,495
1765877534.6898408,495
1765877534.689848,495
1765877534.689861,496
1765877534.689868,497
1765877534.689875,497
1765877534.689882,497
1765877534.689889,497
1765877534.689895,494
1765877534.689902,496
1765877534.689909,496
1765877534.689916,496
1765877534.6899352,496
1765877534.6899421,495
1765877534.689949,497
1765877534.6899562,499
1765877534.689963,496
1765877534.68997,496
1765877534.689976,492
1765877534.689983,492
1765877534.6899898,495
1765877534.689997,495
1765877534.6900039,495
1765877534.69001,495
1765877534.690017,495
1765877534.690024,496
1765877534.690031,495
1765877534.690037,494
1765877534.690044,494
1765877534.690051,493
1765877534.690058,496
1765877534.690065,496
1765877534.690071,496
1765877534.690078,495
1765877534.6900852,495
1765877534.690092,495
1765877534.6901,494
1765877534.690115,496
1765877534.690134,496
1765877534.690153,495
1765877534.6901681,494
1765877534.6901839,494
1765877534.6902,495
1765877534.6902149,493
1765877534.690231,494
1765877534.6902459,496
1765877534.690262,498
1765877534.690277,499
1765877534.690292,497
1765877534.690308,496
1765877534.6903229,496
1765877534.690339,495
1765877534.6903539,495
1765877534.6903691,496
1765877534.6903849,496
1765877534.6904,496
1765877534.690416,495
1765877534.6904309,496
1765877534.6904478,498
1765877534.690463,498
1765877534.690479,498
1765877534.690494,496
1765877534.690503,494
1765877534.69051,495
1765877534.690516,495
1765877534.6905248,495
1765877534.6905322,494
1765877534.6905391,494
1765877534.690546,494
1765877534.6905532,495
1765877534.690559,494
1765877534.6905658,495
1765877534.690573,496
1765877534.69058,496
1765877534.690586,495
1765877534.690593,494
1765877534.6906,496
1765877534.690606,498
1765877534.690613,498
1765877534.69062,501
1765877534.6906261,500
1765877534.690633,503
1765877534.69064,507
1765877534.6906471,505
1765877534.6906528,498
1765877534.69066,497
1765877534.690667,490
1765877534.6906738,488
1765877534.690681,492
1765877534.690687,493
1765877534.6906939,494
1765877534.690701,494
1765877534.690711,494
1765877534.690718,494
1765877534.690725,494
1765877534.690731,494
1765877534.690738,494
1765877534.690745,495
1765877534.690752,495
1765877534.690758,495
1765877534.6907651,495
1765877534.690772,495
1765877534.690779,495
1765877534.690785,495
1765877534.6907918,495
1765877534.690799,495
1765877534.690805,495
1765877534.6908119,495
1765877534.690819,495
1765877534.690825,495
1765877534.690832,495
1765877534.690839,496
1765877534.690845,495
1765877534.6908522,496
1765877534.690859,496
1765877534.6908648,495
1765877534.690872,496
1765877534.6908789,495
1765877534.690887,496
1765877534.6908958,495
1765877534.690902,495
1765877534.690909,497
1765877534.690916,498
1765877534.690923,498
1765877534.690929,498
1765877534.690936,494
1765877534.690943,494
1765877534.6909492,495
1765877534.690956,494
1765877534.690963,495
1765877534.6909702,495
1765877534.690976,496
1765877534.6909828,496
1765877534.69099,497
1765877534.690996,497
1765877534.6910028,495
1765877534.69101,495
1765877534.691017,496
1765877534.691023,495
1765877534.69103,495
1765877534.691037,494
1765877534.6910431,495
1765877534.69105,496
1765877534.691057,496
1765877534.691063,495
1765877534.691072,496
1765877534.691079,496
1765877534.691086,494
1765877534.691097,495
1765877534.691104,495
1765877534.69111,496
1765877534.691117,496
1765877534.691124,497
1765877534.6911309,499
1765877534.691137,500
1765877534.691144,502
1765877534.6911511,498
1765877534.691158,493
1765877534.691164,492
1765877534.6911712,493
1765877534.691178,492
1765877534.691184,494
1765877534.691191,495
1765877534.6911979,495
1765877534.691204,497
1765877534.691211,497
1765877534.691218,498
1765877534.691224,498
1765877534.691231,494
1765877534.691238,492
1765877534.691245,494
1765877534.691253,494
1765877534.6912608,494
1765877534.691267,494
1765877534.691274,495
1765877534.6912808,494
1765877534.691287,495
1765877534.691294,495
1765877534.6913002,495
1765877534.691307,495
1765877534.691314,495
1765877534.6913202,495
1765877534.691327,495
1765877534.6913338,494
1765877534.6913412,495
1765877534.691347,496
1765877534.691354,496
1765877534.691361,497
1765877534.6913679,498
1765877534.691375,497
1765877534.691381,494
1765877534.691388,496
1765877534.691395,494
1765877534.691401,492
1765877534.691408,493
1765877534.691415,494
1765877534.691421,494
1765877534.6914282,495
1765877534.691437,495
1765877534.691444,495
1765877534.6914508,495
1765877534.691458,496
1765877534.691464,495
1765877534.691471,496
1765877534.691478,496
1765877534.691484,496
1765877534.6914911,496
1765877534.691498,494
1765877534.6915042,495
1765877534.6915112,496
1765877534.691518,496
1765877534.6915252,496
1765877534.6915321,497
1765877534.6915379,496
1765877534.691545,496
1765877534.691552,495
1765877534.6915588,495
1765877534.691565,495
1765877534.691572,494
1765877534.6915789,495
1765877534.691585,496
1765877534.691592,497
1765877534.6915991,497
1765877534.691605,498
1765877534.691618,497
1765877534.691626,494
1765877534.691636,493
1765877534.691642,495
1765877534.691649,495
1765877534.6916559,498
1765877534.691663,497
1765877534.691669,498
1765877534.691676,497
1765877534.691683,497
1765877534.691689,494
1765877534.6916962,495
1765877534.691703,495
1765877534.69171,495
1765877534.6917162,496
1765877534.691723,494
1765877534.69173,492
1765877534.691736,495
1765877534.691743,496
1765877534.6917498,495
1765877534.691756,495
1765877534.691763,495
1765877534.69177,495
1765877534.691777,495
1765877534.691783,494
1765877534.69179,495
1765877534.691797,495
1765877534.691805,495
1765877534.6918132,495
1765877534.6918201,496
1765877534.691827,495
1765877534.6918342,495
1765877534.6918411,495
1765877534.6918468,495
1765877534.691854,496
1765877534.691861,496
1765877534.6918669,496
1765877534.691874,495
1765877534.691881,495
1765877534.691888,495
1765877534.691895,495
1765877534.691901,495
1765877534.6919081,495
1765877534.691915,495
1765877534.691921,495
1765877534.6919281,496
1765877534.691935,496
1765877534.691941,496
1765877534.691948,497
1765877534.6919549,498
1765877534.691961,496
1765877534.691968,496
1765877534.6919749,498
1765877534.691982,498
1765877534.69199,498
1765877534.6919968,498
1765877534.6920042,496
1765877534.692011,496
1765877534.6920168,496
1765877534.692024,496
1765877534.692031,496
1765877534.6920378,496
1765877534.692044,495
1765877534.692051,496
1765877534.692058,496
1765877534.692065,496
1765877534.692072,495
1765877534.692078,496
1765877534.692085,497
1765877534.692099,498
1765877534.6921139,497
1765877534.69213,497
1765877534.6921449,495
1765877534.692161,495
1765877534.6921759,494
1765877534.692191,495
1765877534.692207,494
1765877534.6922219,494
1765877534.692238,495
1765877534.6922529,495
1765877534.692271,495
1765877534.692288,496
1765877534.6923032,497
1765877534.692319,497
1765877534.6923342,495
1765877534.69235,493
1765877534.6923652,493
1765877534.692381,495
1765877534.692397,495
1765877534.692412,495
1765877534.692428,495
1765877534.692443,495
1765877534.692458,495
1765877534.6924741,496
1765877534.692489,495
1765877534.6925042,494
1765877534.69252,494
1765877534.692535,495
1765877534.692551,495
1765877534.692566,496
1765877534.692582,496
1765877534.692597,496
1765877534.6926131,495
1765877534.692629,496
1765877534.6926441,495
1765877534.692659,495
1765877534.692677,495
1765877534.692694,495
1765877534.6927092,494
1765877534.692725,494
1765877534.6927412,496
1765877534.692756,496
1765877534.6927722,495
1765877534.692787,495
1765877534.6928031,495
1765877534.692818,494
1765877534.692885,495
1765877534.692996,494
1765877534.693015,495
1765877534.693024,495
1765877534.6930308,494
1765877534.693038,495
1765877534.693046,495
1765877534.693053,495
1765877534.6930602,495
1765877534.693084,496
1765877534.6930938,495
1765877534.6931012,495
1765877534.693108,495
1765877534.693116,494
1765877534.693123,494
1765877534.69313,494
1765877534.6931388,495
1765877534.693147,495
1765877534.693154,495
1765877534.693161,495
1765877534.6931682,495
1765877534.693175,495
1765877534.6932218,495
1765877534.6932302,496
1765877534.693238,496
1765877534.693245,495
1765877534.693252,495
1765877534.693259,494
1765877534.693266,495
1765877534.693273,495
1765877534.69328,495
1765877534.693287,494
1765877534.693294,495
1765877534.693301,494
1765877534.6933079,495
1765877534.693315,496
1765877534.693322,495
1765877534.6933289,495
1765877534.693336,495
1765877534.693343,495
1765877534.6933498,495
1765877534.6933582,495
1765877534.693365,495
1765877534.693378,496
1765877534.693386,495
1765877534.693393,495
1765877534.6934001,495
1765877534.693407,495
1765877534.693415,495
1765877534.693422,495
1765877534.693429,495
1765877534.693436,495
1765877534.693443,495
1765877534.69345,495
1765877534.693457,495
1765877534.693464,495
1765877534.693471,494
1765877534.6934779,495
1765877534.693485,494
1765877534.693492,495
1765877534.6934998,495
1765877534.693507,495
1765877534.6935139,495
1765877534.6935208,495
1765877534.6935282,496
1765877534.693535,495
1765877534.693542,493
1765877534.69355,495
1765877534.693557,496
1765877534.693564,497
1765877534.6935732,497
1765877534.6935802,496
1765877534.6935868,496
1765877534.6935942,496
1765877534.693602,493
1765877534.693609,493
1765877534.6936162,493
1765877534.693623,494
1765877534.69363,494
1765877534.6936371,495
1765877534.693644,494
1765877534.693651,494
1765877534.69366,494
1765877534.6936681,494
1765877534.693675,495
1765877534.693682,495
1765877534.693689,495
1765877534.693704,495
1765877534.693713,495
1765877534.693728,494
1765877534.693755,494
1765877534.6937642,495
1765877534.693774,494
1765877534.693781,494
1765877534.693789,495
1765877534.6937962,495
1765877534.693805,495
1765877534.693813,495
1765877534.69382,494
1765877534.693828,495
1765877534.693835,495
1765877534.693842,496
1765877534.693849,495
1765877534.693856,495
1765877534.693863,496
1765877534.69387,496
1765877534.693877,497
1765877534.693884,497
1765877534.693892,497
1765877534.693899,496
1765877534.6939058,493
1765877534.693913,495
1765877534.69392,495
1765877534.6939268,494
1765877534.693934,494
1765877534.6939452,495
1765877534.693952,494
1765877534.693959,495
1765877534.693969,494
1765877534.6939762,495
1765877534.693983,495
1765877534.69399,495
1765877534.6939971,497
1765877534.6940072,499
1765877534.6940138,499
1765877534.6940212,498
1765877534.6940281,495
1765877534.694035,492
1765877534.6940422,493
1765877534.6940491,494
1765877534.694056,493
1765877534.6940632,494
1765877534.69407,494
1765877534.694077,495
1765877534.6940842,495
1765877534.694091,494
1765877534.694098,495
1765877534.6941051,494
1765877534.694112,494
1765877534.694119,495
1765877534.6941261,494
1765877534.694133,494
1765877534.69414,495
1765877534.694147,494
1765877534.694154,494
1765877534.694161,495
1765877534.694168,495
1765877534.694175,495
1765877534.694182,495
1765877534.69419,495
1765877534.694199,495
1765877534.694206,495
1765877534.6942132,495
1765877534.69422,494
1765877534.694227,495
1765877534.6942341,495
1765877534.694241,495
1765877534.694248,496
1765877534.694255,495
1765877534.694262,495
1765877534.694269,495
1765877534.694277,495
1765877534.694283,495
1765877534.69429,495
1765877534.694297,495
1765877534.694304,495
1765877534.6943119,495
1765877534.694319,495
1765877534.694326,495
1765877534.6943328,495
1765877534.69434,495
1765877534.694347,496
1765877534.6943538,495
1765877534.694361,496
1765877534.694368,497
1765877534.6943748,498
1765877534.694384,499
1765877534.6943932,497
1765877534.694401,493
1765877534.694407,495
1765877534.694415,496
1765877534.694422,495
1765877534.694429,494
1765877534.694436,495
1765877534.694443,494
1765877534.6944509,495
1765877534.694458,495
1765877534.694465,494
1765877534.6944718,495
1765877534.694479,495
1765877534.694486,496
1765877534.6944928,495
1765877534.6945002,495
1765877534.6945071,494
1765877534.694514,494
1765877534.6945221,495
1765877534.694529,495
1765877534.694536,494
1765877534.6945431,494
1765877534.69455,494
1765877534.694557,495
1765877534.694564,495
1765877534.694571,495
1765877534.69458,495
1765877534.694588,495
1765877534.694598,495
1765877534.694613,495
1765877534.694628,494
1765877534.694643,494
1765877534.694659,494
1765877534.694674,494
1765877534.694689,495
1765877534.694705,495
1765877534.69472,495
1765877534.694735,495
1765877534.69475,495
1765877534.694765,494
1765877534.6947799,495
1765877534.694796,495
1765877534.6948109,495
1765877534.694826,495
1765877534.6948411,495
1765877534.694856,496
1765877534.6948721,495
1765877534.694887,496
1765877534.694902,496
1765877534.694918,494
1765877534.694933,495
1765877534.6949482,495
1765877534.694963,495
1765877534.6949818,495
1765877534.694997,495
1765877534.695012,495
1765877534.6950269,495
1765877534.695043,495
1765877534.6950579,495
1765877534.695074,495
1765877534.6950889,495
1765877534.695104,495
1765877534.6951191,495
1765877534.6951349,495
1765877534.6951501,494
1765877534.695165,495
1765877534.6951811,495
1765877534.695196,495
1765877534.695211,495
1765877534.695227,495
1765877534.695242,495
1765877534.6952572,495
1765877534.695272,495
1765877534.695287,495
1765877534.695303,494
1765877534.695318,495
1765877534.695333,495
1765877534.695348,495
1765877534.695363,495
1765877534.695381,495
1765877534.6953971,495
1765877534.695412,495
1765877534.6954272,495
1765877534.695443,495
1765877534.695458,495
1765877534.695473,495
1765877534.695489,495
1765877534.695504,495
1765877534.69552,495
1765877534.6955352,495
1765877534.69555,495
1765877534.6955662,494
1765877534.695581,494
1765877534.6955972,494
1765877534.695612,495
1765877534.695628,495
1765877534.695643,495
1765877534.695659,496
1765877534.6956742,495
1765877534.695689,495
1765877534.6957052,495
1765877534.69572,495
1765877534.6957362,496
1765877534.695751,495
1765877534.695766,494
1765877534.695786,495
1765877534.695801,495
1765877534.695816,495
1765877534.695832,495
1765877534.6958468,496
1765877534.695863,496
1765877534.6958778,496
1765877534.695893,497
1765877534.695908,496
1765877534.6959229,497
1765877534.695939,496
1765877534.6959538,497
1765877534.69597,497
1765877534.6959848,497
1765877534.696,496
1765877534.6960158,496
1765877534.696032,497
1765877534.696049,496
1765877534.696067,496
1765877534.696085,496
1765877534.696104,496
1765877534.6961222,495
1765877534.69614,496
1765877534.696158,495
1765877534.69622,496
1765877534.6962361,495
1765877534.6962528,495
1765877534.696268,495
1765877534.6962812,495
1765877534.6962922,495
1765877534.696304,495
1765877534.696316,496
1765877534.696328,495
1765877534.696339,495
1765877534.696351,496
1765877534.696363,494
1765877534.6963751,495
1765877534.696386,495
1765877534.696398,495
1765877534.6964102,495
1765877534.6964211,495
1765877534.6964328,495
1765877534.696445,495
1765877534.696456,495
1765877534.6964679,495
1765877534.696479,495
1765877534.696491,495
1765877534.696503,495
1765877534.696515,495
1765877534.696526,495
1765877534.6965382,495
1765877534.69655,496
1765877534.696564,495
1765877534.696578,495
1765877534.6965911,495
1765877534.696602,495
1765877534.6966138,496
1765877534.696626,495
1765877534.696637,495
1765877534.696649,495
1765877534.696661,495
1765877534.696673,495
1765877534.6966841,495
1765877534.696696,495
1765877534.6967082,494
1765877534.6967192,495
1765877534.6967309,495
1765877534.696743,495
1765877534.696754,494
1765877534.696766,495
1765877534.696778,494
1765877534.696789,494
1765877534.696801,495
1765877534.696813,495
1765877534.696824,496
1765877534.696836,495
1765877534.696848,495
1765877534.6968598,494
1765877534.696873,495
1765877534.696888,494
1765877534.6969018,495
1765877534.696917,495
1765877534.696929,495
1765877534.69694,495
1765877534.696952,495
1765877534.696964,495
1765877534.696975,495
1765877534.696987,495
1765877534.6969988,496
1765877534.697011,495
1765877534.697022,495
1765877534.697034,495
1765877534.697046,496
1765877534.697058,495
1765877534.6970692,495
1765877534.697083,494
1765877534.6970959,495
1765877534.697108,495
1765877534.69712,495
1765877534.697132,496
1765877534.697144,495
1765877534.6971571,495
1765877534.69717,495
1765877534.697182,495
1765877534.697196,495
1765877534.697213,495
1765877534.6972249,495
1765877534.697237,495
1765877534.697249,496
1765877534.697338,495
1765877534.697355,495
1765877534.6973681,496
1765877534.697381,495
1765877534.697393,495
1765877534.697406,495
1765877534.697419,495
1765877534.697431,495
1765877534.697443,495
1765877534.6974561,495
1765877534.697469,495
1765877534.6974819,495
1765877534.697494,494
1765877534.6975071,495
1765877534.697519,494
1765877534.697531,495
1765877534.6975439,495
1765877534.697556,495
1765877534.6975691,495
1765877534.697582,495
1765877534.6975942,495
1765877534.697611,495
1765877534.697624,495
1765877534.6976361,496
1765877534.697648,495
1765877534.697661,495
1765877534.6976728,495
1765877534.697685,495
1765877534.697697,495
1765877534.697711,496
1765877534.6977239,495
1765877534.697736,495
1765877534.697748,495
1765877534.69776,495
1765877534.697772,495
1765877534.697784,494
1765877534.697797,495
1765877534.697809,494
1765877534.697821,495
1765877534.697834,494
1765877534.697846,494
1765877534.697858,495
1765877534.69787,495
1765877534.697883,495
1765877534.697897,495
1765877534.69791,495
1765877534.6979232,494
1765877534.697938,495
1765877534.697953,495
1765877534.697966,495
1765877534.697978,495
1765877534.697991,495
1765877534.698003,495
1765877534.698015,494
1765877534.698027,495
1765877534.698039,494
1765877534.698051,494
1765877534.6980631,495
1765877534.698077,494
1765877534.698089,494
1765877534.698101,495
1765877534.698113,495
1765877534.6981251,495
1765877534.698138,495
1765877534.69815,495
1765877534.6981618,495
1765877534.698175,495
1765877534.698187,495
1765877534.698199,494
1765877534.698211,494
1765877534.698223,494
1765877534.6982348,495
1765877534.698247,495
1765877534.698261,495
1765877534.698276,495
1765877534.698289,495
1765877534.6983008,494
1765877534.698313,495
1765877534.698325,495
1765877534.698337,495
1765877534.698352,495
1765877534.698364,496
1765877534.698376,495
1765877534.6983879,495
1765877534.698401,495
1765877534.6984131,494
1765877534.698425,496
1765877534.6984372,495
1765877534.698449,495
1765877534.698464,495
1765877534.698476,495
1765877534.698487,495
1765877534.698499,495
1765877534.6985118,494
1765877534.698526,495
1765877534.69854,495
1765877534.6985521,495
1765877534.698564,495
1765877534.698576,495
1765877534.69859,495
1765877534.698603,495
1765877534.698615,494
1765877534.698627,495
1765877534.6986392,495
1765877534.6986508,494
1765877534.698663,495
1765877534.698675,495
1765877534.698687,495
1765877534.6987,496
1765877534.698712,495
1765877534.698724,496
1765877534.6987362,495
1765877534.6987479,495
1765877534.69876,495
1765877534.698772,493
1765877534.698784,493
1765877534.698796,494
1765877534.698808,495
1765877534.69882,495
1765877534.6988318,494
1765877534.698844,495
1765877534.6988559,495
1765877534.698868,494
1765877534.69888,494
1765877534.698892,495
1765877534.6989079,495
1765877534.698928,495
1765877534.698941,495
1765877534.6989539,495
1765877534.698966,495
1765877534.6989791,495
1765877534.698991,495
1765877534.699003,494
1765877534.699015,495
1765877534.699027,495
1765877534.699039,495
1765877534.699051,495
1765877534.699064,495
1765877534.6990762,495
1765877534.6990879,495
1765877534.6991,495
1765877534.699112,495
1765877534.6991239,495
1765877534.699136,495
1765877534.6991491,495
1765877534.699163,495
1765877534.699175,495
1765877534.699189,495
1765877534.699201,495
1765877534.699213,495
1765877534.6992252,495
1765877534.699239,496
1765877534.6992562,495
1765877534.6992698,495
1765877534.699282,495
1765877534.6992939,495
1765877534.69931,494
1765877534.699324,495
1765877534.699336,495
1765877534.699348,495
1765877534.69936,495
1765877534.699372,495
1765877534.699384,496
1765877534.6993961,496
1765877534.699409,496
1765877534.699421,496
1765877534.6994328,495
1765877534.699445,494
1765877534.699457,494
1765877534.699469,494
1765877534.699481,495
1765877534.6994932,495
1765877534.6995049,495
1765877534.699518,495
1765877534.69953,495
1765877534.699542,495
1765877534.699554,495
1765877534.699568,494
1765877534.699584,495
1765877534.6995971,494
1765877534.699609,495
1765877534.6996212,495
1765877534.699633,495
1765877534.699645,495
1765877534.699657,495
1765877534.69967,495
1765877534.699682,494
1765877534.6996942,495
1765877534.699706,494
1765877534.699718,495
1765877534.699729,495
1765877534.699741,495
1765877534.699753,495
1765877534.699764,495
1765877534.699776,495
1765877534.699788,494
1765877534.699799,495
1765877534.699811,495
1765877534.6998231,495
1765877534.699837,495
1765877534.699849,495
1765877534.699861,495
1765877534.699873,495
1765877534.699887,495
1765877534.6999009,495
1765877534.699913,495
1765877534.699925,495
1765877534.699937,495
1765877534.699949,495
1765877534.6999621,495
1765877534.699976,495
1765877534.69999,495
1765877534.700002,495
1765877534.700016,494
1765877534.700029,494
1765877534.700043,494
1765877534.7000551,495
1765877534.700068,495
1765877534.7000809,495
1765877534.700093,495
1765877534.700105,495
1765877534.700117,495
1765877534.700129,495
1765877534.700141,495
1765877534.700153,495
1765877534.700165,495
1765877534.700177,495
1765877534.70019,495
1765877534.700202,495
1765877534.700215,495
1765877534.70023,496
1765877534.700244,495
1765877534.700256,495
1765877534.700268,495
1765877534.70028,495
1765877534.700292,495
1765877534.7003038,496
1765877534.700316,495
1765877534.7003279,495
1765877534.70034,495
1765877534.700352,495
1765877534.700364,495
1765877534.700376,495
1765877534.7003882,495
1765877534.7003992,495
1765877534.7004108,495
1765877534.700423,495
1765877534.700435,495
1765877534.700446,496
1765877534.700458,495
1765877534.700476,496
1765877534.70049,496
1765877534.700502,497
1765877534.700514,497
1765877534.700526,496
1765877534.7005398,495
1765877534.700555,496
1765877534.700568,497
1765877534.7005801,496
1765877534.700592,496
1765877534.700605,496
1765877534.700617,496
1765877534.700629,496
1765877534.700641,496
1765877534.700653,496
1765877534.7006662,496
1765877534.7006779,496
1765877534.70069,495
1765877534.700702,495
1765877534.7007139,496
1765877534.700726,495
1765877534.700738,495
1765877534.70075,495
1765877534.700763,495
1765877534.700775,495
1765877534.7007868,495
1765877534.700799,495
1765877534.700811,495
1765877534.700824,495
1765877534.7008379,495
1765877534.70085,495
1765877534.700865,495
1765877534.700879,495
1765877534.7008939,495
1765877534.700906,495
1765877534.700918,495
1765877534.70093,495
1765877534.700942,494
1765877534.700955,495
1765877534.7009668,495
1765877534.700979,494
1765877534.700991,495
1765877534.701003,495
1765877534.701015,495
1765877534.7010272,494
1765877534.70104,494
1765877534.701052,495
1765877534.7010639,495
1765877534.701076,494
1765877534.701088,494
1765877534.7011,494
1765877534.701112,494
1765877534.7011242,494
1765877534.7011368,494
1765877534.7011478,494
1765877534.701161,495
1765877534.701173,495
1765877534.701186,495
1765877534.701201,494
1765877534.701213,494
1765877534.701225,495
1765877534.701237,495
1765877534.7012491,495
1765877534.701262,494
1765877534.7012742,495
1765877534.7012858,495
1765877534.701298,495
1765877534.70131,495
1765877534.701322,496
1765877534.701334,495
1765877534.7013462,495
1765877534.701358,494
1765877534.70137,493
1765877534.701382,494
1765877534.7013938,494
1765877534.701406,494
1765877534.701418,494
1765877534.701431,494
1765877534.701443,494
1765877534.701455,494
1765877534.7014668,495
1765877534.701479,495
1765877534.7014909,494
1765877534.701504,495
1765877534.701519,495
1765877534.701532,495
1765877534.701545,495
1765877534.701557,495
1765877534.701569,495
1765877534.70158,494
1765877534.701592,494
1765877534.7016041,494
1765877534.701615,494
1765877534.7016268,494
1765877534.70164,494
1765877534.701654,495
1765877534.701668,495
1765877534.701681,496
1765877534.701694,495
1765877534.701706,494
1765877534.701718,494
1765877534.70173,494
1765877534.7017422,495
1765877534.701754,495
1765877534.7017658,495
1765877534.701778,495
1765877534.7017899,494
1765877534.701802,495
1765877534.701814,495
1765877534.701828,494
1765877534.7018418,495
1765877534.701855,495
1765877534.701867,496
1765877534.701879,495
1765877534.7018912,495
1765877534.701903,494
1765877534.701917,494
1765877534.70193,494
1765877534.701942,494
1765877534.702035,494
1765877534.702053,494
1765877534.702069,494
1765877534.702086,494
1765877534.702102,495
1765877534.702118,495
1765877534.702133,494
1765877534.7021492,495
1765877534.702165,495
1765877534.7021801,495
1765877534.702196,495
1765877534.7022111,495
1765877534.7022269,494
1765877534.7022421,494
1765877534.7022579,494
1765877534.702274,494
1765877534.702292,494
1765877534.7023091,495
1765877534.702325,495
1765877534.7023401,495
1765877534.7023559,495
1765877534.702372,494
1765877534.7023869,495
1765877534.702403,494
1765877534.7024179,494
1765877534.702434,495
1765877534.70245,494
1765877534.702465,495
1765877534.7024808,495
1765877534.702497,495
1765877534.702515,495
1765877534.7025301,495
1765877534.702546,494
1765877534.702562,494
1765877534.7025778,493
1765877534.702593,493
1765877534.7026088,494
1765877534.702625,495
1765877534.702641,496
1765877534.702656,495
1765877534.7026718,495
1765877534.702687,495
1765877534.702705,495
1765877534.702724,495
1765877534.70274,496
1765877534.702755,495
1765877534.702771,495
1765877534.7027872,495
1765877534.702802,495
1765877534.7028182,494
1765877534.702833,495
1765877534.702849,494
1765877534.702864,493
1765877534.70288,494
1765877534.7028952,494
1765877534.702911,494
1765877534.7029262,493
1765877534.702942,494
1765877534.702958,494
1765877534.702973,495
1765877534.702989,497
1765877534.703004,495
1765877534.70302,494
1765877534.7030349,494
1765877534.703051,495
1765877534.703066,495
1765877534.703082,495
1765877534.703097,495
1765877534.703113,495
1765877534.703135,495
1765877534.70315,494
1765877534.703166,494
1765877534.703182,494
1765877534.703197,494
1765877534.703213,495
1765877534.703229,494
1765877534.7032452,494
1765877534.70326,493
1765877534.703276,493
1765877534.703291,493
1765877534.703306,493
1765877534.7033222,496
1765877534.703337,496
1765877534.7033532,496
1765877534.703368,496
1765877534.7033842,496
1765877534.7034,494
1765877534.7034152,495
1765877534.703431,495
1765877534.703446,495
1765877534.703462,496
1765877534.703477,495
1765877534.703493,494
1765877534.703508,494
1765877534.703524,494
1765877534.703543,495
1765877534.703562,495
1765877534.703585,495
1765877534.7035992,496
1765877534.7036061,495
1765877534.703613,495
1765877534.7036202,494
1765877534.703627,495
1765877534.703635,496
1765877534.7036421,495
1765877534.703649,495
1765877534.703656,495
1765877534.703663,495
1765877534.70367,495
1765877534.703677,494
1765877534.703685,495
1765877534.703692,495
1765877534.7036989,494
1765877534.703706,495
1765877534.703713,495
1765877534.703721,495
1765877534.7037282,494
1765877534.703735,494
1765877534.703742,494
1765877534.7037492,495
1765877534.703756,495
1765877534.703765,495
1765877534.703774,495
1765877534.7037818,496
1765877534.703789,494
1765877534.703796,494
1765877534.7038028,494
1765877534.70381,494
1765877534.703817,494
1765877534.703825,494
1765877534.7038321,495
1765877534.703839,494
1765877534.703847,495
1765877534.703854,494
1765877534.703861,494
1765877534.703868,495
1765877534.703875,494
1765877534.703882,495
1765877534.703889,494
1765877534.703896,495
1765877534.703903,495
1765877534.7039108,495
1765877534.703918,495
1765877534.703925,495
1765877534.7039318,495
1765877534.703939,494
1765877534.703983,495
1765877534.703991,495
1765877534.704034,495
1765877534.704042,495
1765877534.7040498,493
1765877534.704057,494
1765877534.704064,494
1765877534.7040708,495
1765877534.7040782,495
1765877534.7040849,495
1765877534.704093,495
1765877534.7041001,494
1765877534.704107,495
1765877534.704114,495
1765877534.7041879,495
1765877534.7041962,495
1765877534.704203,494
1765877534.7042098,494
1765877534.7042172,493
1765877534.704224,494
1765877534.704244,494
1765877534.7042592,494
1765877534.704266,495
1765877534.704273,495
1765877534.7042801,494
1765877534.704289,495
1765877534.7042959,495
1765877534.704306,495
1765877534.704314,495
1765877534.704321,495
1765877534.704329,495
1765877534.704336,495
1765877534.704343,495
1765877534.704351,495
1765877534.7043579,495
1765877534.704365,496
1765877534.704373,495
1765877534.704381,495
1765877534.7043881,495
1765877534.704396,495
1765877534.704403,495
1765877534.7044108,494
1765877534.704418,495
1765877534.704426,494
1765877534.704433,495
1765877534.704441,495
1765877534.704448,496
1765877534.7044559,496
1765877534.704464,496
1765877534.704471,495
1765877534.704479,495
1765877534.704486,495
1765877534.704494,496
1765877534.704502,495
1765877534.704511,495
1765877534.70452,494
1765877534.7045279,495
1765877534.704536,495
1765877534.7045429,495
1765877534.704551,494
1765877534.7045581,495
1765877534.704566,494
1765877534.704573,494
1765877534.704581,495
1765877534.704588,495
1765877534.704596,495
1765877534.704603,495
1765877534.704611,496
1765877534.704618,495
1765877534.7046258,495
1765877534.7046342,494
1765877534.704641,495
1765877534.704649,495
1765877534.704656,496
1765877534.704664,496
1765877534.704671,496
1765877534.704679,496
1765877534.704693,496
1765877534.7047,496
1765877534.704708,496
1765877534.7047172,497
1765877534.704725,497
1765877534.704733,497
1765877534.70474,497
1765877534.704748,496
1765877534.7047548,497
1765877534.704763,496
1765877534.70477,495
1765877534.704778,495
1765877534.7047849,496
1765877534.704793,495
1765877534.7048,495
1765877534.704808,496
1765877534.7048151,495
1765877534.704823,495
1765877534.70483,495
1765877534.704837,495
1765877534.704845,495
1765877534.7048519,496
1765877534.70486,495
1765877534.7048671,495
1765877534.704875,495
1765877534.704882,495
1765877534.70489,495
1765877534.704897,495
1765877534.704905,495
1765877534.704912,495
1765877534.704921,495
1765877534.70493,495
1765877534.704938,496
1765877534.7049448,495
1765877534.704952,496
1765877534.70496,495
1765877534.704968,496
1765877534.7049751,495
1765877534.704983,495
1765877534.7049909,495
1765877534.7049978,495
1765877534.7050061,495
1765877534.705013,496
1765877534.705021,495
1765877534.705028,495
1765877534.705036,496
1765877534.7050428,495
1765877534.705051,495
1765877534.705058,496
1765877534.705066,495
1765877534.7050729,495
1765877534.705081,495
1765877534.705088,495
1765877534.705096,495
1765877534.7051032,495
1765877534.705111,495
1765877534.705118,496
1765877534.705128,495
1765877534.705137,495
1765877534.7051442,495
1765877534.705151,495
1765877534.705159,495
1765877534.705166,495
1765877534.705174,495
1765877534.705181,495
1765877534.7051892,496
1765877534.705197,495
1765877534.705204,495
1765877534.7052119,495
1765877534.705219,495
1765877534.705227,495
1765877534.7052338,495
1765877534.7052422,495
1765877534.705249,495
1765877534.705257,495
1765877534.705264,495
1765877534.705272,496
1765877534.70528,495
1765877534.705287,495
1765877534.705295,495
1765877534.705302,496
1765877534.7053099,495
1765877534.705317,494
1765877534.705326,495
1765877534.7053351,496
1765877534.705343,495
1765877534.70535,496
1765877534.705358,495
1765877534.705365,496
1765877534.7053728,495
1765877534.7053802,495
1765877534.705388,495
1765877534.705395,495
1765877534.7054029,495
1765877534.70541,496
1765877534.7054179,495
1765877534.7054248,496
1765877534.7054331,495
1765877534.70544,495
1765877534.705448,496
1765877534.705455,496
1765877534.705463,495
1765877534.7054698,496
1765877534.705478,496
1765877534.705485,495
1765877534.705493,495
1765877534.7055,496
1765877534.705508,495
1765877534.705515,495
1765877534.705523,495
1765877534.7055318,495
1765877534.7055411,495
1765877534.705549,495
1765877534.705556,496
1765877534.705564,495
1765877534.7055712,496
1765877534.705579,495
1765877534.705586,496
1765877534.705594,496
1765877534.705601,495
1765877534.7056088,495
1765877534.7056158,495
1765877534.705624,495
1765877534.705631,495
1765877534.705639,496
1765877534.705646,496
1765877534.705654,495
1765877534.7056608,495
1765877534.7056692,495
1765877534.705676,495
1765877534.705684,495
1765877534.7056918,496
1765877534.705699,495
1765877534.705707,495
1765877534.705714,495
1765877534.705722,495
1765877534.705729,495
1765877534.705738,495
1765877534.705746,495
1765877534.705753,495
1765877534.705761,495
1765877534.7057679,495
1765877534.7057762,495
1765877534.705784,495
1765877534.705791,495
1765877534.705798,495
1765877534.705806,495
1765877534.705813,495
1765877534.705821,495
1765877534.7058291,495
1765877534.705837,495
1765877534.7058449,495
1765877534.7058518,495
1765877534.7058601,495
1765877534.705867,496
1765877534.705875,495
1765877534.705882,495
1765877534.70589,496
1765877534.7058969,495
1765877534.705905,495
1765877534.705912,496
1765877534.70592,495
1765877534.705933,495
1765877534.7059479,495
1765877534.705962,495
1765877534.705975,495
1765877534.7059882,495
1765877534.7060008,495
1765877534.706014,495
1765877534.706027,495
1765877534.706039,495
1765877534.706052,495
1765877534.706065,494
1765877534.706078,495
1765877534.70609,495
1765877534.706103,495
1765877534.7061172,495
1765877534.70613,495
1765877534.706143,495
1765877534.706156,496
1765877534.7061691,496
1765877534.706182,495
1765877534.7061949,495
1765877534.706208,495
1765877534.7062201,495
1765877534.706233,495
1765877534.7062469,495
1765877534.70626,494
1765877534.706272,495
1765877534.7062871,495
1765877534.706302,495
1765877534.706314,495
1765877534.706327,496
1765877534.706344,496
1765877534.706357,495
1765877534.706369,496
1765877534.706382,495
1765877534.706395,495
1765877534.706408,495
1765877534.706421,495
1765877534.706434,495
1765877534.7064471,495
1765877534.70646,495
1765877534.706472,495
1765877534.706485,495
1765877534.7064981,495
1765877534.706511,496
1765877534.7065248,496
1765877534.706537,496
1765877534.7065501,496
1765877534.706563,496
1765877534.7065759,495
1765877534.706589,495
1765877534.706602,495
1765877534.706615,494
1765877534.706628,495
1765877534.706646,495
1765877534.706659,496
1765877534.7066722,495
1765877534.7066848,495
1765877534.706698,495
1765877534.706711,496
1765877534.7067242,495
1765877534.7067368,496
1765877534.70675,495
1765877534.706763,495
1765877534.7067761,495
1765877534.706788,495
1765877534.706801,495
1765877534.706814,495
1765877534.706827,495
1765877534.70693,495
1765877534.706944,495
1765877534.7069561,495
1765877534.706969,495
1765877534.706982,496
1765877534.706995,495
1765877534.707008,495
1765877534.707021,496
1765877534.707034,495
1765877534.707047,495
1765877534.7070599,495
1765877534.707077,495
1765877534.70709,495
1765877534.707103,495
1765877534.7071161,495
1765877534.707129,495
1765877534.7071419,495
1765877534.707154,495
1765877534.707167,495
1765877534.7071848,494
1765877534.707198,494
1765877534.707211,495
1765877534.7072241,495
1765877534.707237,495
1765877534.7072499,495
1765877534.707263,495
1765877534.707275,495
1765877534.707288,495
1765877534.7073011,495
1765877534.707314,495
1765877534.707327,495
1765877534.70734,495
1765877534.707353,495
1765877534.707366,495
1765877534.7073789,496
1765877534.707387,495
1765877534.707395,495
1765877534.707406,495
1765877534.707414,495
1765877534.7074208,495
1765877534.7074292,495
1765877534.707436,496
1765877534.707444,496
1765877534.7074509,495
1765877534.707459,496
1765877534.707466,495
1765877534.707474,496
1765877534.7074811,496
1765877534.707489,495
1765877534.707496,496
1765877534.707504,495
1765877534.707511,495
1765877534.707519,496
1765877534.707526,496
1765877534.707534,495
1765877534.707541,496
1765877534.707548,495
1765877534.707556,494
1765877534.707563,495
1765877534.707571,495
1765877534.707579,494
1765877534.707586,494
1765877534.707594,494
1765877534.707603,495
1765877534.7076108,496
1765877534.7076192,496
1765877534.7076259,496
1765877534.707634,496
1765877534.7076411,496
1765877534.707649,495
1765877534.707656,495
1765877534.7076638,495
1765877534.707672,495
1765877534.707679,495
1765877534.707687,495
1765877534.707695,495
1765877534.707703,496
1765877534.707711,495
1765877534.707718,495
1765877534.707726,495
1765877534.707733,495
1765877534.707741,495
1765877534.7077482,495
1765877534.707755,495
1765877534.707763,495
1765877534.70777,495
1765877534.707778,496
1765877534.707785,495
1765877534.707793,496
1765877534.7078001,495
1765877534.7078102,495
1765877534.707817,495
1765877534.707825,495
1765877534.707832,495
1765877534.70784,495
1765877534.7078478,495
1765877534.707855,496
1765877534.707863,496
1765877534.70787,496
1765877534.7078779,495
1765877534.707886,495
1765877534.707893,495
1765877534.7078998,496
1765877534.7079082,496
1765877534.707915,497
1765877534.707923,496
1765877534.70793,495
1765877534.707959,496
1765877534.7079659,497
1765877534.707974,497
1765877534.707981,496
1765877534.707989,497
1765877534.707996,497
1765877534.708004,496
1765877534.708011,496
1765877534.708019,496
1765877534.708033,496
1765877534.708041,496
1765877534.7080488,496
1765877534.708056,496
1765877534.708064,495
1765877534.708071,496
1765877534.7080781,495
1765877534.7080908,495
1765877534.708098,496
1765877534.708106,495
1765877534.708114,495
1765877534.708121,495
1765877534.708129,495
1765877534.7081358,495
1765877534.7081442,495
1765877534.708151,495
1765877534.708159,495
1765877534.708166,495
1765877534.708174,496
1765877534.708181,496
1765877534.708189,495
1765877534.7081962,496
1765877534.708204,496
1765877534.708211,495
1765877534.7082188,495
1765877534.7082272,496
1765877534.708234,495
1765877534.708243,495
1765877534.708252,495
1765877534.708259,495
1765877534.708267,496
1765877534.708274,495
1765877534.708282,495
1765877534.708289,495
1765877534.708297,495
1765877534.708304,495
1765877534.708312,496
1765877534.708319,495
1765877534.7083268,495
1765877534.708334,495
1765877534.708342,496
1765877534.708349,495
1765877534.708357,495
1765877534.708365,495
1765877534.7083719,495
1765877534.7083788,496
1765877534.7083871,496
1765877534.708394,495
1765877534.708402,495
1765877534.70841,496
1765877534.708417,494
1765877534.708425,495
1765877534.708432,495
1765877534.708441,495
1765877534.7084491,494
1765877534.708457,495
1765877534.7084649,495
1765877534.708472,495
1765877534.70848,495
1765877534.7084868,495
1765877534.7084951,495
1765877534.708502,495
1765877534.70851,495
1765877534.708517,495
1765877534.708525,496
1765877534.7085319,496
1765877534.70854,495
1765877534.708547,495
1765877534.708555,495
1765877534.708562,495
1765877534.70857,495
1765877534.708577,495
1765877534.708585,495
1765877534.7085922,496
1765877534.7086,495
1765877534.708607,495
1765877534.7086148,495
1765877534.7086232,496
1765877534.708632,495
1765877534.708645,495
1765877534.708661,495
1765877534.708674,495
1765877534.708687,495
1765877534.7087,495
1765877534.708713,496
1765877534.7087271,495
1765877534.70874,496
1765877534.7087529,495
1765877534.708766,496
1765877534.708779,496
1765877534.708792,495
1765877534.708805,495
1765877534.708818,495
1765877534.708831,496
1765877534.708844,496
1765877534.708857,496
1765877534.70887,497
1765877534.708883,495
1765877534.708896,495
1765877534.708909,495
1765877534.7089221,495
1765877534.708935,495
1765877534.708948,495
1765877534.708961,496
1765877534.7089741,495
1765877534.708987,496
1765877534.709003,495
1765877534.709016,496
1765877534.7090292,496
1765877534.7090418,495
1765877534.709055,495
1765877534.7090719,495
1765877534.709085,495
1765877534.709098,495
1765877534.70911,495
1765877534.709118,496
1765877534.709126,495
1765877534.7091331,495
1765877534.709141,496
1765877534.709148,495
1765877534.709156,495
1765877534.709163,496
1765877534.709171,496
1765877534.7091782,495
1765877534.709186,496
1765877534.709193,495
1765877534.7092009,495
1765877534.709208,495
1765877534.709216,495
1765877534.7092228,496
1765877534.7092311,496
1765877534.709238,496
1765877534.709248,495
1765877534.709257,496
1765877534.7092638,495
1765877534.709271,496
1765877534.709279,495
1765877534.709286,495
1765877534.709294,495
1765877534.709302,496
1765877534.7093089,496
1765877534.7093172,496
1765877534.7093241,496
1765877534.709332,495
1765877534.7093399,495
1765877534.709347,495
1765877534.709355,495
1765877534.709362,495
1765877534.7093701,495
1765877534.709377,495
1765877534.709385,496
1765877534.7093918,495
1765877534.709399,496
1765877534.709407,496
1765877534.709414,496
1765877534.709422,496
1765877534.709429,495
1765877534.709443,495
1765877534.70945,495
1765877534.70946,495
1765877534.709468,495
1765877534.709476,495
1765877534.709483,496
1765877534.709491,496
1765877534.7094982,496
1765877534.709506,495
1765877534.709513,496
1765877534.7095208,496
1765877534.709528,496
1765877534.709536,495
1765877534.709543,496
1765877534.709551,496
1765877534.709558,496
1765877534.7095659,496
1765877534.709573,497
1765877534.7095811,497
1765877534.709588,496
1765877534.709595,495
1765877534.709603,494
1765877534.70961,495
1765877534.7096179,495
1765877534.7096288,495
1765877534.7096362,495
1765877534.709644,495
1765877534.709651,496
1765877534.709661,496
1765877534.7096698,495
1765877534.709677,496
1765877534.709685,495
1765877534.709692,495
1765877534.7097,495
1765877534.709707,495
1765877534.709715,496
1765877534.709722,495
1765877534.7097301,495
1765877534.709737,496
1765877534.709748,495
1765877534.709756,496
1765877534.709763,495
1765877534.709771,495
1765877534.7097778,496
1765877534.7097862,496
1765877534.709793,496
1765877534.709801,496
1765877534.709808,496
1765877534.709816,495
1765877534.709823,495
1765877534.709831,495
1765877534.7098382,496
1765877534.709846,495
1765877534.709853,495
1765877534.709861,496
1765877534.709871,495
1765877534.709879,495
1765877534.7098858,495
1765877534.709894,495
1765877534.709901,495
1765877534.709909,495
1765877534.709926,495
1765877534.709934,496
1765877534.709942,496
1765877534.709949,495
1765877534.7099562,496
1765877534.709964,495
1765877534.709971,496
1765877534.7099788,496
1765877534.709986,497
1765877534.709997,496
1765877534.7100039,496
1765877534.710012,496
1765877534.710019,496
1765877534.710026,496
1765877534.710034,496
1765877534.710041,495
1765877534.710049,495
1765877534.7100558,495
1765877534.7100642,495
1765877534.710071,496
1765877534.710081,495
1765877534.71009,495
1765877534.7100968,495
1765877534.7101052,496
1765877534.710112,495
1765877534.71012,495
1765877534.710127,495
1765877534.710135,495
1765877534.710142,496
1765877534.710149,495
1765877534.7101572,496
1765877534.710164,496
1765877534.710172,498
1765877534.710179,498
1765877534.710187,497
1765877534.7101939,495
1765877534.7102022,494
1765877534.7102091,494
1765877534.710217,496
1765877534.710224,495
1765877534.710232,494
1765877534.710239,493
1765877534.7102468,493
1765877534.7102568,494
1765877534.7102652,494
1765877534.710272,495
1765877534.710282,495
1765877534.71029,495
1765877534.710298,495
1765877534.710305,495
1765877534.7103128,495
1765877534.7103202,495
1765877534.710329,495
1765877534.710337,495
1765877534.7103438,495
1765877534.710352,495
1765877534.710359,495
1765877534.710367,495
1765877534.7103739,495
1765877534.710382,496
1765877534.710389,496
1765877534.710398,496
1765877534.710405,497
1765877534.7104928,497
1765877534.710502,497
1765877534.710509,496
1765877534.710517,495
1765877534.710562,495
1765877534.710606,494
1765877534.710616,494
1765877534.710624,493
1765877534.7106318,493
1765877534.710639,494
1765877534.7106502,494
1765877534.710659,494
1765877534.710666,495
1765877534.7106738,495
1765877534.7106829,495
1765877534.710691,495
1765877534.710699,496
1765877534.710706,496
1765877534.7107131,496
1765877534.710721,496
1765877534.710728,496
1765877534.7107358,495
1765877534.710743,497
1765877534.710751,497
1765877534.710758,495
1765877534.710766,495
1765877534.710774,495
1765877534.7107809,496
1765877534.7107892,495
1765877534.710796,495
1765877534.710804,495
1765877534.710811,495
1765877534.710819,495
1765877534.710826,495
1765877534.7108328,495
1765877534.7108412,495
1765877534.710851,495
1765877534.71086,495
1765877534.710869,494
1765877534.710882,495
1765877534.710895,495
1765877534.710908,496
1765877534.710921,495
1765877534.710934,495
1765877534.710947,496
1765877534.7109601,495
1765877534.710973,495
1765877534.710985,496
1765877534.7109928,496
1765877534.711,495
1765877534.711008,496
1765877534.711015,496
1765877534.711023,495
1765877534.711031,496
1765877534.711039,497
1765877534.711046,496
1765877534.7110558,497
1765877534.711064,497
1765877534.711072,497
1765877534.711079,496
1765877534.711087,496
1765877534.711095,496
1765877534.711102,497
1765877534.7111108,497
1765877534.71112,496
1765877534.711127,497
1765877534.711135,498
1765877534.7111418,496
1765877534.7111502,497
1765877534.711158,496
1765877534.711165,496
1765877534.711173,495
1765877534.71118,495
1765877534.711187,496
1765877534.711196,496
1765877534.711204,496
1765877534.711211,496
1765877534.7112188,496
1765877534.7112262,495
1765877534.711234,495
1765877534.711241,495
1765877534.7112489,495
1765877534.711256,495
1765877534.711264,496
1765877534.7112708,496
1765877534.7112792,495
1765877534.711287,496
1765877534.711294,496
1765877534.7113018,496
1765877534.711311,496
1765877534.711321,495
1765877534.711328,495
1765877534.711353,494
1765877534.7113621,496
1765877534.711369,495
1765877534.711377,496
1765877534.711384,496
1765877534.711392,496
1765877534.7114,496
1765877534.7114072,496
1765877534.711414,495
1765877534.711422,495
1765877534.711429,496
1765877534.711437,495
1765877534.711444,496
1765877534.711452,496
1765877534.71146,496
1765877534.711467,495
1765877534.711474,495
1765877534.711482,495
1765877534.711489,495
1765877534.711497,495
1765877534.711504,495
1765877534.71152,496
1765877534.7115269,496
1765877534.7115352,495
1765877534.711544,495
1765877534.711553,495
1765877534.71156,495
1765877534.7115679,495
1765877534.711575,495
1765877534.711583,495
1765877534.7115898,495
1765877534.7115982,495
1765877534.711605,495
1765877534.711613,495
1765877534.71162,495
1765877534.711628,495
1765877534.7116349,495
1765877534.711643,495
1765877534.7116501,495
1765877534.711658,495
1765877534.7116659,495
1765877534.711673,496
1765877534.7116811,496
1765877534.711688,495
1765877534.711696,495
1765877534.711703,495
1765877534.711711,495
1765877534.7117178,495
1765877534.7117262,496
1765877534.711733,496
1765877534.711741,495
1765877534.711751,495
1765877534.711759,496
1765877534.711766,495
1765877534.7117739,496
1765877534.711781,495
1765877534.7117891,495
1765877534.711796,496
1765877534.711804,495
1765877534.711811,496
1765877534.711819,495
1765877534.7118258,495
1765877534.7118342,495
1765877534.711841,495
1765877534.711849,495
1765877534.7118568,496
1765877534.711864,495
1765877534.711872,495
1765877534.711879,496
1765877534.7118871,496
1765877534.711895,495
1765877534.711902,495
1765877534.711912,495
1765877534.711979,496
1765877534.711991,495
1765877534.712003,495
1765877534.7120142,495
1765877534.7120278,495
1765877534.71204,495
1765877534.712051,495
1765877534.712062,496
1765877534.712074,496
1765877534.712085,495
1765877534.712096,496
1765877534.712107,495
1765877534.712118,495
1765877534.712129,496
1765877534.712141,496
1765877534.712152,495
1765877534.712163,495
1765877534.712196,495
1765877534.7122078,495
1765877534.7122188,495
1765877534.71223,495
1765877534.712241,496
1765877534.712252,496
1765877534.7122629,496
1765877534.712287,496
1765877534.712299,496
1765877534.712311,495
1765877534.712322,495
1765877534.7123342,496
1765877534.7123451,495
1765877534.712359,496
1765877534.7123709,495
1765877534.7123818,496
1765877534.712393,495
1765877534.712404,495
1765877534.712415,495
1765877534.712426,496
1765877534.712437,495
1765877534.712448,495
1765877534.71246,495
1765877534.712471,495
1765877534.712482,495
1765877534.712493,495
1765877534.7125041,495
1765877534.712515,495
1765877534.712526,496
1765877534.712537,495
1765877534.712575,496
1765877534.712587,496
1765877534.712598,495
1765877534.712609,496
1765877534.71262,495
1765877534.712631,495
1765877534.712642,496
1765877534.712654,495
1765877534.712665,495
1765877534.712678,495
1765877534.7126899,495
1765877534.712702,496
1765877534.712713,495
1765877534.712724,495
1765877534.712735,495
1765877534.712746,495
1765877534.712757,495
1765877534.712768,495
1765877534.712779,495
1765877534.71279,496
1765877534.712802,495
1765877534.7128131,495
1765877534.712824,495
1765877534.712835,495
1765877534.712846,496
1765877534.712857,495
1765877534.7128692,496
1765877534.7128801,496
1765877534.7128909,496
1765877534.7129018,495
1765877534.7129128,495
1765877534.712924,495
1765877534.712935,496
1765877534.712946,496
1765877534.712957,496
1765877534.7129679,495
1765877534.712982,496
1765877534.712993,495
1765877534.713004,495
1765877534.713015,495
1765877534.713026,495
1765877534.713037,495
1765877534.713048,495
1765877534.7130592,495
1765877534.7130702,495
1765877534.7130811,495
1765877534.713092,495
1765877534.713103,496
1765877534.713114,495
1765877534.7131252,496
1765877534.7131362,495
1765877534.713147,495
1765877534.7131588,495
1765877534.7131689,495
1765877534.7131798,496
1765877534.7131908,495
1765877534.7131991,496
1765877534.713207,495
1765877534.7132149,495
1765877534.713223,496
1765877534.713231,495
1765877534.713239,496
1765877534.713249,495
1765877534.713258,495
1765877534.713266,495
1765877534.713274,496
1765877534.713282,496
1765877534.71329,496
1765877534.7132978,495
1765877534.7133062,495
1765877534.713314,495
1765877534.713322,496
1765877534.71333,495
1765877534.7133389,496
1765877534.713347,495
1765877534.7133539,495
1765877534.713362,495
1765877534.71337,496
1765877534.713378,496
1765877534.713386,495
1765877534.7133949,496
1765877534.713403,495
1765877534.713411,495
1765877534.713419,496
1765877534.7134268,496
1765877534.713435,496
1765877534.713443,495
1765877534.713451,496
1765877534.713461,496
1765877534.71347,495
1765877534.7134778,495
1765877534.7134862,495
1765877534.713494,495
1765877534.713502,495
1765877534.7135098,495
1765877534.7135181,495
1765877534.713526,495
1765877534.7135339,495
1765877534.713542,495
1765877534.71355,495
1765877534.713558,495
1765877534.713566,496
1765877534.713574,495
1765877534.713582,495
1765877534.71359,496
1765877534.713598,495
1765877534.7136059,495
1765877534.713614,495
1765877534.713622,495
1765877534.71363,496
1765877534.7136378,495
1765877534.7136462,496
1765877534.713654,495
1765877534.713662,495
1765877534.7136698,495
1765877534.7136798,495
1765877534.713689,495
1765877534.713697,496
1765877534.713705,495
1765877534.713713,495
1765877534.713721,495
1765877534.7137291,495
1765877534.713737,496
1765877534.7137449,496
1765877534.713753,496
1765877534.713761,496
1765877534.713769,496
1765877534.7137768,495
1765877534.7137852,496
1765877534.713793,496
1765877534.713801,495
1765877534.713809,495
1765877534.7138171,495
1765877534.713826,495
1765877534.713834,495
1765877534.713842,495
1765877534.71385,496
1765877534.7138581,495
1765877534.713866,495
1765877534.7138739,495
1765877534.7138822,495
1765877534.713892,495
1765877534.7139041,495
1765877534.7139149,495
1765877534.7139258,495
1765877534.7139368,495
1765877534.713948,496
1765877534.71396,495
1765877534.713971,495
1765877534.7139819,495
1765877534.713993,495
1765877534.714004,495
1765877534.714015,496
1765877534.714026,495
1765877534.714037,495
1765877534.714048,495
1765877534.714067,496
1765877534.714078,495
1765877534.714089,495
1765877534.7141,495
1765877534.714111,496
1765877534.714122,496
1765877534.714133,495
1765877534.714144,496
1765877534.7141562,496
1765877534.714166,495
1765877534.714178,495
1765877534.7141912,495
1765877534.7142038,495
1765877534.7142148,495
1765877534.714226,495
1765877534.714237,496
1765877534.714248,495
1765877534.714259,495
1765877534.714271,495
1765877534.714282,496
1765877534.714293,495
1765877534.714304,496
1765877534.714315,496
1765877534.714326,496
1765877534.714337,497
1765877534.714348,497
1765877534.714359,496
1765877534.71437,496
1765877534.714381,496
1765877534.714392,496
1765877534.7144032,497
1765877534.7144141,497
1765877534.714425,496
1765877534.714436,497
1765877534.714447,496
1765877534.7144582,497
1765877534.7144692,497
1765877534.7144802,496
1765877534.714494,496
1765877534.714505,495
1765877534.7145169,495
1765877534.714528,496
1765877534.714539,496
1765877534.71455,495
1765877534.714561,496
1765877534.714572,496
1765877534.7145832,495
1765877534.7145941,494
1765877534.714606,494
1765877534.714617,496
1765877534.714628,495
1765877534.7146392,496
1765877534.7146502,495
1765877534.7146611,495
1765877534.714672,495
1765877534.714684,495
1765877534.714695,495
1765877534.714706,494
1765877534.714717,494
1765877534.7147279,495
1765877534.7147388,495
1765877534.71475,495
1765877534.714761,496
1765877534.714772,495
1765877534.714786,495
1765877534.7147992,494
1765877534.7148101,495
1765877534.714821,495
1765877534.7148318,496
1765877534.7148428,495
1765877534.714854,496
1765877534.714865,496
1765877534.714876,496
1765877534.714887,495
1765877534.714899,495
1765877534.71491,495
1765877534.714921,495
1765877534.714932,495
1765877534.714943,496
1765877534.714954,495
1765877534.714965,495
1765877534.714976,495
1765877534.714987,495
1765877534.714999,495
1765877534.7150102,495
1765877534.7150211,495
1765877534.715032,496
1765877534.715043,496
1765877534.715054,496
1765877534.715065,495
1765877534.7150779,495
1765877534.71509,495
1765877534.715101,496
1765877534.715112,495
1765877534.715123,495
1765877534.715134,495
1765877534.7151449,495
1765877534.715156,495
1765877534.715167,495
1765877534.715178,495
1765877534.715189,495
1765877534.7152011,495
1765877534.715212,495
1765877534.715223,496
1765877534.715234,496
1765877534.715245,496
1765877534.715256,496
1765877534.7152672,496
1765877534.7152781,496
1765877534.715289,495
1765877534.7153,496
1765877534.7153122,496
1765877534.715322,495
1765877534.715334,495
1765877534.715345,495
1765877534.7153559,495
1765877534.715369,496
1765877534.715381,496
1765877534.715392,496
1765877534.715403,495
1765877534.715414,495
1765877534.715426,495
1765877534.7154372,495
1765877534.715449,495
1765877534.71546,496
1765877534.715472,496
1765877534.715484,495
1765877534.7154958,496
1765877534.715508,495
1765877534.71552,496
1765877534.715532,495
1765877534.715544,496
1765877534.7155552,495
1765877534.715568,496
1765877534.71558,496
1765877534.715592,495
1765877534.715605,495
1765877534.715617,495
1765877534.715629,495
1765877534.71564,495
1765877534.715651,495
1765877534.715662,495
1765877534.7156742,495
1765877534.715689,495
1765877534.7157,496
1765877534.715709,496
1765877534.715717,496
1765877534.715725,496
1765877534.715733,496
1765877534.715741,495
1765877534.715749,495
1765877534.7157571,495
1765877534.715765,496
1765877534.7157729,496
1765877534.715782,495
1765877534.71579,496
1765877534.715798,496
1765877534.715806,496
1765877534.7158139,497
1765877534.715822,496
1765877534.71583,496
1765877534.715838,496
1765877534.7158458,496
1765877534.7158542,495
1765877534.715862,496
1765877534.715868,495
1765877534.715874,495
1765877534.71588,495
1765877534.7158852,495
1765877534.715893,496
1765877534.7159,495
1765877534.7159061,496
1765877534.715911,496
1765877534.715917,496
1765877534.715924,496
1765877534.7159302,496
1765877534.715936,496
1765877534.715942,496
1765877534.715948,495
1765877534.7159538,495
1765877534.715959,495
1765877534.715965,496
1765877534.715971,496
1765877534.715977,495
1765877534.7159832,496
1765877534.7159889,495
1765877534.7159948,496
1765877534.716001,496
1765877534.716007,496
1765877534.716012,496
1765877534.716018,496
1765877534.7160242,496
1765877534.71603,496
1765877534.716036,496
1765877534.716042,496
1765877534.7160478,496
1765877534.7160552,495
1765877534.716062,496
1765877534.716068,496
1765877534.716074,496
1765877534.7160802,496
1765877534.716086,496
1765877534.7160919,495
1765877534.716098,496
1765877534.7161028,495
1765877534.716127,496
1765877534.716133,496
1765877534.716139,496
1765877534.7161448,496
1765877534.716151,496
1765877534.716157,495
1765877534.7161632,495
1765877534.7161689,496
1765877534.716175,496
1765877534.71618,496
1765877534.716186,496
1765877534.716192,496
1765877534.716198,496
1765877534.716204,496
1765877534.71621,496
1765877534.7162151,496
1765877534.71622,496
1765877534.716227,496
1765877534.716233,496
1765877534.716238,496
1765877534.716243,496
1765877534.716249,496
1765877534.716254,496
1765877534.716259,495
1765877534.716265,496
1765877534.71627,496
1765877534.716275,495
1765877534.7162812,496
1765877534.716286,496
1765877534.7162912,495
1765877534.716297,495
1765877534.7163022,495
1765877534.716307,496
1765877534.716314,496
1765877534.716321,496
1765877534.7163289,496
1765877534.716336,496
1765877534.716344,496
1765877534.716351,496
1765877534.716358,496
1765877534.716366,496
1765877534.716372,496
1765877534.716377,495
1765877534.716382,495
1765877534.7163892,496
1765877534.716395,496
1765877534.7164009,496
1765877534.716406,496
1765877534.7164118,496
1765877534.716417,496
1765877534.716435,496
1765877534.71644,497
1765877534.716445,496
1765877534.71645,496
1765877534.716456,496
1765877534.716461,496
1765877534.716467,496
1765877534.7164721,495
1765877534.716479,496
1765877534.716484,496
1765877534.71649,495
1765877534.716495,495
1765877534.716501,496
1765877534.716507,496
1765877534.716512,496
1765877534.7165172,496
1765877534.716523,496
1765877534.7165282,495
1765877534.716534,495
1765877534.716539,496
1765877534.716545,495
1765877534.716553,495
1765877534.71656,496
1765877534.716565,495
1765877534.7165709,496
1765877534.716576,495
1765877534.7165818,495
1765877534.716589,495
1765877534.716594,496
1765877534.7166002,496
1765877534.716606,495
1765877534.7166111,496
1765877534.7166169,495
1765877534.716623,496
1765877534.716629,496
1765877534.716635,496
1765877534.716641,495
1765877534.716647,496
1765877534.716653,496
1765877534.71666,495
1765877534.7166662,496
1765877534.716672,496
1765877534.716678,496
1765877534.716684,496
1765877534.7166898,496
1765877534.716697,496
1765877534.716703,496
1765877534.7167091,495
1765877534.716717,496
1765877534.716724,496
1765877534.71673,496
1765877534.716736,496
1765877534.7167418,495
1765877534.716747,496
1765877534.7167518,495
1765877534.716758,495
1765877534.716764,496
1765877534.71677,495
1765877534.716775,496
1765877534.71678,496
1765877534.716786,496
1765877534.716792,496
1765877534.7167969,496
1765877534.7168021,496
1765877534.7168078,496
1765877534.716814,496
1765877534.71682,496
1765877534.716825,496
1765877534.716831,496
1765877534.7168372,496
1765877534.716842,496
1765877534.7168481,496
1765877534.716854,496
1765877534.7168598,496
1765877534.716867,496
1765877534.716876,496
1765877534.716883,496
1765877534.7168908,496
1765877534.716898,496
1765877534.7169049,496
1765877534.716911,496
1765877534.716917,496
1765877534.7169259,496
1765877534.716932,496
1765877534.716939,496
1765877534.716945,495
1765877534.7169511,496
1765877534.716958,496
1765877534.716966,496
1765877534.716974,496
1765877534.71698,496
1765877534.7169862,496
1765877534.716993,496
1765877534.7169988,496
1765877534.717005,496
1765877534.71701,496
1765877534.7170172,496
1765877534.717025,496
1765877534.717031,496
1765877534.717037,496
1765877534.717043,496
1765877534.7170508,495
1765877534.717058,496
1765877534.7170649,496
1765877534.717073,496
1765877534.717079,496
1765877534.717085,496
1765877534.717092,495
1765877534.717098,496
1765877534.7171042,497
1765877534.71711,497
1765877534.7171168,497
1765877534.717123,497
1765877534.717129,498
1765877534.717136,497
1765877534.717142,497
1765877534.7171478,497
1765877534.717154,497
1765877534.71716,497
1765877534.7171662,497
1765877534.717171,497
1765877534.717178,497
1765877534.717184,497
1765877534.7171898,497
1765877534.717196,497
1765877534.717202,496
1765877534.7172081,496
1765877534.7172139,496
1765877534.717221,496
1765877534.717228,496
1765877534.717234,496
1765877534.71724,496
1765877534.717246,496
1765877534.717254,496
1765877534.7172632,496
1765877534.71727,496
1765877534.7172768,496
1765877534.717283,496
1765877534.717289,496
1765877534.7172952,496
1765877534.717301,496
1765877534.7173069,496
1765877534.717313,497
1765877534.7173178,496
1765877534.717323,496
1765877534.7173288,496
1765877534.717334,496
1765877534.71734,496
1765877534.7173471,496
1765877534.717355,496
1765877534.717362,496
1765877534.717369,496
1765877534.717377,496
1765877534.717385,496
1765877534.717393,495
1765877534.7174,495
1765877534.717406,496
1765877534.717411,496
1765877534.717416,495
1765877534.717422,496
1765877534.717427,496
1765877534.717433,496
1765877534.717439,496
1765877534.7174451,496
1765877534.717451,496
1765877534.7174568,495
1765877534.717464,496
1765877534.717472,496
1765877534.717479,496
1765877534.7174861,497
1765877534.7174919,496
1765877534.717498,496
1765877534.717505,496
1765877534.7175128,496
1765877534.717521,496
1765877534.7175272,495
1765877534.7175329,496
1765877534.717539,496
1765877534.717546,496
1765877534.7175522,496
1765877534.717558,495
1765877534.717566,495
1765877534.7175722,496
1765877534.717578,495
1765877534.717584,496
1765877534.717591,496
1765877534.7175958,496
1765877534.717603,496
1765877534.717611,496
1765877534.7176168,496
1765877534.717623,496
1765877534.717629,495
1765877534.7176352,496
1765877534.717642,495
1765877534.71765,496
1765877534.717658,496
1765877534.717664,496
1765877534.71767,496
1765877534.717678,496
1765877534.717685,496
1765877534.717691,496
1765877534.717697,496
1765877534.7177029,496
1765877534.717709,495
1765877534.717715,496
1765877534.717721,496
1765877534.717727,496
1765877534.7177331,496
1765877534.717741,495
1765877534.717747,496
1765877534.717752,496
1765877534.717758,496
1765877534.7177632,495
1765877534.717769,495
1765877534.7177758,495
1765877534.7177842,495
1765877534.717791,496
1765877534.717798,496
1765877534.717806,496
1765877534.717813,497
1765877534.71782,496
1765877534.717828,496
1765877534.717835,496
1765877534.7178419,496
1765877534.7178502,496
1765877534.7178571,496
1765877534.717864,496
1765877534.71787,496
1765877534.717876,495
1765877534.7178822,496
1765877534.717888,496
1765877534.717895,495
1765877534.7179022,495
1765877534.71791,495
1765877534.717917,495
1765877534.717924,496
1765877534.717931,496
1765877534.717937,496
1765877534.717942,496
1765877534.717948,496
1765877534.7179542,496
1765877534.71796,496
1765877534.717968,496
1765877534.717974,496
1765877534.7179809,496
1765877534.717987,496
1765877534.717993,496
1765877534.717998,496
1765877534.718004,495
1765877534.7180102,495
1765877534.718016,496
1765877534.7180219,496
1765877534.718028,496
1765877534.718034,496
1765877534.7180412,495
1765877534.7180538,496
1765877534.71806,495
1765877534.718066,496
1765877534.7180722,496
1765877534.71808,495
1765877534.718087,496
1765877534.718094,496
1765877534.718101,496
1765877534.718107,495
1765877534.718113,495
1765877534.718119,496
1765877534.718126,495
1765877534.718132,495
1765877534.718137,495
1765877534.718143,496
1765877534.7181492,496
1765877534.718155,495
1765877534.7181609,496
1765877534.718167,496
1765877534.718173,496
1765877534.718179,495
1765877534.718184,496
1765877534.7181902,495
1765877534.718196,496
1765877534.718202,496
1765877534.718208,496
1765877534.7182138,495
1765877534.71822,496
1765877534.718226,496
1765877534.718231,496
1765877534.718237,496
1765877534.7182431,495
1765877534.7182488,495
1765877534.7182562,496
1765877534.718262,495
1765877534.718268,496
1765877534.718274,496
1765877534.7182798,496
1765877534.718285,496
1765877534.718291,496
1765877534.718297,495
1765877534.718303,496
1765877534.7183082,495
1765877534.718314,496
1765877534.7183201,495
1765877534.718326,495
1765877534.7183318,495
1765877534.718337,495
1765877534.718343,496
1765877534.718349,496
1765877534.718355,495
1765877534.7183611,496
1765877534.718366,496
1765877534.7183738,496
1765877534.7183812,496
1765877534.718387,495
1765877534.718393,495
1765877534.718399,496
1765877534.718405,495
1765877534.718412,496
1765877534.7184188,496
1765877534.718425,495
1765877534.718431,496
1765877534.7184372,496
1765877534.718442,496
1765877534.7184482,495
1765877534.7184541,495
1765877534.7184598,496
1765877534.718465,496
1765877534.7184708,496
1765877534.718477,496
1765877534.718483,496
1765877534.718488,496
1765877534.718494,495
1765877534.7185001,495
1765877534.718506,496
1765877534.718511,496
1765877534.718517,496
1765877534.7185228,495
1765877534.718528,496
1765877534.718534,496
1765877534.71854,496
1765877534.718545,496
1765877534.7185512,495
1765877534.718557,496
1765877534.718563,495
1765877534.71857,496
1765877534.718577,496
1765877534.718582,496
1765877534.7185879,496
1765877534.718594,496
1765877534.7186,495
1765877534.718605,496
1765877534.718611,496
1765877534.7186172,495
1765877534.718623,496
1765877534.7186282,496
1765877534.718634,496
1765877534.71864,495
1765877534.718646,496
1765877534.7186508,496
1765877534.718658,496
1765877534.718665,495
1765877534.7186718,496
1765877534.7186801,496
1765877534.7186859,495
1765877534.718692,496
1765877534.718698,496
1765877534.7187042,496
1765877534.71871,495
1765877534.718716,496
1765877534.718721,496
1765877534.7187269,496
1765877534.7187352,496
1765877534.718741,496
1765877534.718747,495
1765877534.718753,496
1765877534.71876,496
1765877534.7187672,495
1765877534.718773,495
1765877534.7187781,496
1765877534.718784,496
1765877534.7187898,496
1765877534.718796,495
1765877534.718802,495
1765877534.7188082,496
1765877534.718813,495
1765877534.7188191,496
1765877534.7188249,496
1765877534.718831,496
1765877534.718837,495
1765877534.718842,495
1765877534.718848,495
1765877534.718854,495
1765877534.7188601,496
1765877534.718865,497
1765877534.718871,496
1765877534.7188768,496
1765877534.718883,496
1765877534.718889,496
1765877534.7188962,496
1765877534.718903,496
1765877534.718909,495
1765877534.718915,496
1765877534.718921,496
1765877534.7189262,496
1765877534.718932,496
1765877534.718938,496
1765877534.718946,496
1765877534.718952,495
1765877534.7189581,496
1765877534.7189639,496
1765877534.71897,496
1765877534.718976,496
1765877534.718982,496
1765877534.718987,496
1765877534.718993,496
1765877534.7189991,496
1765877534.7190049,496
1765877534.71901,496
1765877534.7190158,496
1765877534.719022,497
1765877534.719028,496
1765877534.7190342,496
1765877534.719042,495
1765877534.719048,496
1765877534.719054,496
1765877534.719061,496
1765877534.719069,495
1765877534.719075,496
1765877534.719081,497
1765877534.7190862,495
1765877534.719092,496
1765877534.719098,496
1765877534.719104,496
1765877534.7191098,496
1765877534.719116,496
1765877534.719121,496
1765877534.719127,496
1765877534.719133,496
1765877534.719139,496
1765877534.719145,496
1765877534.719151,496
1765877534.719157,495
1765877534.7191622,495
1765877534.719168,494
1765877534.719174,495
1765877534.71918,495
1765877534.7191858,497
1765877534.719192,497
1765877534.719197,497
1765877534.719203,498
1765877534.719209,497
1765877534.7192152,497
1765877534.719222,496
1765877534.71923,495
1765877534.7192361,495
1765877534.719242,495
1765877534.7192478,496
1765877534.719254,496
1765877534.7192588,496
1765877534.719265,495
1765877534.719271,496
1765877534.7192771,497
1765877534.7192829,497
1765877534.719289,498
1765877534.719294,497
1765877534.7193,497
1765877534.719306,496
1765877534.719312,497
1765877534.719318,497
1765877534.7193239,497
1765877534.71933,497
1765877534.719336,497
1765877534.719342,497
1765877534.719348,497
1765877534.7193542,497
1765877534.719359,497
1765877534.7193651,497
1765877534.719371,496
1765877534.7193768,496
1765877534.719383,496
1765877534.719389,496
1765877534.7193952,496
1765877534.719401,496
1765877534.719408,496
1765877534.719415,496
1765877534.71942,496
1765877534.7194262,496
1765877534.7194319,496
1765877534.719438,496
1765877534.719444,496
1765877534.71945,496
1765877534.719455,496
1765877534.719462,496
1765877534.71947,496
1765877534.719476,496
1765877534.7194822,496
1765877534.719488,496
1765877534.7194932,496
1765877534.719499,496
1765877534.7195048,495
1765877534.719512,496
1765877534.719518,496
1765877534.719523,496
1765877534.719529,496
1765877534.719535,495
1765877534.719541,496
1765877534.719548,496
1765877534.7195551,496
1765877534.7195609,496
1765877534.7196429,496
1765877534.719649,496
1765877534.7196548,496
1765877534.7196631,496
1765877534.719669,496
1765877534.7196748,496
1765877534.719681,496
1765877534.719687,496
1765877534.719693,496
1765877534.719699,495
1765877534.719705,496
1765877534.7197099,496
1765877534.719716,495
1765877534.719722,495
1765877534.7197282,496
1765877534.719734,496
1765877534.719739,496
1765877534.719745,496
1765877534.71975,496
1765877534.719755,495
1765877534.719761,496
1765877534.719766,496
1765877534.719771,495
1765877534.719777,496
1765877534.7197819,496
1765877534.7197871,496
1765877534.7197928,495
1765877534.719798,495
1765877534.7198029,495
1765877534.719809,495
1765877534.719816,496
1765877534.7198222,496
1765877534.719828,495
1765877534.7198331,495
1765877534.7198389,495
1765877534.719845,496
1765877534.719851,495
1765877534.719857,495
1765877534.7198641,495
1765877534.719871,495
1765877534.719877,496
1765877534.719884,496
1765877534.7198899,495
1765877534.719896,496
1765877534.7199008,496
1765877534.719907,495
1765877534.719914,496
1765877534.7199192,496
1765877534.719925,496
1765877534.719931,495
1765877534.719937,495
1765877534.7199428,495
1765877534.719949,495
1765877534.719955,494
1765877534.7199612,494
1765877534.719967,495
1765877534.719973,496
1765877534.719979,496
1765877534.719985,496
1765877534.719991,495
1765877534.719997,495
1765877534.7200031,496
1765877534.7200089,495
1765877534.720103,495
1765877534.720109,495
1765877534.720115,495
1765877534.7201211,495
1765877534.7201269,495
1765877534.720133,495
1765877534.720139,495
1765877534.720145,495
1765877534.720151,495
1765877534.720156,495
1765877534.7201622,495
1765877534.7201679,495
1765877534.720174,495
1765877534.72018,495
1765877534.720186,495
1765877534.720192,495
1765877534.7201972,495
1765877534.720203,496
1765877534.720209,495
1765877534.720215,495
1765877534.720221,495
1765877534.720227,495
1765877534.720233,494
1765877534.7202392,495
1765877534.720245,495
1765877534.7202508,495
1765877534.720257,495
1765877534.720263,495
1765877534.720268,495
1765877534.720274,495
1765877534.720282,495
1765877534.720289,495
1765877534.720295,496
1765877534.7203012,495
1765877534.720306,495
1765877534.720312,495
1765877534.7203178,495
1765877534.720324,495
1765877534.720331,495
1765877534.720347,495
1765877534.720354,495
1765877534.72036,495
1765877534.720366,495
1765877534.720372,495
1765877534.7203782,495
1765877534.720384,495
1765877534.7203898,495
1765877534.720396,496
1765877534.720402,495
1765877534.720408,495
1765877534.720414,495
1765877534.7204201,495
1765877534.720425,495
1765877534.720431,495
1765877534.720439,495
1765877534.720445,495
1765877534.720451,496
1765877534.720457,495
1765877534.720463,495
1765877534.720468,494
1765877534.720474,494
1765877534.72048,495
1765877534.720486,495
1765877534.7204921,495
1765877534.720499,494
1765877534.720504,495
1765877534.721023,495
1765877534.722089,495
1765877534.7230458,495
1765877534.724015,495
1765877534.725046,495
1765877534.726044,496
1765877534.727017,496
1765877534.7280362,496
1765877534.729096,495
1765877534.7300858,495
1765877534.731043,496
1765877534.732047,495
1765877534.7330549,496
1765877534.734036,495
1765877534.73504,495
1765877534.7361128,496
1765877534.737055,496
1765877534.738067,495
1765877534.739103,496
1765877534.740105,495
1765877534.741079,496
1765877534.742062,496
1765877534.743079,495
1765877534.744093,496
1765877534.7450821,495
1765877534.7460961,496
1765877534.7470841,496
1765877534.7481332,495
1765877534.749096,495
1765877534.7501,495
1765877534.751093,496
1765877534.752085,495
1765877534.753095,495
1765877534.754099,495
1765877534.7551098,495
1765877534.7561269,495
1765877534.7571461,495
1765877534.7581508,495
1765877534.759131,496
1765877534.760125,496
1765877534.76112,496
1765877534.762123,495
1765877534.763128,495
1765877534.7641752,495
1765877534.765135,495
1765877534.766128,495
1765877534.767126,494
1765877534.768137,494
1765877534.7691479,495
1765877534.7701461,495
1765877534.7711549,496
1765877534.7721732,496
1765877534.773178,496
1765877534.774136,495
1765877534.7751622,495
1765877534.776167,495
1765877534.777163,495
1765877534.778168,495
1765877534.7791739,495
1765877534.780211,495
1765877534.7811918,496
1765877534.782181,495
1765877534.7831879,496
1765877534.784202,495
1765877534.7852108,496
1765877534.786201,496
1765877534.787216,495
1765877534.788227,495
1765877534.789224,495
1765877534.790259,495
1765877534.791274,495
1765877534.792245,495
1765877534.793227,495
1765877534.794216,496
1765877534.795224,496
1765877534.7962081,495
1765877534.7972028,496
1765877534.798215,495
1765877534.7992399,494
1765877534.8002439,496
1765877534.8012211,495
1765877534.8022249,495
1765877534.803234,495
1765877534.8042471,495
1765877534.805248,495
1765877534.806257,495
1765877534.807261,496
1765877534.808272,495
1765877534.8092768,495
1765877534.8102689,495
1765877534.811266,495
1765877534.812285,495
1765877534.813262,496
1765877534.814264,495
1765877534.815268,495
1765877534.816262,496
1765877534.817295,496
1765877534.8183,496
1765877534.819287,495
1765877534.820281,495
1765877534.821314,495
1765877534.82231,495
1765877534.823319,496
1765877534.824478,495
1765877534.825353,495
1765877534.826315,495
1765877534.827299,495
1765877534.828346,495
1765877534.82933,495
1765877534.8303602,495
1765877534.8313541,494
1765877534.8323882,495
1765877534.833351,496
1765877534.834348,495
1765877534.835395,495
1765877534.836364,495
1765877534.837347,495
1765877534.838374,495
1765877534.839351,495
1765877534.8403509,495
1765877534.841383,495
1765877534.8423638,495
1765877534.843359,496
1765877534.844368,495
1765877534.8453639,495
1765877534.84638,495
1765877534.8473759,495
1765877534.848377,495
1765877534.849386,495
1765877534.850403,495
1765877534.851403,495
1765877534.852384,495
1765877534.853384,495
1765877534.8544178,495
1765877534.855424,495
1765877534.856471,495
1765877534.857483,496
1765877534.858436,495
1765877534.859432,495
1765877534.860418,495
1765877534.8614452,495
1765877534.862436,495
1765877534.863434,495
1765877534.8644302,496
1765877534.865438,496
1765877534.866425,495
1765877534.867442,495
1765877534.868442,495
1765877534.869455,495
1765877534.870429,495
1765877534.871447,496
1765877534.8724558,496
1765877534.8734531,495
1765877534.874513,495
1765877534.875492,495
1765877534.876485,495
1765877534.877483,496
1765877534.8785129,495
1765877534.879516,495
1765877534.8804889,495
1765877534.881502,494
1765877534.882505,494
1765877534.883498,495
1765877534.884491,495
1765877534.885491,495
1765877534.886552,495
1765877534.8875148,495
1765877534.8885179,495
1765877534.889517,495
1765877534.8905349,496
1765877534.891551,496
1765877534.892517,496
1765877534.893525,497
1765877534.8945348,497
1765877534.895637,497
1765877534.896518,497
1765877534.897543,497
1765877534.898653,496
1765877534.899631,496
1765877534.900613,496
1765877534.9015949,497
1765877534.902592,497
1765877534.9036071,497
1765877534.9045959,496
1765877534.9055989,497
1765877534.9065979,496
1765877534.907608,496
1765877534.908638,496
1765877534.9096289,495
1765877534.910624,495
1765877534.9116108,496
1765877534.9125981,496
1765877534.913604,496
1765877534.9146109,496
1765877534.915675,496
1765877534.916626,496
1765877534.917613,495
1765877534.918603,495
1765877534.919601,496
1765877534.920602,495
1765877534.9215932,496
1765877534.922602,496
1765877534.923619,495
1765877534.924608,496
1765877534.925619,495
1765877534.9266171,496
1765877534.927607,496
1765877534.9286048,496
1765877534.929634,495
1765877534.930609,495
1765877534.931627,496
1765877534.932628,496
1765877534.933644,496
1765877534.9346418,496
1765877534.935627,495
1765877534.936624,496
1765877534.9376361,496
1765877534.9386299,496
1765877534.9396532,495
1765877534.940651,495
1765877534.94167,495
1765877534.942656,495
1765877534.943661,495
1765877534.944661,495
1765877534.945672,495
1765877534.9466722,495
1765877534.9476721,495
1765877534.948682,495
1765877534.949713,495
1765877534.950767,496
1765877534.95168,496
1765877534.952748,495
1765877534.953708,495
1765877534.954717,496
1765877534.955709,497
1765877534.956703,498
1765877534.9577248,497
1765877534.958729,496
1765877534.9597728,495
1765877534.96076,494
1765877534.961731,494
1765877534.96273,495
1765877534.963718,495
1765877534.964727,495
1765877534.965722,496
1765877534.9667342,496
1765877534.9677382,495
1765877534.9687302,496
1765877534.969737,495
1765877534.9707441,496
1765877534.971741,496
1765877534.9727418,495
1765877534.9737558,496
1765877534.974758,495
1765877534.97574,496
1765877534.976752,495
1765877534.977751,495
1765877534.978762,495
1765877534.979767,496
1765877534.980746,495
1765877534.9817522,496
1765877534.982784,497
1765877534.983794,497
1765877534.98477,497
1765877534.9857779,495
1765877534.986769,496
1765877534.98778,495
1765877534.988776,494
1765877534.9897869,494
1765877534.990793,495
1765877534.991791,495
1765877534.992804,495
1765877534.993807,496
1765877534.994813,496
1765877534.995799,496
1765877534.996814,497
1765877534.99783,497
1765877534.998834,497
1765877534.999865,496
1765877535.000881,497
1765877535.001836,497
1765877535.002839,497
1765877535.00386,494
1765877535.0048552,492
1765877535.005852,493
1765877535.0068521,494
1765877535.007871,494
1765877535.008867,495
1765877535.009872,495
1765877535.010883,495
1765877535.011872,495
1765877535.012862,495
1765877535.013876,495
1765877535.014875,495
1765877535.0158908,494
1765877535.016887,495
1765877535.01791,495
1765877535.0188851,494
1765877535.019895,494
1765877535.020908,495
1765877535.021905,496
1765877535.0229208,496
1765877535.023901,495
1765877535.024941,495
1765877535.025968,495
1765877535.026931,495
1765877535.02795,495
1765877535.028967,495
1765877535.030188,496
1765877535.031262,495
1765877535.03208,494
1765877535.0330298,495
1765877535.033974,496
1765877535.035012,495
1765877535.03597,495
1765877535.037268,494
1765877535.0379798,495
1765877535.0390232,495
1765877535.03999,496
1765877535.0410151,496
1765877535.042002,495
1765877535.0429811,495
1765877535.0440042,495
1765877535.0449972,494
1765877535.045974,494
1765877535.0469928,495
1765877535.047976,496
1765877535.04898,495
1765877535.049985,497
1765877535.050997,497
1765877535.0519848,496
1765877535.053004,497
1765877535.053985,497
1765877535.054998,495
1765877535.055999,494
1765877535.057015,494
1765877535.058092,495
1765877535.059069,493
1765877535.0600011,494
1765877535.061008,495
1765877535.06201,495
1765877535.063018,495
1765877535.0640168,495
1765877535.065017,494
1765877535.066099,495
1765877535.067036,495
1765877535.068034,495
1765877535.0690298,495
1765877535.0700412,495
1765877535.071029,494
1765877535.07203,494
1765877535.073041,496
1765877535.074062,496
1765877535.0750778,496
1765877535.0760782,496
1765877535.0770822,496
1765877535.078075,495
1765877535.079087,494
1765877535.080069,496
1765877535.081089,496
1765877535.0821278,496
1765877535.083223,495
1765877535.0841532,495
1765877535.08514,495
1765877535.086099,496
1765877535.0871098,496
1765877535.08811,495
1765877535.08912,495
1765877535.0901408,495
1765877535.091222,495
1765877535.092187,495
1765877535.093157,494
1765877535.094121,495
1765877535.095113,494
1765877535.096144,496
1765877535.097153,496
1765877535.098144,496
1765877535.0991402,496
1765877535.100162,495
1765877535.101145,494
1765877535.102148,493
1765877535.103286,493
1765877535.104225,494
1765877535.105176,496
1765877535.106155,498
1765877535.1071649,497
1765877535.10817,495
1765877535.109173,494
1765877535.110144,494
1765877535.111184,494
1765877535.112161,495
1765877535.11317,495
1765877535.11417,495
1765877535.115177,496
1765877535.116197,495
1765877535.1172109,494
1765877535.118208,494
1765877535.119209,495
1765877535.120181,497
1765877535.1211782,498
1765877535.122195,498
1765877535.123212,496
1765877535.1243432,496
1765877535.1252322,495
1765877535.126245,495
1765877535.12722,495
1765877535.128213,495
1765877535.12923,496
1765877535.130222,494
1765877535.131231,494
1765877535.132225,494
1765877535.133261,494
1765877535.134262,495
1765877535.135232,495
1765877535.136259,495
1765877535.1372511,495
1765877535.138276,495
1765877535.139246,496
1765877535.140268,496
1765877535.141313,496
1765877535.142308,495
1765877535.143292,493
1765877535.144284,493
1765877535.145288,495
1765877535.146272,495
1765877535.147276,496
1765877535.148246,496
1765877535.149285,496
1765877535.15029,496
1765877535.151289,494
1765877535.152283,494
1765877535.153298,495
1765877535.154298,494
1765877535.155309,494
1765877535.156307,495
1765877535.157343,495
1765877535.158415,495
1765877535.15939,496
1765877535.160418,495
1765877535.161344,496
1765877535.162328,495
1765877535.163341,495
1765877535.16436,495
1765877535.165332,495
1765877535.166611,494
1765877535.167426,495
1765877535.168416,495
1765877535.169417,495
1765877535.170597,496
1765877535.171411,496
1765877535.172399,496
1765877535.173374,496
1765877535.1743731,496
1765877535.17537,496
1765877535.176341,495
1765877535.177419,495
1765877535.178368,494
1765877535.179379,494
1765877535.180363,494
1765877535.1813838,495
1765877535.18239,495
1765877535.1834161,495
1765877535.184406,495
1765877535.185397,496
1765877535.186409,495
1765877535.187399,496
1765877535.188382,496
1765877535.189387,495
1765877535.1904051,495
1765877535.191416,494
1765877535.192408,495
1765877535.193423,494
1765877535.194426,496
1765877535.195412,495
1765877535.196408,495
1765877535.197406,495
1765877535.198405,494
1765877535.199431,495
1765877535.200432,495
1765877535.2014499,497
1765877535.202432,496
1765877535.203447,496
1765877535.204443,496
1765877535.205447,494
1765877535.206475,492
1765877535.2077289,492
1765877535.20848,493
1765877535.209462,495
1765877535.210486,496
1765877535.211502,497
1765877535.212476,496
1765877535.2134888,495
1765877535.214483,495
1765877535.2154791,495
1765877535.216515,495
1765877535.217504,496
1765877535.2185159,496
1765877535.219501,495
1765877535.220535,495
1765877535.221531,495
1765877535.222518,495
1765877535.223721,495
1765877535.224582,495
1765877535.225653,495
1765877535.22663,495
1765877535.227614,495
1765877535.2285519,495
1765877535.229568,494
1765877535.2305331,494
1765877535.231523,495
1765877535.23255,494
1765877535.233551,494
1765877535.23455,495
1765877535.2355342,495
1765877535.2365582,496
1765877535.237657,496
1765877535.2386692,497
1765877535.23966,497
1765877535.240642,496
1765877535.241651,497
1765877535.242673,496
1765877535.2436638,496
1765877535.244722,497
1765877535.24568,497
1765877535.246639,497
1765877535.247657,495
1765877535.248645,496
1765877535.249747,495
1765877535.250696,495
1765877535.251644,495
1765877535.252626,496
1765877535.253626,496
1765877535.254617,496
1765877535.2556312,496
1765877535.256619,496
1765877535.2576342,495
1765877535.258634,496
1765877535.259634,495
1765877535.2606301,495
1765877535.2616372,495
1765877535.262651,495
1765877535.2636318,496
1765877535.264622,496
1765877535.26562,496
1765877535.266616,495
1765877535.267628,496
1765877535.2686,495
1765877535.269612,496
1765877535.270615,496
1765877535.27162,495
1765877535.272631,495
1765877535.273628,495
1765877535.2746398,495
1765877535.275637,495
1765877535.276633,495
1765877535.277631,495
1765877535.278628,495
1765877535.2796538,495
1765877535.280627,495
1765877535.2816288,496
1765877535.282665,495
1765877535.283639,496
1765877535.284647,496
1765877535.2856598,496
1765877535.286653,494
1765877535.287671,495
1765877535.28867,495
1765877535.289674,496
1765877535.290686,496
1765877535.291737,495
1765877535.292757,495
1765877535.2937229,495
1765877535.2947001,495
1765877535.295686,496
1765877535.2966862,496
1765877535.297677,496
1765877535.298678,495
1765877535.2997189,495
1765877535.3007119,496
1765877535.3016949,496
1765877535.3027,496
1765877535.3037271,495
1765877535.304716,494
1765877535.305711,496
1765877535.306707,496
1765877535.307733,498
1765877535.308737,495
1765877535.309737,495
1765877535.310747,494
1765877535.3117561,493
1765877535.312743,494
1765877535.31375,494
1765877535.314739,495
1765877535.315752,497
1765877535.316758,496
1765877535.317782,495
1765877535.3187652,495
1765877535.319768,495
1765877535.320788,495
1765877535.3217669,495
1765877535.322767,495
1765877535.3237572,494
1765877535.324776,496
1765877535.3257768,496
1765877535.326784,495
1765877535.327822,495
1765877535.32881,496
1765877535.329817,496
1765877535.3308,495
1765877535.331799,495
1765877535.332824,496
1765877535.3338392,495
1765877535.334851,495
1765877535.3358452,495
1765877535.3368042,495
1765877535.3378198,496
1765877535.338815,496
1765877535.339812,496
1765877535.340841,496
1765877535.341818,495
1765877535.342832,495
1765877535.3438542,495
1765877535.344842,496
1765877535.345865,495
1765877535.3468502,496
1765877535.3478599,495
1765877535.349072,496
1765877535.3499022,495
1765877535.3508759,495
1765877535.351862,496
1765877535.352841,496
1765877535.353844,496
1765877535.354846,495
1765877535.3559191,496
1765877535.356916,496
1765877535.3579159,496
1765877535.3588989,496
1765877535.359923,496
1765877535.360876,495
1765877535.361888,495
1765877535.362875,495
1765877535.363915,495
1765877535.364917,495
1765877535.3659258,495
1765877535.366886,496
1765877535.367914,497
1765877535.3688939,497
1765877535.36992,496
1765877535.370906,495
1765877535.371959,495
1765877535.372926,496
1765877535.373941,495
1765877535.374922,496
1765877535.375914,495
1765877535.376927,496
1765877535.3779578,496
1765877535.378952,496
1765877535.379932,497
1765877535.3809228,496
1765877535.381931,495
1765877535.382977,495
1765877535.383971,495
1765877535.384941,496
1765877535.385959,495
1765877535.386967,495
1765877535.387952,495
1765877535.38895,495
1765877535.389958,495
1765877535.390976,495
1765877535.391968,495
1765877535.392992,495
1765877535.393985,495
1765877535.394956,495
1765877535.3959548,495
1765877535.396972,495
1765877535.3979762,495
1765877535.398976,496
1765877535.4000041,496
1765877535.4009879,497
1765877535.4019861,498
1765877535.402987,498
1765877535.4039922,497
1765877535.40499,496
1765877535.405984,496
1765877535.406991,494
1765877535.40801,494
1765877535.409025,495
1765877535.410035,495
1765877535.411006,494
1765877535.412013,495
1765877535.413045,495
1765877535.414028,495
1765877535.415045,495
1765877535.416037,495
1765877535.417047,496
1765877535.418036,495
1765877535.4190311,495
1765877535.420044,495
1765877535.421053,496
1765877535.422056,496
1765877535.423084,496
1765877535.4240708,496
1765877535.4250739,494
1765877535.426062,495
1765877535.427056,496
1765877535.428093,495
1765877535.429078,496
1765877535.4300742,496
1765877535.431068,496
1765877535.432101,495
1765877535.433086,496
1765877535.434101,495
1765877535.435081,495
1765877535.4360828,494
1765877535.437098,496
1765877535.438089,495
1765877535.4390762,495
1765877535.440115,496
1765877535.4411101,496
1765877535.4421031,496
1765877535.443097,495
1765877535.444109,494
1765877535.445107,494
1765877535.4461088,494
1765877535.447107,495
1765877535.448122,497
1765877535.449135,496
1765877535.4501371,496
1765877535.451133,495
1765877535.452139,494
1765877535.453148,495
1765877535.454155,496
1765877535.45518,495
1765877535.4561589,496
1765877535.457191,496
1765877535.4582112,496
1765877535.4591832,496
1765877535.460172,496
1765877535.461163,495
1765877535.4621718,496
1765877535.463177,496
1765877535.464162,496
1765877535.4651709,496
1765877535.4661891,495
1765877535.467199,496
1765877535.468195,497
1765877535.46919,496
1765877535.4702,495
1765877535.471196,495
1765877535.4722078,495
1765877535.473207,495
1765877535.4742029,495
1765877535.4752069,495
1765877535.476207,496
1765877535.477217,496
1765877535.478231,495
1765877535.479222,495
1765877535.480217,495
1765877535.481215,495
1765877535.482229,496
1765877535.483246,496
1765877535.484242,495
1765877535.48527,495
1765877535.486252,495
1765877535.4872398,495
1765877535.488232,495
1765877535.489246,494
1765877535.490288,495
1765877535.491282,495
1765877535.492266,495
1765877535.493258,496
1765877535.494261,495
1765877535.495271,496
1765877535.4963121,496
1765877535.497313,495
1765877535.4983091,495
1765877535.499361,495
1765877535.5003479,495
1765877535.501386,495
1765877535.502356,495
1765877535.5033119,495
1765877535.5043159,495
1765877535.505329,496
1765877535.5063329,495
1765877535.507415,495
1765877535.5083551,495
1765877535.5094001,495
1765877535.510366,495
1765877535.5113778,496
1765877535.512396,496
1765877535.513441,497
1765877535.514385,496
1765877535.515376,495
1765877535.516365,496
1765877535.5173671,496
1765877535.518369,497
1765877535.5193658,497
1765877535.52035,496
1765877535.521368,494
1765877535.522422,495
1765877535.523396,495
1765877535.5243871,495
1765877535.525407,496
1765877535.5264058,494
1765877535.527415,495
1765877535.528419,496
1765877535.529415,495
1765877535.530406,496
1765877535.5314162,496
1765877535.532421,496
1765877535.533421,495
1765877535.53442,496
1765877535.535397,496
1765877535.536445,495
1765877535.537417,496
1765877535.538406,495
1765877535.539424,495
1765877535.54049,496
1765877535.541457,495
1765877535.542426,495
1765877535.543432,495
1765877535.54444,495
1765877535.5454478,496
1765877535.546442,496
1765877535.5474272,496
1765877535.54843,496
1765877535.5494301,496
1765877535.550439,496
1765877535.5514429,496
1765877535.552459,495
1765877535.553449,495
1765877535.554466,495
1765877535.555457,495
1765877535.556484,496
1765877535.557493,496
1765877535.558531,497
1765877535.5595179,498
1765877535.5604758,497
1765877535.5614688,494
1765877535.562484,495
1765877535.563481,495
1765877535.56448,495
1765877535.56549,496
1765877535.566487,496
1765877535.567491,496
1765877535.568494,496
1765877535.569483,495
1765877535.570543,496
1765877535.5715232,496
1765877535.572499,496
1765877535.573496,496
1765877535.574495,496
1765877535.575586,495
1765877535.576607,496
1765877535.577573,495
1765877535.578615,495
1765877535.579656,495
1765877535.580555,495
1765877535.581528,496
1765877535.582623,496
1765877535.583652,496
1765877535.584517,497
1765877535.5855129,497
1765877535.586598,497
1765877535.587612,498
1765877535.5886059,497
1765877535.5896032,497
1765877535.5906,497
1765877535.591597,496
1765877535.592618,497
1765877535.5936189,497
1765877535.5946088,497
1765877535.5956202,497
1765877535.596618,497
1765877535.5976162,496
1765877535.598614,495
1765877535.5996091,497
1765877535.600617,496
1765877535.60162,497
1765877535.602614,497
1765877535.6036181,496
1765877535.6045928,496
1765877535.6055958,496
1765877535.6065862,497
1765877535.607588,497
1765877535.6085892,497
1765877535.609598,496
1765877535.610591,495
1765877535.6116211,495
1765877535.6125922,495
1765877535.613638,496
1765877535.614638,496
1765877535.615635,497
1765877535.616645,496
1765877535.6176581,496
1765877535.61863,496
1765877535.619612,496
1765877535.620615,496
1765877535.621665,496
1765877535.6227179,497
1765877535.623704,496
1765877535.624664,496
1765877535.625689,495
1765877535.626637,496
1765877535.627629,496
1765877535.628644,495
1765877535.629667,495
1765877535.630656,495
1765877535.6316748,496
1765877535.632677,496
1765877535.633697,495
1765877535.6346612,496
1765877535.635697,496
1765877535.636677,496
1765877535.637683,496
1765877535.638687,496
1765877535.639678,495
1765877535.640707,496
1765877535.6417012,496
1765877535.642679,495
1765877535.643692,496
1765877535.644705,496
1765877535.64572,496
1765877535.646684,496
1765877535.647707,496
1765877535.648696,496
1765877535.6497438,496
1765877535.6507058,496
1765877535.6517131,495
1765877535.652692,495
1765877535.6537118,496
1765877535.654751,496
1765877535.655787,496
1765877535.6567261,496
1765877535.6577332,495
1765877535.658796,495
1765877535.6598039,495
1765877535.660759,495
1765877535.661767,495
1765877535.662771,495
1765877535.663754,496
1765877535.664765,496
1765877535.665807,495
1765877535.666743,495
1765877535.6677718,496
1765877535.668782,496
1765877535.66977,497
1765877535.670774,498
1765877535.671829,496
1765877535.672777,495
1765877535.6737778,496
1765877535.674788,496
1765877535.6757948,495
1765877535.676786,495
1765877535.677814,495
1765877535.6788049,495
1765877535.6798038,496
1765877535.680793,496
1765877535.681791,495
1765877535.6828082,496
1765877535.683797,495
1765877535.6847959,497
1765877535.685859,495
1765877535.686836,496
