timestamp,emg_value
1765877664.69749,495
1765877664.6976588,494
1765877664.697837,496
1765877664.697886,496
1765877664.698209,495
1765877664.698327,495
1765877664.698336,495
1765877664.6983418,495
1765877664.698348,495
1765877664.698354,495
1765877664.69836,495
1765877664.698365,495
1765877664.69837,497
1765877664.698376,497
1765877664.6983821,497
1765877664.698387,496
1765877664.6983922,494
1765877664.698447,493
1765877664.698453,496
1765877664.6984582,497
1765877664.698463,497
1765877664.6984692,496
1765877664.6984751,495
1765877664.6984808,494
1765877664.698488,493
1765877664.6985269,494
1765877664.698535,495
1765877664.6985412,494
1765877664.698547,495
1765877664.6985521,495
1765877664.6985579,494
1765877664.698563,495
1765877664.69857,495
1765877664.69858,495
1765877664.698587,495
1765877664.6985931,495
1765877664.6985989,495
1765877664.698604,495
1765877664.6986098,495
1765877664.698615,495
1765877664.698621,495
1765877664.698646,495
1765877664.6986508,496
1765877664.698657,495
1765877664.6986618,495
1765877664.698667,496
1765877664.698673,497
1765877664.698678,499
1765877664.698684,499
1765877664.698689,499
1765877664.698694,499
1765877664.6987,498
1765877664.6987069,493
1765877664.698741,494
1765877664.6987479,495
1765877664.698755,495
1765877664.69876,495
1765877664.698766,496
1765877664.698771,496
1765877664.698776,497
1765877664.698782,497
1765877664.6987882,495
1765877664.698793,496
1765877664.6987991,494
1765877664.698804,495
1765877664.698855,495
1765877664.698862,495
1765877664.698869,495
1765877664.698874,495
1765877664.698881,495
1765877664.698886,495
1765877664.698912,495
1765877664.6989179,495
1765877664.698924,496
1765877664.69893,496
1765877664.698955,496
1765877664.6989608,496
1765877664.699004,496
1765877664.699012,496
1765877664.6990201,495
1765877664.699054,494
1765877664.699061,493
1765877664.699123,493
1765877664.699188,494
1765877664.6992111,495
1765877664.6992168,494
1765877664.699222,494
1765877664.6992278,494
1765877664.699234,495
1765877664.699241,495
1765877664.6992488,495
1765877664.6992562,497
1765877664.699264,496
1765877664.699274,495
1765877664.699305,496
1765877664.699311,497
1765877664.699317,497
1765877664.699323,496
1765877664.6993291,496
1765877664.699334,494
1765877664.69934,494
1765877664.6993449,495
1765877664.699351,494
1765877664.6993558,494
1765877664.699362,495
1765877664.699389,495
1765877664.6993952,494
1765877664.6994,496
1765877664.699405,495
1765877664.699497,494
1765877664.6995041,495
1765877664.699509,495
1765877664.6995149,495
1765877664.69952,495
1765877664.6995258,494
1765877664.699532,494
1765877664.6995368,495
1765877664.699543,495
1765877664.699548,495
1765877664.699554,495
1765877664.69956,495
1765877664.699567,495
1765877664.699575,495
1765877664.699584,495
1765877664.699591,496
1765877664.6995971,496
1765877664.6996028,496
1765877664.699609,494
1765877664.699616,494
1765877664.699724,495
1765877664.69973,496
1765877664.699738,497
1765877664.699744,496
1765877664.6997519,494
1765877664.699758,492
1765877664.699764,492
1765877664.699769,494
1765877664.699775,494
1765877664.69978,494
1765877664.699786,494
1765877664.6997912,494
1765877664.699796,494
1765877664.6998022,494
1765877664.699807,494
1765877664.6998122,495
1765877664.699818,494
1765877664.6998231,494
1765877664.699829,495
1765877664.699834,494
1765877664.6998389,494
1765877664.699845,494
1765877664.69985,495
1765877664.699855,495
1765877664.699861,495
1765877664.699866,495
1765877664.699872,495
1765877664.699878,495
1765877664.699883,495
1765877664.6998909,495
1765877664.699897,495
1765877664.699904,495
1765877664.6999092,495
1765877664.699914,496
1765877664.69992,495
1765877664.699925,494
1765877664.699931,495
1765877664.699936,495
1765877664.6999419,494
1765877664.699947,494
1765877664.699954,494
1765877664.699959,495
1765877664.699965,496
1765877664.69997,494
1765877664.699975,493
1765877664.699981,495
1765877664.699986,495
1765877664.699991,495
1765877664.699996,495
1765877664.700002,495
1765877664.700007,496
1765877664.700012,495
1765877664.700018,495
1765877664.700023,495
1765877664.700028,495
1765877664.700033,493
1765877664.700042,495
1765877664.700049,495
1765877664.7000551,495
1765877664.70006,495
1765877664.7000651,495
1765877664.7000709,495
1765877664.700076,495
1765877664.7000818,494
1765877664.700087,495
1765877664.7000918,495
1765877664.700098,495
1765877664.7001028,495
1765877664.700109,495
1765877664.700115,495
1765877664.70012,495
1765877664.700125,495
1765877664.7001312,495
1765877664.700136,494
1765877664.700141,495
1765877664.700147,495
1765877664.700153,495
1765877664.7001579,495
1765877664.7001631,494
1765877664.7001688,494
1765877664.700174,494
1765877664.7001789,495
1765877664.700185,495
1765877664.700193,495
1765877664.7001998,494
1765877664.700205,495
1765877664.700211,495
1765877664.700216,495
1765877664.700222,495
1765877664.700227,496
1765877664.700233,495
1765877664.700238,496
1765877664.700244,495
1765877664.7002492,495
1765877664.700255,494
1765877664.7002602,494
1765877664.700265,494
1765877664.7002711,494
1765877664.700276,494
1765877664.7002811,495
1765877664.700286,495
1765877664.700292,495
1765877664.7002969,496
1765877664.7003021,495
1765877664.700308,495
1765877664.700313,495
1765877664.7003179,495
1765877664.700324,495
1765877664.700329,496
1765877664.700335,496
1765877664.700342,497
1765877664.70035,497
1765877664.700356,497
1765877664.700361,495
1765877664.700366,492
1765877664.700371,494
1765877664.700377,495
1765877664.700382,495
1765877664.7003882,495
1765877664.700393,495
1765877664.7003992,496
1765877664.700404,495
1765877664.7004092,496
1765877664.700415,496
1765877664.7004201,496
1765877664.700426,496
1765877664.700431,495
1765877664.7004359,494
1765877664.700442,493
1765877664.700447,494
1765877664.700453,495
1765877664.700458,494
1765877664.700463,494
1765877664.700468,494
1765877664.700474,494
1765877664.700479,495
1765877664.700484,495
1765877664.7004921,495
1765877664.700497,495
1765877664.700503,495
1765877664.70051,495
1765877664.7005172,495
1765877664.700536,495
1765877664.700555,495
1765877664.700574,495
1765877664.700593,495
1765877664.700612,496
1765877664.70063,495
1765877664.700649,496
1765877664.7006679,495
1765877664.700686,494
1765877664.700705,494
1765877664.700724,494
1765877664.700743,495
1765877664.700762,495
1765877664.700781,494
1765877664.700799,494
1765877664.7008178,494
1765877664.7008362,494
1765877664.700856,495
1765877664.700874,495
1765877664.700893,495
1765877664.7009122,495
1765877664.700932,495
1765877664.700955,495
1765877664.700974,495
1765877664.700993,495
1765877664.701012,495
1765877664.701031,495
1765877664.701049,495
1765877664.701068,495
1765877664.701087,495
1765877664.7011058,494
1765877664.7011251,495
1765877664.701144,494
1765877664.701163,496
1765877664.701181,495
1765877664.7011998,495
1765877664.701219,495
1765877664.701238,495
1765877664.701257,496
1765877664.7012758,495
1765877664.7012951,496
1765877664.701314,495
1765877664.701333,495
1765877664.701352,494
1765877664.701371,495
1765877664.701389,494
1765877664.701409,494
1765877664.701427,494
1765877664.7014499,493
1765877664.701471,494
1765877664.70149,495
1765877664.7015092,495
1765877664.701528,495
1765877664.701547,495
1765877664.701565,495
1765877664.7015839,495
1765877664.701602,494
1765877664.701622,495
1765877664.7016408,494
1765877664.70166,495
1765877664.701679,495
1765877664.701698,495
1765877664.701717,496
1765877664.701735,496
1765877664.701754,497
1765877664.701783,498
1765877664.701807,495
1765877664.701834,491
1765877664.701853,493
1765877664.701879,494
1765877664.701903,493
1765877664.701928,494
1765877664.701947,494
1765877664.701965,494
1765877664.701987,495
1765877664.702008,495
1765877664.702027,495
1765877664.702045,495
1765877664.702063,494
1765877664.7020822,494
1765877664.7021,495
1765877664.7021189,495
1765877664.702143,495
1765877664.702162,495
1765877664.702181,495
1765877664.702199,495
1765877664.702218,495
1765877664.702237,494
1765877664.702255,494
1765877664.7022731,494
1765877664.702292,494
1765877664.7023108,494
1765877664.70233,494
1765877664.702349,495
1765877664.702367,495
1765877664.702386,495
1765877664.702404,495
1765877664.702423,496
1765877664.702442,494
1765877664.702462,494
1765877664.702486,494
1765877664.7025049,494
1765877664.702524,494
1765877664.702542,494
1765877664.7025611,494
1765877664.702579,494
1765877664.7025979,495
1765877664.7026172,496
1765877664.702637,496
1765877664.702655,495
1765877664.702674,493
1765877664.702692,493
1765877664.70271,494
1765877664.702729,494
1765877664.7027469,494
1765877664.7027662,494
1765877664.702785,495
1765877664.7028039,495
1765877664.702822,495
1765877664.702841,495
1765877664.702859,494
1765877664.702878,494
1765877664.702896,495
1765877664.702915,494
1765877664.702933,495
1765877664.7029529,495
1765877664.7029781,495
1765877664.702998,494
1765877664.703017,495
1765877664.703031,495
1765877664.703042,495
1765877664.7030542,496
1765877664.703066,497
1765877664.703077,496
1765877664.703088,495
1765877664.7031,495
1765877664.703111,496
1765877664.703122,497
1765877664.703134,496
1765877664.703145,496
1765877664.703156,496
1765877664.703167,495
1765877664.703178,496
1765877664.70319,495
1765877664.703201,495
1765877664.703212,495
1765877664.703223,496
1765877664.703234,495
1765877664.7032452,495
1765877664.7032561,494
1765877664.703268,495
1765877664.703279,495
1765877664.7032928,495
1765877664.703306,495
1765877664.703317,494
1765877664.703328,495
1765877664.70334,495
1765877664.703351,495
1765877664.703362,495
1765877664.703373,495
1765877664.703385,495
1765877664.703397,495
1765877664.7034082,495
1765877664.70342,495
1765877664.703431,495
1765877664.7034419,495
1765877664.703454,495
1765877664.703464,495
1765877664.703476,495
1765877664.703487,495
1765877664.703498,495
1765877664.703509,495
1765877664.70352,494
1765877664.703532,495
1765877664.703543,495
1765877664.703555,494
1765877664.7035651,495
1765877664.703577,495
1765877664.703588,495
1765877664.703607,494
1765877664.703618,494
1765877664.703629,495
1765877664.70364,495
1765877664.7036512,495
1765877664.7036622,494
1765877664.7036731,495
1765877664.703685,495
1765877664.7036958,495
1765877664.703707,495
1765877664.703722,495
1765877664.7037408,495
1765877664.70376,495
1765877664.703779,494
1765877664.703797,494
1765877664.703816,493
1765877664.7038348,494
1765877664.7038531,495
1765877664.703872,493
1765877664.703892,493
1765877664.7039099,494
1765877664.7039292,496
1765877664.703948,496
1765877664.703964,495
1765877664.703979,494
1765877664.703995,494
1765877664.704014,495
1765877664.70403,495
1765877664.704045,496
1765877664.704061,495
1765877664.704077,495
1765877664.7040918,495
1765877664.704107,493
1765877664.7041228,492
1765877664.704139,495
1765877664.704155,496
1765877664.70417,495
1765877664.7041862,494
1765877664.704202,493
1765877664.7042172,495
1765877664.704233,494
1765877664.704248,493
1765877664.704264,493
1765877664.704279,493
1765877664.7043588,494
1765877664.704374,494
1765877664.704418,495
1765877664.704433,495
1765877664.704445,494
1765877664.704457,493
1765877664.704468,494
1765877664.704479,494
1765877664.7044952,495
1765877664.7045069,494
1765877664.704586,494
1765877664.704598,494
1765877664.70461,495
1765877664.704621,495
1765877664.704633,495
1765877664.7046442,495
1765877664.7046552,494
1765877664.7046669,494
1765877664.70469,494
1765877664.704702,495
1765877664.704714,494
1765877664.704725,495
1765877664.704736,495
1765877664.704748,495
1765877664.7047591,496
1765877664.704771,495
1765877664.704782,494
1765877664.704851,495
1765877664.704863,495
1765877664.704874,494
1765877664.704885,495
1765877664.704897,495
1765877664.7049081,494
1765877664.704919,494
1765877664.704936,494
1765877664.704947,495
1765877664.704959,495
1765877664.70497,495
1765877664.704981,495
1765877664.704992,495
1765877664.705003,494
1765877664.705014,495
1765877664.7050261,495
1765877664.705037,495
1765877664.705048,495
1765877664.705059,495
1765877664.70507,494
1765877664.7050822,495
1765877664.705096,495
1765877664.705112,496
1765877664.705127,495
1765877664.705142,495
1765877664.705158,495
1765877664.705174,496
1765877664.7051892,496
1765877664.705205,495
1765877664.70522,494
1765877664.705236,493
1765877664.7052522,494
1765877664.705267,494
1765877664.705288,494
1765877664.7053041,494
1765877664.70532,494
1765877664.7053351,495
1765877664.7053509,495
1765877664.7053661,495
1765877664.7053819,495
1765877664.705397,495
1765877664.7054121,494
1765877664.705428,495
1765877664.705444,495
1765877664.7054589,495
1765877664.705475,495
1765877664.7054899,495
1765877664.7055051,495
1765877664.7055209,496
1765877664.705537,496
1765877664.7055519,495
1765877664.705568,496
1765877664.705583,495
1765877664.705599,495
1765877664.705614,494
1765877664.70563,495
1765877664.705646,494
1765877664.705662,494
1765877664.705678,494
1765877664.705696,494
1765877664.705707,494
1765877664.705719,494
1765877664.70573,495
1765877664.7057421,495
1765877664.705753,495
1765877664.705765,495
1765877664.7057762,494
1765877664.705787,495
1765877664.7057989,496
1765877664.7058098,495
1765877664.7058291,495
1765877664.7058408,494
1765877664.705869,495
1765877664.7058802,495
1765877664.705892,495
1765877664.705903,495
1765877664.705914,495
1765877664.705926,494
1765877664.7059379,495
1765877664.7059488,495
1765877664.705961,495
1765877664.705972,495
1765877664.705984,495
1765877664.705995,495
1765877664.706007,495
1765877664.706021,495
1765877664.706033,495
1765877664.706044,495
1765877664.7060559,495
1765877664.7060668,495
1765877664.706078,495
1765877664.706089,495
1765877664.7061,495
1765877664.706112,495
1765877664.706123,495
1765877664.706134,495
1765877664.706145,495
1765877664.706156,495
1765877664.7061682,494
1765877664.7061791,495
1765877664.70619,495
1765877664.706201,495
1765877664.7062132,495
1765877664.7062242,495
1765877664.706235,495
1765877664.706246,495
1765877664.7062578,495
1765877664.706269,495
1765877664.70628,495
1765877664.706291,495
1765877664.706302,496
1765877664.706316,495
1765877664.706329,494
1765877664.70634,495
1765877664.7063522,495
1765877664.706363,495
1765877664.706374,495
1765877664.706385,495
1765877664.7063968,494
1765877664.706408,495
1765877664.706419,495
1765877664.70643,495
1765877664.706441,495
1765877664.706452,495
1765877664.7064629,495
1765877664.706474,495
1765877664.706486,495
1765877664.706497,495
1765877664.706508,495
1765877664.70652,495
1765877664.706537,495
1765877664.706552,495
1765877664.7065659,495
1765877664.7065768,495
1765877664.7065878,496
1765877664.7066,495
1765877664.706611,495
1765877664.706626,495
1765877664.706638,495
1765877664.706649,495
1765877664.7066612,495
1765877664.7066722,495
1765877664.706683,495
1765877664.706694,495
1765877664.7067058,495
1765877664.706718,495
1765877664.706729,495
1765877664.706741,495
1765877664.706752,495
1765877664.706763,495
1765877664.706774,495
1765877664.7067862,495
1765877664.7067971,495
1765877664.706809,495
1765877664.70682,495
1765877664.7068312,495
1765877664.7068439,495
1765877664.7068548,496
1765877664.706866,495
1765877664.706877,495
1765877664.706889,495
1765877664.7069,495
1765877664.706911,495
1765877664.7069252,495
1765877664.706938,495
1765877664.706951,495
1765877664.7069619,495
1765877664.7069728,495
1765877664.706984,495
1765877664.706996,495
1765877664.707007,495
1765877664.707019,495
1765877664.70703,495
1765877664.707042,495
1765877664.707053,495
1765877664.7070642,495
1765877664.707075,495
1765877664.707087,495
1765877664.707098,495
1765877664.7071092,495
1765877664.7071202,495
1765877664.7071319,495
1765877664.7071428,495
1765877664.707154,495
1765877664.707166,495
1765877664.707177,495
1765877664.707189,495
1765877664.7072,495
1765877664.707211,495
1765877664.707233,495
1765877664.7072482,495
1765877664.70726,495
1765877664.7072709,495
1765877664.7072818,495
1765877664.707293,495
1765877664.707305,495
1765877664.707316,495
1765877664.707327,495
1765877664.707338,494
1765877664.707349,496
1765877664.70736,495
1765877664.707372,495
1765877664.7073832,495
1765877664.7073941,495
1765877664.707406,495
1765877664.707417,495
1765877664.7074292,496
1765877664.7074401,495
1765877664.7074509,495
1765877664.7074618,495
1765877664.707489,495
1765877664.7075021,495
1765877664.707513,495
1765877664.707525,495
1765877664.707536,495
1765877664.707551,495
1765877664.707563,495
1765877664.7075741,495
1765877664.707585,495
1765877664.707596,495
1765877664.707608,496
1765877664.7076192,496
1765877664.7076302,496
1765877664.7076411,496
1765877664.707652,496
1765877664.707663,496
1765877664.707674,496
1765877664.707686,496
1765877664.707697,496
1765877664.7077088,496
1765877664.70772,497
1765877664.707731,496
1765877664.707743,496
1765877664.707754,496
1765877664.707766,496
1765877664.707777,497
1765877664.707788,496
1765877664.707799,496
1765877664.7078102,495
1765877664.7078211,496
1765877664.707833,497
1765877664.707881,496
1765877664.707892,495
1765877664.707903,495
1765877664.7079139,495
1765877664.707926,496
1765877664.707938,495
1765877664.7079492,495
1765877664.7079601,495
1765877664.707972,495
1765877664.707983,495
1765877664.7079942,496
1765877664.708006,495
1765877664.7080169,496
1765877664.7080278,495
1765877664.7080388,495
1765877664.708051,495
1765877664.708062,495
1765877664.708073,495
1765877664.708085,495
1765877664.708096,495
1765877664.708107,495
1765877664.708118,495
1765877664.708129,495
1765877664.7081401,496
1765877664.708151,496
1765877664.708162,495
1765877664.7081769,495
1765877664.708189,496
1765877664.7082,495
1765877664.708211,495
1765877664.708222,495
1765877664.708265,495
1765877664.708277,494
1765877664.708289,495
1765877664.7083,495
1765877664.708311,495
1765877664.708323,496
1765877664.708334,495
1765877664.7083452,495
1765877664.7083561,495
1765877664.708367,496
1765877664.708378,495
1765877664.708389,496
1765877664.708401,495
1765877664.708412,496
1765877664.708423,496
1765877664.7084339,495
1765877664.7084448,495
1765877664.708456,495
1765877664.708467,495
1765877664.708478,495
1765877664.70849,495
1765877664.708501,495
1765877664.7085161,495
1765877664.708527,495
1765877664.708538,495
1765877664.708549,495
1765877664.70856,495
1765877664.708571,495
1765877664.708582,495
1765877664.708593,495
1765877664.7086039,495
1765877664.7086148,495
1765877664.708626,495
1765877664.708638,495
1765877664.708649,495
1765877664.70866,496
1765877664.708671,495
1765877664.708682,495
1765877664.708693,495
1765877664.708704,495
1765877664.708716,495
1765877664.7087271,495
1765877664.708738,495
1765877664.708749,495
1765877664.70876,495
1765877664.708771,495
1765877664.7087822,495
1765877664.708801,495
1765877664.708815,495
1765877664.7088268,495
1765877664.708837,495
1765877664.708849,495
1765877664.70886,495
1765877664.708871,495
1765877664.7088819,495
1765877664.7088928,495
1765877664.708904,495
1765877664.708916,495
1765877664.708927,495
1765877664.708938,495
1765877664.70895,495
1765877664.708961,495
1765877664.708972,495
1765877664.708983,495
1765877664.7089942,495
1765877664.709005,495
1765877664.709016,495
1765877664.709027,495
1765877664.7090392,495
1765877664.7090502,495
1765877664.7090611,495
1765877664.7090728,496
1765877664.7090838,496
1765877664.709096,496
1765877664.7091131,495
1765877664.709124,496
1765877664.709135,496
1765877664.709146,496
1765877664.7091572,495
1765877664.7091682,495
1765877664.709179,495
1765877664.70919,495
1765877664.7092009,495
1765877664.7092118,495
1765877664.7092228,496
1765877664.709234,495
1765877664.709246,495
1765877664.709257,495
1765877664.7092679,495
1765877664.709279,495
1765877664.70929,496
1765877664.709301,496
1765877664.709312,496
1765877664.709323,495
1765877664.709335,495
1765877664.709346,495
1765877664.709358,495
1765877664.7093692,495
1765877664.7093801,496
1765877664.709391,496
1765877664.709406,495
1765877664.7094169,496
1765877664.709428,496
1765877664.709439,495
1765877664.70945,495
1765877664.709461,495
1765877664.709472,495
1765877664.709483,495
1765877664.709494,495
1765877664.709505,495
1765877664.709516,496
1765877664.709527,495
1765877664.709538,495
1765877664.709549,496
1765877664.7095602,496
1765877664.7095711,495
1765877664.709582,495
1765877664.709594,495
1765877664.7096052,495
1765877664.7096162,496
1765877664.709627,495
1765877664.7096379,496
1765877664.7096488,496
1765877664.7096598,495
1765877664.709671,496
1765877664.709682,495
1765877664.709697,495
1765877664.709708,495
1765877664.709719,496
1765877664.7097301,496
1765877664.709741,495
1765877664.709752,495
1765877664.709763,495
1765877664.709774,495
1765877664.709785,495
1765877664.7097962,496
1765877664.7098072,496
1765877664.7098181,495
1765877664.709829,496
1765877664.7098398,495
1765877664.7098508,496
1765877664.709862,496
1765877664.709873,495
1765877664.709884,496
1765877664.709895,495
1765877664.7099059,496
1765877664.7099168,496
1765877664.709928,496
1765877664.709939,496
1765877664.70995,496
1765877664.709961,496
1765877664.709972,495
1765877664.709988,496
1765877664.709999,496
1765877664.71001,495
1765877664.710022,495
1765877664.710033,495
1765877664.710044,496
1765877664.7100549,495
1765877664.710067,495
1765877664.710078,496
1765877664.710089,495
1765877664.710101,495
1765877664.710112,495
1765877664.710123,495
1765877664.710134,495
1765877664.710145,495
1765877664.710156,495
1765877664.710167,496
1765877664.7101781,495
1765877664.710189,496
1765877664.7102,496
1765877664.710212,495
1765877664.7102232,496
1765877664.7102342,495
1765877664.7102451,495
1765877664.7102568,495
1765877664.710274,495
1765877664.710289,495
1765877664.7103,496
1765877664.710312,496
1765877664.710324,495
1765877664.710335,495
1765877664.710346,496
1765877664.710357,495
1765877664.710369,496
1765877664.71038,495
1765877664.710391,496
1765877664.710402,495
1765877664.710413,496
1765877664.7104251,495
1765877664.710436,495
1765877664.710447,495
1765877664.710458,495
1765877664.710469,495
1765877664.71048,496
1765877664.710491,496
1765877664.710502,496
1765877664.7105138,496
1765877664.710525,495
1765877664.7105348,495
1765877664.710547,495
1765877664.710558,495
1765877664.710569,496
1765877664.710583,496
1765877664.710594,495
1765877664.7106051,496
1765877664.710616,496
1765877664.710627,496
1765877664.710638,495
1765877664.710649,494
1765877664.71066,495
1765877664.710672,496
1765877664.7106829,496
1765877664.7106938,496
1765877664.7107048,496
1765877664.710716,497
1765877664.710728,496
1765877664.710739,495
1765877664.7107499,495
1765877664.710761,496
1765877664.710772,495
1765877664.71088,495
1765877664.710895,496
1765877664.711023,495
1765877664.71104,496
1765877664.7110531,496
1765877664.711083,496
1765877664.711095,496
1765877664.711127,495
1765877664.7111528,496
1765877664.711166,495
1765877664.7111812,495
1765877664.711193,495
1765877664.711213,495
1765877664.7112262,496
1765877664.711238,495
1765877664.7112498,496
1765877664.7113411,495
1765877664.7113621,496
1765877664.711374,495
1765877664.7114098,495
1765877664.711426,495
1765877664.7114382,495
1765877664.7114491,496
1765877664.71146,495
1765877664.711472,496
1765877664.7114828,496
1765877664.711494,496
1765877664.711505,495
1765877664.711537,496
1765877664.71155,496
1765877664.711562,496
1765877664.711584,495
1765877664.7116349,496
1765877664.711648,496
1765877664.711662,496
1765877664.711762,496
1765877664.7117739,495
1765877664.711812,495
1765877664.711824,496
1765877664.711835,495
1765877664.7118468,495
1765877664.711858,495
1765877664.711869,495
1765877664.711881,496
1765877664.711892,496
1765877664.711904,495
1765877664.711916,496
1765877664.711927,495
1765877664.711939,496
1765877664.71195,495
1765877664.7119622,495
1765877664.711974,496
1765877664.7119849,495
1765877664.7119958,496
1765877664.712008,495
1765877664.71202,495
1765877664.712031,495
1765877664.712042,496
1765877664.712054,495
1765877664.712066,495
1765877664.7120798,495
1765877664.712092,495
1765877664.7121038,495
1765877664.712115,495
1765877664.712127,495
1765877664.712138,495
1765877664.71215,495
1765877664.712161,496
1765877664.712173,495
1765877664.712184,495
1765877664.7121952,495
1765877664.712207,495
1765877664.712218,496
1765877664.71223,495
1765877664.7122428,495
1765877664.712257,495
1765877664.71227,495
1765877664.712288,495
1765877664.712301,496
1765877664.7123141,496
1765877664.712327,496
1765877664.712341,496
1765877664.712354,497
1765877664.712367,497
1765877664.71238,497
1765877664.712394,497
1765877664.7124119,497
1765877664.712426,497
1765877664.712439,496
1765877664.7124531,497
1765877664.712467,497
1765877664.71248,496
1765877664.7124941,496
1765877664.7125068,497
1765877664.71252,496
1765877664.712534,496
1765877664.712547,496
1765877664.7125602,497
1765877664.7125728,497
1765877664.712586,496
1765877664.7126,496
1765877664.712613,496
1765877664.712627,496
1765877664.71264,496
1765877664.712654,496
1765877664.712667,496
1765877664.712681,496
1765877664.712694,496
1765877664.712707,496
1765877664.71272,496
1765877664.712733,495
1765877664.712746,496
1765877664.71276,495
1765877664.712777,495
1765877664.712791,495
1765877664.712804,496
1765877664.712817,495
1765877664.712831,496
1765877664.712845,495
1765877664.712859,495
1765877664.712872,495
1765877664.712885,495
1765877664.712898,496
1765877664.7129111,495
1765877664.712924,496
1765877664.712938,496
1765877664.712951,495
1765877664.712965,496
1765877664.712978,495
1765877664.712991,496
1765877664.713004,495
1765877664.7130182,495
1765877664.7130308,496
1765877664.713044,496
1765877664.713058,496
1765877664.713071,495
1765877664.713085,495
1765877664.713099,495
1765877664.713112,495
1765877664.7131279,495
1765877664.713143,495
1765877664.713156,496
1765877664.7131689,495
1765877664.713182,495
1765877664.713195,494
1765877664.713208,495
1765877664.713221,495
1765877664.713234,496
1765877664.713247,496
1765877664.71326,495
1765877664.713273,495
1765877664.713286,495
1765877664.7133,495
1765877664.713312,495
1765877664.713325,495
1765877664.7133389,496
1765877664.713352,495
1765877664.713366,495
1765877664.7133791,495
1765877664.713392,496
1765877664.713405,495
1765877664.713418,494
1765877664.713432,495
1765877664.7134452,495
1765877664.7134578,495
1765877664.713475,495
1765877664.7134888,495
1765877664.713502,495
1765877664.713515,496
1765877664.7135282,495
1765877664.713542,495
1765877664.7135549,495
1765877664.713568,496
1765877664.713581,495
1765877664.713595,496
1765877664.713608,495
1765877664.713621,495
1765877664.713634,495
1765877664.7136471,495
1765877664.713661,495
1765877664.713674,495
1765877664.713687,495
1765877664.7137,496
1765877664.713714,495
1765877664.713727,496
1765877664.71374,496
1765877664.713753,495
1765877664.7137659,495
1765877664.713779,495
1765877664.713792,496
1765877664.7138062,495
1765877664.713822,496
1765877664.713834,495
1765877664.713845,496
1765877664.713856,495
1765877664.713867,495
1765877664.713878,495
1765877664.71389,495
1765877664.713901,495
1765877664.713912,495
1765877664.7139242,495
1765877664.7139351,495
1765877664.7139468,495
1765877664.7139578,495
1765877664.713969,496
1765877664.71398,495
1765877664.7139919,495
1765877664.7140028,495
1765877664.714015,496
1765877664.714026,496
1765877664.7140381,495
1765877664.71405,496
1765877664.714061,495
1765877664.7140732,496
1765877664.7140841,495
1765877664.714096,496
1765877664.7141068,496
1765877664.7141209,496
1765877664.714134,495
1765877664.714145,495
1765877664.714157,496
1765877664.714168,496
1765877664.71418,495
1765877664.7141912,495
1765877664.714203,495
1765877664.7142138,495
1765877664.7142248,496
1765877664.714236,495
1765877664.714248,496
1765877664.714259,496
1765877664.714272,495
1765877664.714284,495
1765877664.7142951,495
1765877664.714307,496
1765877664.714318,495
1765877664.7143302,496
1765877664.7143419,496
1765877664.7143528,495
1765877664.7143638,495
1765877664.714375,496
1765877664.714387,496
1765877664.714398,495
1765877664.7144089,495
1765877664.71442,495
1765877664.714435,495
1765877664.714446,495
1765877664.714457,496
1765877664.7144692,496
1765877664.7144802,495
1765877664.7144918,496
1765877664.714529,495
1765877664.714541,495
1765877664.7145522,496
1765877664.714564,495
1765877664.7145758,496
1765877664.71464,495
1765877664.714653,496
1765877664.714664,495
1765877664.714677,496
1765877664.714688,496
1765877664.7147,496
1765877664.7147121,496
1765877664.714723,495
1765877664.714734,495
1765877664.714746,495
1765877664.7147799,496
1765877664.714793,496
1765877664.714804,496
1765877664.714815,495
1765877664.714827,494
1765877664.714852,494
1765877664.714864,495
1765877664.714875,495
1765877664.714914,496
1765877664.7149282,495
1765877664.7149389,495
1765877664.7149508,495
1765877664.714963,495
1765877664.714974,494
1765877664.714986,494
1765877664.714997,495
1765877664.715009,495
1765877664.7150211,495
1765877664.715033,495
1765877664.715044,495
1765877664.7150562,495
1765877664.715067,495
1765877664.7150779,495
1765877664.71509,495
1765877664.715101,495
1765877664.715113,495
1765877664.715124,496
1765877664.7151492,496
1765877664.7151601,496
1765877664.715172,496
1765877664.715183,496
1765877664.7151968,494
1765877664.715209,495
1765877664.71522,495
1765877664.715231,495
1765877664.715243,495
1765877664.715254,496
1765877664.715265,496
1765877664.715276,494
1765877664.715287,495
1765877664.7152991,494
1765877664.71531,495
1765877664.715321,494
1765877664.715332,494
1765877664.715343,494
1765877664.7153542,495
1765877664.715366,495
1765877664.7153769,495
1765877664.7153878,495
1765877664.715399,495
1765877664.71541,496
1765877664.715421,495
1765877664.715433,496
1765877664.7154438,495
1765877664.715455,495
1765877664.715467,495
1765877664.715478,494
1765877664.715492,494
1765877664.715505,494
1765877664.7155159,494
1765877664.715528,494
1765877664.715539,493
1765877664.715551,492
1765877664.7155619,492
1765877664.715957,492
1765877664.715969,494
1765877664.71598,495
1765877664.715992,496
1765877664.7160032,495
1765877664.7160141,496
1765877664.716026,495
1765877664.716037,495
1765877664.7160478,496
1765877664.716059,496
1765877664.71607,495
1765877664.7160819,495
1765877664.7160928,495
1765877664.716104,496
1765877664.716115,495
1765877664.716127,495
1765877664.716138,494
1765877664.716149,494
1765877664.716161,493
1765877664.716175,494
1765877664.7161868,495
1765877664.716198,495
1765877664.716209,494
1765877664.71622,494
1765877664.7162309,494
1765877664.716243,496
1765877664.716254,495
1765877664.716265,495
1765877664.716276,495
1765877664.716287,495
1765877664.716299,494
1765877664.71631,494
1765877664.716321,493
1765877664.716332,494
1765877664.716343,496
1765877664.716355,496
1765877664.716366,495
1765877664.7163782,495
1765877664.7163892,495
1765877664.7164001,494
1765877664.7164118,494
1765877664.7164228,493
1765877664.716434,493
1765877664.716446,494
1765877664.716457,494
1765877664.7164679,494
1765877664.7164822,495
1765877664.7164931,495
1765877664.716504,495
1765877664.716516,494
1765877664.716527,494
1765877664.716539,493
1765877664.7165508,493
1765877664.716562,494
1765877664.716574,495
1765877664.716585,495
1765877664.716596,494
1765877664.716607,494
1765877664.716618,495
1765877664.71663,495
1765877664.716641,495
1765877664.716653,494
1765877664.716664,494
1765877664.716676,494
1765877664.7166872,495
1765877664.7166982,496
1765877664.7167091,495
1765877664.7167208,494
1765877664.7167318,494
1765877664.716744,496
1765877664.716755,494
1765877664.7167659,494
1765877664.71678,495
1765877664.716793,495
1765877664.716804,495
1765877664.716815,495
1765877664.716827,494
1765877664.716838,494
1765877664.7168498,494
1765877664.716861,494
1765877664.716872,494
1765877664.716883,492
1765877664.716894,490
1765877664.716906,490
1765877664.716917,491
1765877664.716928,494
1765877664.71694,497
1765877664.7169511,496
1765877664.716963,495
1765877664.716974,494
1765877664.716985,495
1765877664.7169971,495
1765877664.7170079,493
1765877664.7170188,494
1765877664.7170298,495
1765877664.7170408,495
1765877664.717053,495
1765877664.717064,495
1765877664.717078,496
1765877664.717091,495
1765877664.717102,494
1765877664.717113,493
1765877664.7171252,494
1765877664.717136,492
1765877664.7171469,489
1765877664.7171578,492
1765877664.7171688,495
1765877664.71718,496
1765877664.717192,496
1765877664.717203,496
1765877664.7172139,495
1765877664.717226,495
1765877664.717237,495
1765877664.717249,491
1765877664.7172601,488
1765877664.717272,488
1765877664.717283,491
1765877664.717294,497
1765877664.7173052,503
1765877664.7173162,502
1765877664.717327,499
1765877664.717338,495
1765877664.717349,493
1765877664.717361,490
1765877664.717372,492
1765877664.717387,494
1765877664.717398,492
1765877664.71741,495
1765877664.717421,497
1765877664.717432,496
1765877664.7174442,493
1765877664.7174551,492
1765877664.717466,493
1765877664.717477,493
1765877664.717488,497
1765877664.7174988,499
1765877664.717511,497
1765877664.717522,497
1765877664.717534,496
1765877664.717545,495
1765877664.717557,495
1765877664.717568,495
1765877664.7175791,494
1765877664.717591,494
1765877664.717602,493
1765877664.717613,494
1765877664.7176251,496
1765877664.717636,495
1765877664.717647,495
1765877664.717659,493
1765877664.71767,495
1765877664.717686,494
1765877664.717697,491
1765877664.717709,491
1765877664.71772,489
1765877664.717731,494
1765877664.717742,499
1765877664.7177541,499
1765877664.717765,495
1765877664.7177758,494
1765877664.717788,493
1765877664.7178,491
1765877664.717812,493
1765877664.717823,495
1765877664.717834,494
1765877664.717845,495
1765877664.7178571,497
1765877664.717868,495
1765877664.717879,496
1765877664.71789,495
1765877664.7179022,495
1765877664.7179132,495
1765877664.717924,494
1765877664.717935,494
1765877664.717946,495
1765877664.717958,494
1765877664.717969,495
1765877664.717982,495
1765877664.717995,495
1765877664.7180061,495
1765877664.718018,495
1765877664.718029,496
1765877664.71804,495
1765877664.718051,495
1765877664.718063,495
1765877664.718074,495
1765877664.718085,494
1765877664.718097,495
1765877664.718108,495
1765877664.718119,495
1765877664.7181299,495
1765877664.718142,494
1765877664.718153,495
1765877664.718164,495
1765877664.718176,495
1765877664.718187,495
1765877664.718198,494
1765877664.718209,494
1765877664.71822,494
1765877664.7182322,494
1765877664.7182431,495
1765877664.718255,495
1765877664.718267,495
1765877664.7182798,493
1765877664.718293,491
1765877664.718304,491
1765877664.7183151,495
1765877664.718326,498
1765877664.718338,495
1765877664.718349,494
1765877664.71836,493
1765877664.718372,493
1765877664.718383,491
1765877664.718394,491
1765877664.718405,492
1765877664.718417,494
1765877664.718428,496
1765877664.7184389,496
1765877664.7185202,496
1765877664.718532,495
1765877664.7185438,494
1765877664.718555,495
1765877664.718567,495
1765877664.7185779,495
1765877664.71859,494
1765877664.718601,495
1765877664.718612,495
1765877664.718623,494
1765877664.718634,495
1765877664.718646,494
1765877664.718661,495
1765877664.7186718,495
1765877664.718684,495
1765877664.718695,495
1765877664.718706,494
1765877664.718718,494
1765877664.718729,494
1765877664.71874,495
1765877664.718751,495
1765877664.718762,495
1765877664.718774,495
1765877664.718786,495
1765877664.718797,495
1765877664.7188091,495
1765877664.71882,495
1765877664.718831,494
1765877664.718843,495
1765877664.718854,495
1765877664.7188659,494
1765877664.7188768,494
1765877664.718888,494
1765877664.718899,495
1765877664.71891,495
1765877664.7189918,494
1765877664.719004,495
1765877664.7190158,495
1765877664.719035,495
1765877664.7190468,495
1765877664.719291,494
1765877664.719303,495
1765877664.7193139,494
1765877664.7193248,495
1765877664.719337,495
1765877664.719348,495
1765877664.719359,494
1765877664.71937,495
1765877664.719381,495
1765877664.719392,495
1765877664.719403,494
1765877664.719414,494
1765877664.7194262,495
1765877664.7194371,495
1765877664.719448,495
1765877664.719459,495
1765877664.71947,495
1765877664.719481,495
1765877664.7194922,495
1765877664.7195039,495
1765877664.7195148,495
1765877664.7195258,495
1765877664.7195368,495
1765877664.719548,495
1765877664.719562,495
1765877664.719574,495
1765877664.7195861,495
1765877664.719597,495
1765877664.719608,494
1765877664.719619,495
1765877664.71963,495
1765877664.719641,495
1765877664.7196522,495
1765877664.7196631,495
1765877664.719674,495
1765877664.7196858,495
1765877664.719697,495
1765877664.719708,495
1765877664.71972,495
1765877664.7197309,495
1765877664.719743,495
1765877664.719754,495
1765877664.719765,494
1765877664.719776,494
1765877664.7197871,495
1765877664.719798,495
1765877664.719809,495
1765877664.71982,495
1765877664.7198322,495
1765877664.7198431,495
1765877664.719854,496
1765877664.719871,496
1765877664.719883,495
1765877664.719894,495
1765877664.7199051,495
1765877664.719917,495
1765877664.719928,494
1765877664.719939,495
1765877664.7199502,495
1765877664.7199612,495
1765877664.7199721,495
1765877664.719983,495
1765877664.719994,495
1765877664.720006,495
1765877664.720078,495
1765877664.7200902,495
1765877664.720101,495
1765877664.7201128,495
1765877664.720124,495
1765877664.720135,495
1765877664.720146,495
1765877664.720157,495
1765877664.720169,495
1765877664.72018,495
1765877664.720191,495
1765877664.720202,495
1765877664.720213,494
1765877664.7202282,494
1765877664.7202408,494
1765877664.7202518,495
1765877664.720264,495
1765877664.720275,495
1765877664.720286,495
1765877664.7202969,495
1765877664.720308,495
1765877664.720319,495
1765877664.72033,495
1765877664.720342,495
1765877664.720354,495
1765877664.720365,495
1765877664.720376,495
1765877664.720387,495
1765877664.7203991,495
1765877664.72041,495
1765877664.720421,495
1765877664.720433,495
1765877664.720444,495
1765877664.720455,495
1765877664.720466,495
1765877664.7204769,495
1765877664.7204878,495
1765877664.720499,495
1765877664.720511,495
1765877664.720525,495
1765877664.7205372,495
1765877664.7205482,495
1765877664.72056,495
1765877664.7205708,495
1765877664.7205818,495
1765877664.720594,495
1765877664.720605,495
1765877664.7206159,494
1765877664.720628,495
1765877664.720639,495
1765877664.72065,495
1765877664.720661,495
1765877664.720672,495
1765877664.720684,494
1765877664.720695,495
1765877664.720725,494
1765877664.720769,495
1765877664.720811,495
1765877664.720823,495
1765877664.720834,495
1765877664.7208462,495
1765877664.7208571,495
1765877664.720868,495
1765877664.720879,495
1765877664.720891,494
1765877664.720905,495
1765877664.720917,494
1765877664.720928,494
1765877664.72094,495
1765877664.720951,495
1765877664.720962,495
1765877664.720974,495
1765877664.7209852,494
1765877664.720997,495
1765877664.721008,495
1765877664.72102,494
1765877664.721031,494
1765877664.721042,495
1765877664.721053,495
1765877664.721065,495
1765877664.721076,495
1765877664.721088,495
1765877664.721099,495
1765877664.721111,496
1765877664.721122,495
1765877664.721133,495
1765877664.721144,495
1765877664.7211561,495
1765877664.721167,494
1765877664.721178,495
1765877664.72119,495
1765877664.721201,495
1765877664.721214,495
1765877664.721227,495
1765877664.721238,495
1765877664.721249,495
1765877664.72126,495
1765877664.721272,495
1765877664.721283,495
1765877664.7212942,495
1765877664.7213051,495
1765877664.721317,495
1765877664.721328,494
1765877664.721339,495
1765877664.721351,495
1765877664.7213619,495
1765877664.7213728,495
1765877664.721385,494
1765877664.721396,495
1765877664.721407,495
1765877664.721418,495
1765877664.72143,494
1765877664.721441,495
1765877664.721452,495
1765877664.721463,495
1765877664.7214751,494
1765877664.721486,494
1765877664.721497,495
1765877664.721511,494
1765877664.721524,495
1765877664.721536,495
1765877664.7215471,495
1765877664.721558,495
1765877664.721592,494
1765877664.7216032,494
1765877664.721615,494
1765877664.721626,495
1765877664.721638,495
1765877664.7216482,495
1765877664.721659,495
1765877664.7216692,495
1765877664.72168,495
1765877664.7216902,495
1765877664.7217002,495
1765877664.72171,495
1765877664.72172,495
1765877664.72173,495
1765877664.72174,495
1765877664.72175,494
1765877664.72176,494
1765877664.72177,495
1765877664.721781,495
1765877664.721812,495
1765877664.721823,494
1765877664.721836,494
1765877664.721848,494
1765877664.721858,495
1765877664.721868,495
1765877664.721878,494
1765877664.721888,495
1765877664.721898,495
1765877664.722008,495
1765877664.722018,495
1765877664.722029,495
1765877664.722039,495
1765877664.72205,495
1765877664.72206,495
1765877664.72207,495
1765877664.72208,495
1765877664.72209,495
1765877664.7221,495
1765877664.72211,495
1765877664.722121,495
1765877664.722131,496
1765877664.722141,495
1765877664.7221508,496
1765877664.722162,497
1765877664.722172,496
1765877664.7221818,496
1765877664.7221918,496
1765877664.722202,497
1765877664.7222168,497
1765877664.7222269,496
1765877664.7222369,496
1765877664.7222478,496
1765877664.7222579,496
1765877664.7222679,497
1765877664.7222779,496
1765877664.7222881,496
1765877664.7222981,496
1765877664.722309,495
1765877664.7223191,495
1765877664.7223291,495
1765877664.7223392,495
1765877664.7223492,495
1765877664.7223601,495
1765877664.7223701,495
1765877664.72238,495
1765877664.7224278,495
1765877664.7224388,495
1765877664.7224488,495
1765877664.7224588,495
1765877664.722469,495
1765877664.722479,495
1765877664.722489,495
1765877664.7224991,495
1765877664.7225091,495
1765877664.722522,495
1765877664.7225332,495
1765877664.722543,495
1765877664.722553,494
1765877664.722563,495
1765877664.722573,495
1765877664.722583,495
1765877664.722593,495
1765877664.722603,495
1765877664.722613,495
1765877664.7226229,495
1765877664.722633,495
1765877664.722643,495
1765877664.722653,495
1765877664.722663,495
1765877664.722673,495
1765877664.722683,494
1765877664.722694,495
1765877664.722704,495
1765877664.7227142,494
1765877664.7227242,494
1765877664.722734,495
1765877664.722744,495
1765877664.722754,495
1765877664.722764,496
1765877664.722774,495
1765877664.72279,495
1765877664.722801,495
1765877664.722811,495
1765877664.7228212,495
1765877664.722832,495
1765877664.7228422,495
1765877664.722852,495
1765877664.722862,495
1765877664.722872,495
1765877664.722882,495
1765877664.722892,495
1765877664.722902,495
1765877664.722912,495
1765877664.722922,495
1765877664.7229319,495
1765877664.7229419,494
1765877664.722952,495
1765877664.722962,495
1765877664.722972,495
1765877664.722982,495
1765877664.7229922,495
1765877664.723003,495
1765877664.7230132,495
1765877664.7230232,495
1765877664.7230332,495
1765877664.723043,495
1765877664.7230568,495
1765877664.723069,495
1765877664.723079,495
1765877664.723089,495
1765877664.723098,495
1765877664.723108,495
1765877664.723118,494
1765877664.723128,495
1765877664.723138,494
1765877664.723148,494
1765877664.7231581,495
1765877664.723168,495
1765877664.723178,495
1765877664.723188,495
1765877664.723198,495
1765877664.723207,495
1765877664.723217,495
1765877664.7232268,495
1765877664.723238,495
1765877664.723247,495
1765877664.723257,495
1765877664.723267,495
1765877664.723277,495
1765877664.723287,495
1765877664.723297,495
1765877664.723307,495
1765877664.723317,495
1765877664.723331,495
1765877664.723341,496
1765877664.723351,495
1765877664.723361,495
1765877664.723371,495
1765877664.723381,495
1765877664.723392,495
1765877664.723402,495
1765877664.723412,495
1765877664.723422,495
1765877664.7234318,496
1765877664.7234418,495
1765877664.723451,495
1765877664.7234612,495
1765877664.7234712,495
1765877664.7234812,495
1765877664.723491,495
1765877664.723501,495
1765877664.723511,495
1765877664.723521,495
1765877664.723531,495
1765877664.723541,495
1765877664.723551,495
1765877664.723561,495
1765877664.723571,495
1765877664.723582,495
1765877664.723594,495
1765877664.723605,494
1765877664.723615,495
1765877664.723625,495
1765877664.723635,496
1765877664.723645,495
1765877664.723655,495
1765877664.723665,495
1765877664.7236748,495
1765877664.723685,495
1765877664.723694,495
1765877664.723704,495
1765877664.723714,495
1765877664.7237241,495
1765877664.723734,495
1765877664.723744,495
1765877664.723754,495
1765877664.723764,495
1765877664.723774,495
1765877664.723784,495
1765877664.723794,495
1765877664.723805,495
1765877664.723825,495
1765877664.723836,495
1765877664.723847,495
1765877664.723857,495
1765877664.7238688,495
1765877664.72388,495
1765877664.7238898,495
1765877664.7238998,495
1765877664.7239099,495
1765877664.7239199,495
1765877664.7239301,495
1765877664.7239401,495
1765877664.7239501,495
1765877664.723961,495
1765877664.72397,495
1765877664.72398,495
1765877664.72399,496
1765877664.724001,495
1765877664.724011,496
1765877664.72402,495
1765877664.724031,495
1765877664.724041,495
1765877664.7240498,495
1765877664.7240598,495
1765877664.7240698,495
1765877664.72408,496
1765877664.72409,495
1765877664.7241,495
1765877664.7241101,495
1765877664.7241201,495
1765877664.724132,495
1765877664.724142,495
1765877664.724152,495
1765877664.724162,495
1765877664.724172,496
1765877664.7241821,495
1765877664.724192,496
1765877664.724202,495
1765877664.724212,496
1765877664.724221,496
1765877664.724232,496
1765877664.724242,495
1765877664.7242508,495
1765877664.724261,495
1765877664.724271,495
1765877664.724281,495
1765877664.724291,495
1765877664.724301,495
1765877664.72431,495
1765877664.72432,495
1765877664.72433,495
1765877664.72434,495
1765877664.72435,495
1765877664.72436,496
1765877664.7243688,496
1765877664.7243788,495
1765877664.724389,495
1765877664.724401,495
1765877664.724412,495
1765877664.724421,495
1765877664.724431,495
1765877664.724441,495
1765877664.724451,495
1765877664.724461,496
1765877664.724471,495
1765877664.724481,495
1765877664.7244911,496
1765877664.724501,495
1765877664.724511,495
1765877664.724521,495
1765877664.724531,496
1765877664.724541,495
1765877664.724551,495
1765877664.7245598,495
1765877664.72457,495
1765877664.72458,495
1765877664.724591,495
1765877664.7246,495
1765877664.72461,495
1765877664.72462,495
1765877664.72463,495
1765877664.72464,495
1765877664.7251909,496
1765877664.725204,495
1765877664.725216,495
1765877664.725226,495
1765877664.725236,495
1765877664.725246,495
1765877664.725257,494
1765877664.725267,495
1765877664.725277,495
1765877664.725287,495
1765877664.725297,496
1765877664.725307,495
1765877664.725318,495
1765877664.725328,496
1765877664.7253382,496
1765877664.725348,495
1765877664.7253592,496
1765877664.725369,495
1765877664.725379,496
1765877664.725389,495
1765877664.7254012,495
1765877664.7254112,495
1765877664.725421,495
1765877664.725431,495
1765877664.725441,495
1765877664.725451,495
1765877664.725461,495
1765877664.725472,495
1765877664.725485,496
1765877664.72556,495
1765877664.7255712,495
1765877664.7255812,495
1765877664.725591,496
1765877664.7256262,496
1765877664.7256389,495
1765877664.7256489,495
1765877664.725659,495
1765877664.7256691,495
1765877664.7256792,495
1765877664.7256892,495
1765877664.725698,496
1765877664.725708,495
1765877664.725718,495
1765877664.725728,495
1765877664.725738,496
1765877664.725748,495
1765877664.7257578,495
1765877664.7257679,495
1765877664.7257779,495
1765877664.7257879,495
1765877664.725798,495
1765877664.7258072,495
1765877664.7258182,495
1765877664.7258282,495
1765877664.725843,495
1765877664.725853,496
1765877664.725863,495
1765877664.725872,495
1765877664.725882,495
1765877664.725892,495
1765877664.725902,495
1765877664.725912,496
1765877664.725922,495
1765877664.7259321,495
1765877664.7259421,496
1765877664.725952,495
1765877664.725961,495
1765877664.725971,495
1765877664.725981,495
1765877664.725991,495
1765877664.7260008,495
1765877664.7260108,495
1765877664.726021,495
1765877664.72603,495
1765877664.7260401,495
1765877664.7260501,495
1765877664.72606,495
1765877664.72607,495
1765877664.72608,495
1765877664.72609,495
1765877664.726102,495
1765877664.726112,495
1765877664.726122,495
1765877664.726132,495
1765877664.726142,495
1765877664.726152,495
1765877664.726162,495
1765877664.726172,495
1765877664.726182,495
1765877664.7261922,495
1765877664.726201,494
1765877664.726212,495
1765877664.726222,495
1765877664.726232,495
1765877664.726242,495
1765877664.726252,495
1765877664.726262,495
1765877664.726272,494
1765877664.726282,494
1765877664.726292,495
1765877664.726302,494
1765877664.726312,495
1765877664.726322,495
1765877664.726332,495
1765877664.726342,495
1765877664.726352,495
1765877664.726364,495
1765877664.7263749,494
1765877664.7263849,494
1765877664.726395,494
1765877664.7264051,494
1765877664.7264152,494
1765877664.7264252,495
1765877664.726434,494
1765877664.726444,494
1765877664.726454,494
1765877664.726464,495
1765877664.726474,494
1765877664.726484,494
1765877664.7264938,495
1765877664.7265038,495
1765877664.7265139,495
1765877664.7265239,494
1765877664.726534,494
1765877664.7265432,494
1765877664.7265532,494
1765877664.7265642,494
1765877664.726573,495
1765877664.726583,494
1765877664.726593,495
1765877664.726603,495
1765877664.726613,495
1765877664.726623,495
1765877664.726636,495
1765877664.726646,495
1765877664.726656,495
1765877664.726665,495
1765877664.726675,494
1765877664.726685,495
1765877664.7266948,496
1765877664.7267048,495
1765877664.7267148,495
1765877664.726725,495
1765877664.7267342,495
1765877664.7267442,494
1765877664.726754,495
1765877664.726764,494
1765877664.726774,494
1765877664.726784,495
1765877664.726794,494
1765877664.7268028,494
1765877664.7268128,494
1765877664.7268229,494
1765877664.7268329,494
1765877664.7268429,493
1765877664.7268538,494
1765877664.7268631,494
1765877664.726874,494
1765877664.7268841,494
1765877664.726896,493
1765877664.7269068,494
1765877664.726917,494
1765877664.726927,494
1765877664.726936,494
1765877664.726946,494
1765877664.7269561,493
1765877664.726966,493
1765877664.726976,493
1765877664.726985,493
1765877664.726995,493
1765877664.727005,493
1765877664.727015,493
1765877664.7270248,493
1765877664.727034,494
1765877664.727044,494
1765877664.727054,493
1765877664.7270641,493
1765877664.7270741,493
1765877664.727084,493
1765877664.727094,493
1765877664.727104,493
1765877664.727114,493
1765877664.727124,493
1765877664.727134,493
1765877664.727144,493
1765877664.727155,493
1765877664.727166,493
1765877664.727176,493
1765877664.727186,493
1765877664.727196,493
1765877664.727206,493
1765877664.7272162,494
1765877664.727226,493
1765877664.727236,492
1765877664.727246,492
1765877664.727256,492
1765877664.727266,492
1765877664.727276,493
1765877664.727286,492
1765877664.727296,492
1765877664.727306,492
1765877664.727317,492
1765877664.7273269,493
1765877664.727337,493
1765877664.727346,492
1765877664.727356,493
1765877664.727366,492
1765877664.727376,492
1765877664.727386,492
1765877664.727396,492
1765877664.727406,493
1765877664.727415,492
1765877664.7274282,492
1765877664.727438,492
1765877664.727448,492
1765877664.727457,492
1765877664.727467,492
1765877664.727477,492
1765877664.727487,492
1765877664.7274969,492
1765877664.7275069,492
1765877664.727517,492
1765877664.727527,492
1765877664.727537,492
1765877664.727547,491
1765877664.7275572,491
1765877664.727566,492
1765877664.727576,493
1765877664.727584,492
1765877664.727593,492
1765877664.727602,492
1765877664.7276108,492
1765877664.7276201,492
1765877664.727629,492
1765877664.727638,492
1765877664.727647,492
1765877664.727656,492
1765877664.727665,492
1765877664.727676,492
1765877664.727686,491
1765877664.727694,492
1765877664.727703,491
1765877664.727712,492
1765877664.727721,492
1765877664.72773,492
1765877664.7277389,492
1765877664.7277482,492
1765877664.727757,492
1765877664.727766,492
1765877664.7277749,492
1765877664.727784,492
1765877664.727793,492
1765877664.727804,492
1765877664.727813,492
1765877664.727821,492
1765877664.727838,492
1765877664.727848,491
1765877664.7278569,492
1765877664.727865,492
1765877664.727874,492
1765877664.727883,492
1765877664.727892,492
1765877664.727901,492
1765877664.7279098,492
1765877664.727919,492
1765877664.72793,492
1765877664.72794,492
1765877664.7279491,492
1765877664.727958,492
1765877664.727967,492
1765877664.7279758,492
1765877664.727985,492
1765877664.7279942,492
1765877664.728003,491
1765877664.728012,492
1765877664.728021,492
1765877664.72803,492
1765877664.728039,492
1765877664.7280471,492
1765877664.728056,492
1765877664.728065,492
1765877664.728074,492
1765877664.728095,492
1765877664.728106,491
1765877664.728116,492
1765877664.7281249,492
1765877664.728134,492
1765877664.7281432,492
1765877664.728153,492
1765877664.728162,492
1765877664.72817,492
1765877664.728181,492
1765877664.728191,492
1765877664.7282,492
1765877664.7282088,492
1765877664.728218,492
1765877664.7282271,492
1765877664.728236,492
1765877664.728245,492
1765877664.7282538,492
1765877664.728263,492
1765877664.728272,492
1765877664.728281,492
1765877664.72829,492
1765877664.728299,492
1765877664.728308,492
1765877664.728317,492
1765877664.7283258,492
1765877664.7283351,491
1765877664.728344,491
1765877664.728353,492
1765877664.728362,492
1765877664.728371,492
1765877664.72838,492
1765877664.728389,492
1765877664.728398,492
1765877664.7284071,492
1765877664.728416,492
1765877664.72843,492
1765877664.728439,492
1765877664.728448,492
1765877664.728457,491
1765877664.728466,492
1765877664.7284741,492
1765877664.728483,492
1765877664.728492,492
1765877664.728501,492
1765877664.72851,492
1765877664.728519,492
1765877664.7285278,492
1765877664.728537,492
1765877664.7285461,492
1765877664.728554,492
1765877664.7285628,492
1765877664.728572,493
1765877664.7285812,492
1765877664.72859,492
1765877664.728599,492
1765877664.728607,492
1765877664.728616,493
1765877664.7286248,493
1765877664.728634,492
1765877664.7286432,492
1765877664.728652,492
1765877664.728662,492
1765877664.728673,492
1765877664.7286808,492
1765877664.72869,493
1765877664.728699,493
1765877664.728708,492
1765877664.728717,493
1765877664.728726,492
1765877664.728734,492
1765877664.7287428,492
1765877664.7287521,493
1765877664.7287612,492
1765877664.72877,493
1765877664.728778,492
1765877664.728792,492
1765877664.728801,493
1765877664.72881,492
1765877664.728819,493
1765877664.728828,493
1765877664.728838,493
1765877664.728847,492
1765877664.728856,492
1765877664.728865,493
1765877664.728874,493
1765877664.728883,493
1765877664.7288918,492
1765877664.728908,492
1765877664.728918,492
1765877664.728927,492
1765877664.728936,492
1765877664.7289448,492
1765877664.728954,492
1765877664.7289631,493
1765877664.728972,493
1765877664.728981,493
1765877664.728992,492
1765877664.7289999,493
1765877664.729009,493
1765877664.7290182,493
1765877664.729027,492
1765877664.729036,493
1765877664.729045,492
1765877664.729054,492
1765877664.7290628,493
1765877664.729072,493
1765877664.7290812,493
1765877664.72909,493
1765877664.729099,493
1765877664.7291079,492
1765877664.729117,493
1765877664.729126,493
1765877664.729135,493
1765877664.7291431,492
1765877664.729184,493
1765877664.729193,492
1765877664.729203,492
1765877664.7292118,493
1765877664.729221,493
1765877664.7292302,492
1765877664.729239,492
1765877664.729255,492
1765877664.729264,492
1765877664.729275,493
1765877664.729284,493
1765877664.729294,492
1765877664.729302,493
1765877664.729311,493
1765877664.72932,493
1765877664.7293289,492
1765877664.7293382,492
1765877664.729347,492
1765877664.729356,493
1765877664.729365,493
1765877664.729374,493
1765877664.729383,493
1765877664.729392,493
1765877664.729401,493
1765877664.72941,492
1765877664.729419,492
1765877664.72943,493
1765877664.72944,493
1765877664.7294478,493
1765877664.729457,492
1765877664.7294662,492
1765877664.729475,493
1765877664.729484,492
1765877664.729493,492
1765877664.729502,493
1765877664.729511,493
1765877664.72952,493
1765877664.7295291,493
1765877664.729538,493
1765877664.729547,492
1765877664.729556,493
1765877664.729564,493
1765877664.729573,493
1765877664.729582,493
1765877664.7295911,493
1765877664.7296,493
1765877664.729609,493
1765877664.7296178,493
1765877664.729627,492
1765877664.7296362,493
1765877664.729645,493
1765877664.729654,492
1765877664.7296672,493
1765877664.729677,493
1765877664.729686,492
1765877664.729695,493
1765877664.7297049,493
1765877664.729713,493
1765877664.729723,492
1765877664.729732,492
1765877664.729741,493
1765877664.72975,493
1765877664.729759,493
1765877664.729768,493
1765877664.7297769,493
1765877664.7297862,493
1765877664.729795,493
1765877664.729804,493
1765877664.729813,493
1765877664.729822,493
1765877664.7298298,494
1765877664.729839,493
1765877664.7298481,493
1765877664.729857,493
1765877664.729866,493
1765877664.7298748,493
1765877664.7298849,493
1765877664.729894,493
1765877664.729905,493
1765877664.729915,493
1765877664.7299242,493
1765877664.729934,493
1765877664.729943,493
1765877664.729952,493
1765877664.729961,493
1765877664.729971,493
1765877664.72998,493
1765877664.729989,493
1765877664.729998,493
1765877664.730007,493
1765877664.730016,493
1765877664.730025,493
1765877664.7300348,494
1765877664.730044,493
1765877664.7300532,494
1765877664.730062,494
1765877664.730071,493
1765877664.73008,493
1765877664.730089,494
1765877664.730098,495
1765877664.7301068,494
1765877664.7301161,495
1765877664.730125,493
1765877664.730134,494
1765877664.730143,494
1765877664.730156,494
1765877664.730165,495
1765877664.730174,494
1765877664.730183,494
1765877664.730191,495
1765877664.7302,494
1765877664.730209,494
1765877664.730218,494
1765877664.7302341,494
1765877664.730243,494
1765877664.730252,494
1765877664.730261,494
1765877664.730269,494
1765877664.7302778,493
1765877664.730287,494
1765877664.7302961,493
1765877664.730305,494
1765877664.730314,493
1765877664.7303228,493
1765877664.730331,494
1765877664.73034,494
1765877664.730349,494
1765877664.7303581,493
1765877664.730367,494
1765877664.7303748,494
1765877664.7303839,494
1765877664.7303948,493
1765877664.730405,494
1765877664.730413,494
1765877664.730422,493
1765877664.730431,493
1765877664.73044,494
1765877664.730449,494
1765877664.730458,493
1765877664.730467,494
1765877664.7304761,494
1765877664.730485,493
1765877664.730494,493
1765877664.7305028,493
1765877664.7305112,493
1765877664.73052,494
1765877664.730529,494
1765877664.730538,493
1765877664.730547,493
1765877664.730556,493
1765877664.730565,493
1765877664.7305741,494
1765877664.730583,494
1765877664.730592,492
1765877664.730601,493
1765877664.73061,493
1765877664.730619,493
1765877664.73063,494
1765877664.73064,493
1765877664.730649,493
1765877664.730658,493
1765877664.730667,493
1765877664.730676,494
1765877664.730685,494
1765877664.7306938,494
1765877664.730703,494
1765877664.7307122,493
1765877664.730721,494
1765877664.73073,493
1765877664.730738,493
1765877664.730747,493
1765877664.730756,494
1765877664.730765,493
1765877664.730774,494
1765877664.730783,493
1765877664.730792,493
1765877664.7308009,493
1765877664.7308102,493
1765877664.730819,493
1765877664.730828,493
1765877664.730837,493
1765877664.730845,493
1765877664.7308538,493
1765877664.730863,494
1765877664.7308831,493
1765877664.730891,494
1765877664.7309,493
1765877664.7309089,494
1765877664.730918,493
1765877664.730927,493
1765877664.730936,493
1765877664.730946,493
1765877664.730954,493
1765877664.730963,493
1765877664.7309718,493
1765877664.730981,494
1765877664.7309902,494
1765877664.730999,493
1765877664.7310069,493
1765877664.731016,493
1765877664.731025,493
1765877664.731035,493
1765877664.731044,494
1765877664.731053,494
1765877664.731062,493
1765877664.73107,493
1765877664.7310789,494
1765877664.731088,494
1765877664.731097,493
1765877664.731106,494
1765877664.731116,494
1765877664.731126,493
1765877664.731135,493
1765877664.731144,493
1765877664.731153,493
1765877664.731162,494
1765877664.7311711,493
1765877664.73118,494
1765877664.731189,494
1765877664.7311978,494
1765877664.731207,494
1765877664.731216,493
1765877664.731225,493
1765877664.7312331,494
1765877664.731242,493
1765877664.731251,493
1765877664.7312598,493
1765877664.7312691,494
1765877664.7312782,494
1765877664.731286,494
1765877664.7312949,494
1765877664.731304,494
1765877664.731313,493
1765877664.731322,493
1765877664.731331,493
1765877664.731339,494
1765877664.73135,494
1765877664.73136,494
1765877664.7313678,494
1765877664.731377,494
1765877664.7313862,494
1765877664.731395,494
1765877664.731404,493
1765877664.731412,494
1765877664.731421,494
1765877664.7314298,494
1765877664.731439,494
1765877664.7314482,494
1765877664.731457,494
1765877664.731466,494
1765877664.7314749,494
1765877664.731484,494
1765877664.731494,494
1765877664.731503,494
1765877664.731518,494
1765877664.7315269,493
1765877664.731536,494
1765877664.731545,494
1765877664.731554,494
1765877664.731562,494
1765877664.731571,494
1765877664.73158,494
1765877664.731589,493
1765877664.7315998,494
1765877664.731609,494
1765877664.7316182,494
1765877664.731627,494
1765877664.731636,494
1765877664.7316449,494
1765877664.731654,494
1765877664.731663,494
1765877664.731672,493
1765877664.731681,494
1765877664.731689,493
1765877664.731698,494
1765877664.7317069,494
1765877664.7317162,494
1765877664.731725,494
1765877664.731734,494
1765877664.731742,494
1765877664.731751,494
1765877664.73176,494
1765877664.731769,494
1765877664.7317781,494
1765877664.731787,494
1765877664.731796,493
1765877664.731804,494
1765877664.7318132,493
1765877664.731822,494
1765877664.731833,494
1765877664.731842,494
1765877664.731851,494
1765877664.73186,494
1765877664.731869,494
1765877664.731877,494
1765877664.7318861,494
1765877664.731895,495
1765877664.731904,494
1765877664.7319129,494
1765877664.731921,494
1765877664.73193,494
1765877664.731939,494
1765877664.7319481,494
1765877664.731957,494
1765877664.731966,494
1765877664.7319748,494
1765877664.731989,494
1765877664.731998,494
1765877664.732008,494
1765877664.732016,494
1765877664.7320251,493
1765877664.732034,494
1765877664.732043,494
1765877664.7320518,494
1765877664.732061,495
1765877664.73207,494
1765877664.732081,494
1765877664.73209,494
1765877664.732099,494
1765877664.732108,494
1765877664.732117,494
1765877664.732125,495
1765877664.7321339,494
1765877664.7321432,494
1765877664.732152,494
1765877664.732161,494
1765877664.7321699,494
1765877664.732179,494
1765877664.732188,494
1765877664.732196,494
1765877664.7322052,494
1765877664.732214,494
1765877664.732223,494
1765877664.7322319,494
1765877664.732241,494
1765877664.7322502,494
1765877664.732259,494
1765877664.732268,494
1765877664.732277,494
1765877664.732286,494
1765877664.7322948,494
1765877664.7323039,494
1765877664.7323148,494
1765877664.732325,494
1765877664.7323341,494
1765877664.732343,494
1765877664.732352,494
1765877664.732361,494
1765877664.732369,494
1765877664.732378,495
1765877664.732387,495
1765877664.7323961,495
1765877664.732405,494
1765877664.7324128,494
1765877664.7324219,494
1765877664.7324312,494
1765877664.73244,494
1765877664.732449,494
1765877664.7324579,494
1765877664.732467,494
1765877664.732476,494
1765877664.732485,494
1765877664.732494,494
1765877664.732503,494
1765877664.732512,494
1765877664.7325199,493
1765877664.732529,494
1765877664.7325382,495
1765877664.732554,495
1765877664.732564,494
1765877664.732574,494
1765877664.7325828,494
1765877664.732592,494
1765877664.7326012,494
1765877664.73261,494
1765877664.732619,494
1765877664.7326279,494
1765877664.732636,494
1765877664.732645,494
1765877664.732654,494
1765877664.7326632,494
1765877664.732672,494
1765877664.732681,494
1765877664.7326899,494
1765877664.732699,494
1765877664.732708,495
1765877664.732717,495
1765877664.732726,494
1765877664.732735,495
1765877664.732744,495
1765877664.7327528,495
1765877664.732762,494
1765877664.7327712,494
1765877664.73278,495
1765877664.732789,495
1765877664.7328022,495
1765877664.732811,495
1765877664.73282,495
1765877664.7328289,495
1765877664.732838,494
1765877664.732846,494
1765877664.732855,494
1765877664.732864,494
1765877664.732873,495
1765877664.732882,495
1765877664.7328908,494
1765877664.7329001,494
1765877664.732909,494
1765877664.732918,494
1765877664.732927,494
1765877664.732935,494
1765877664.7329438,494
1765877664.732953,495
1765877664.7329621,494
1765877664.732971,495
1765877664.73298,495
1765877664.7329931,494
1765877664.733002,494
1765877664.733011,494
1765877664.7330198,494
1765877664.7330291,494
1765877664.73304,495
1765877664.7330492,494
1765877664.733058,494
1765877664.733067,495
1765877664.7330759,495
1765877664.733085,494
1765877664.733094,495
1765877664.733103,494
1765877664.733112,495
1765877664.73312,494
1765877664.733129,494
1765877664.7331378,494
1765877664.733147,494
1765877664.7331562,494
1765877664.733165,495
1765877664.733174,495
1765877664.733183,494
1765877664.733192,494
1765877664.7332008,495
1765877664.73321,494
1765877664.7332191,494
1765877664.733228,494
1765877664.733237,494
1765877664.7332458,494
1765877664.733255,495
1765877664.733264,495
1765877664.7332742,495
1765877664.7332852,495
1765877664.733294,494
1765877664.733302,493
1765877664.733311,493
1765877664.73332,493
1765877664.7333288,494
1765877664.7333372,494
1765877664.733346,494
1765877664.733354,495
1765877664.733362,495
1765877664.73337,495
1765877664.733378,495
1765877664.733386,494
1765877664.7333949,494
1765877664.733403,494
1765877664.733411,494
1765877664.733419,494
1765877664.733427,494
1765877664.733435,495
1765877664.7334442,495
1765877664.733452,494
1765877664.73346,494
1765877664.7334678,494
1765877664.733477,495
1765877664.733485,495
1765877664.733493,495
1765877664.733504,496
1765877664.733512,496
1765877664.7335198,496
1765877664.7335281,495
1765877664.733536,495
1765877664.7335439,496
1765877664.7335522,495
1765877664.73356,495
1765877664.733569,495
1765877664.733577,496
1765877664.733585,495
1765877664.733593,495
1765877664.733601,496
1765877664.733609,495
1765877664.7336168,496
1765877664.7336252,495
1765877664.733633,495
1765877664.733642,495
1765877664.73365,495
1765877664.733658,495
1765877664.733666,495
1765877664.733674,495
1765877664.733682,495
1765877664.73369,494
1765877664.7336981,495
1765877664.733706,494
1765877664.733716,495
1765877664.7337248,495
1765877664.7337332,495
1765877664.733741,495
1765877664.733749,494
1765877664.733758,494
1765877664.7337651,494
1765877664.7337742,495
1765877664.733782,494
1765877664.73379,494
1765877664.7337978,494
1765877664.7338061,495
1765877664.733814,495
1765877664.7338219,494
1765877664.73383,494
1765877664.733838,494
1765877664.733846,495
1765877664.733854,494
1765877664.7338629,494
1765877664.7338712,494
1765877664.733879,495
1765877664.733887,494
1765877664.7338948,495
1765877664.7339032,495
1765877664.733911,494
1765877664.73392,495
1765877664.733928,494
1765877664.733939,494
1765877664.7339468,495
1765877664.7339551,494
1765877664.733963,494
1765877664.733972,494
1765877664.73398,494
1765877664.733988,494
1765877664.733996,495
1765877664.734004,494
1765877664.734012,494
1765877664.73402,495
1765877664.734028,494
1765877664.734036,494
1765877664.7340438,494
1765877664.7340531,494
1765877664.7340648,494
1765877664.7340732,494
1765877664.734082,494
1765877664.73409,494
1765877664.734098,495
1765877664.734106,494
1765877664.734114,494
1765877664.734122,494
1765877664.73413,494
1765877664.734138,494
1765877664.734146,494
1765877664.7341561,494
1765877664.734165,494
1765877664.7341728,494
1765877664.734182,494
1765877664.73419,494
1765877664.7342012,494
1765877664.734211,494
1765877664.7342231,494
1765877664.734231,494
1765877664.7342389,494
1765877664.734247,493
1765877664.734255,494
1765877664.734263,494
1765877664.734271,494
1765877664.734279,494
1765877664.734287,494
1765877664.734296,494
1765877664.734304,495
1765877664.7343118,495
1765877664.7343202,494
1765877664.734328,495
1765877664.734336,494
1765877664.734344,495
1765877664.7343519,495
1765877664.7343612,495
1765877664.73437,495
1765877664.734379,495
1765877664.7343879,494
1765877664.734396,495
1765877664.734404,495
1765877664.734412,495
1765877664.734421,495
1765877664.734429,495
1765877664.7344372,495
1765877664.734445,495
1765877664.734453,494
1765877664.7344608,494
1765877664.7344692,494
1765877664.734477,494
1765877664.734486,494
1765877664.734494,494
1765877664.7345018,494
1765877664.7345102,494
1765877664.734518,494
1765877664.734526,494
1765877664.7345338,494
1765877664.7345421,494
1765877664.73455,494
1765877664.7345579,495
1765877664.734566,495
1765877664.734574,495
1765877664.734582,495
1765877664.734591,495
1765877664.734602,495
1765877664.7346098,495
1765877664.7346182,495
1765877664.734626,495
1765877664.734635,495
1765877664.734643,496
1765877664.7346509,495
1765877664.734659,495
1765877664.734667,494
1765877664.734675,494
1765877664.7346828,493
1765877664.7346911,493
1765877664.734699,493
1765877664.7347069,494
1765877664.734716,494
1765877664.734724,494
1765877664.7347322,495
1765877664.7347462,494
1765877664.734754,494
1765877664.734762,495
1765877664.734771,495
1765877664.734779,494
1765877664.734787,494
1765877664.734795,494
1765877664.734803,494
1765877664.7348108,494
1765877664.734821,495
1765877664.7348301,494
1765877664.734838,494
1765877664.7348459,495
1765877664.734854,495
1765877664.734863,494
1765877664.7348711,495
1765877664.734879,494
1765877664.734887,495
1765877664.734895,495
1765877664.734904,494
1765877664.734912,494
1765877664.73492,495
1765877664.7349288,494
1765877664.7349372,494
1765877664.734945,495
1765877664.734953,494
1765877664.7349608,494
1765877664.7349691,494
1765877664.734977,494
1765877664.7349849,494
1765877664.734993,494
1765877664.735001,494
1765877664.735009,495
1765877664.735017,495
1765877664.735026,494
1765877664.7350342,495
1765877664.735044,495
1765877664.735053,494
1765877664.735061,495
1765877664.735069,495
1765877664.7350771,494
1765877664.735085,495
1765877664.7350929,494
1765877664.735101,495
1765877664.735109,495
1765877664.735117,495
1765877664.735125,495
1765877664.735133,495
1765877664.735141,495
1765877664.73515,495
1765877664.735158,494
1765877664.7351658,495
1765877664.735174,495
1765877664.735182,494
1765877664.73519,494
1765877664.735199,495
1765877664.7352068,494
1765877664.7352152,494
1765877664.735223,494
1765877664.735231,495
1765877664.735239,494
1765877664.7352471,495
1765877664.7352571,494
1765877664.735266,495
1765877664.735274,494
1765877664.735283,494
1765877664.7352908,494
1765877664.735299,495
1765877664.735307,494
1765877664.7353148,495
1765877664.735323,495
1765877664.735331,495
1765877664.735339,494
1765877664.735347,495
1765877664.735355,495
1765877664.7353642,495
1765877664.735372,494
1765877664.73538,494
1765877664.7353878,494
1765877664.7353961,495
1765877664.735405,495
1765877664.735413,495
1765877664.735421,494
1765877664.735429,495
1765877664.735438,495
1765877664.735446,495
1765877664.7354538,495
1765877664.735462,495
1765877664.73547,494
1765877664.735481,494
1765877664.7354891,495
1765877664.735497,495
1765877664.7355058,495
1765877664.7355142,495
1765877664.7355242,495
1765877664.735532,495
1765877664.73554,495
1765877664.735548,495
1765877664.735557,495
1765877664.735565,495
1765877664.735573,495
1765877664.735581,495
1765877664.735589,495
1765877664.735598,495
1765877664.735606,495
1765877664.735614,496
1765877664.735622,495
1765877664.73563,495
1765877664.735638,495
1765877664.735647,495
1765877664.7356548,496
1765877664.7356632,494
1765877664.735671,495
1765877664.735679,495
1765877664.735687,495
1765877664.7356968,495
1765877664.7357068,495
1765877664.7357152,495
1765877664.735723,494
1765877664.735731,495
1765877664.735739,495
1765877664.735747,495
1765877664.735755,495
1765877664.7357628,495
1765877664.735771,495
1765877664.735779,495
1765877664.735787,495
1765877664.735795,495
1765877664.735803,495
1765877664.735811,495
1765877664.735819,495
1765877664.735827,495
1765877664.7358348,495
1765877664.7358441,494
1765877664.735852,495
1765877664.7358599,495
1765877664.735868,495
1765877664.735876,495
1765877664.735884,495
1765877664.735892,495
1765877664.7359,495
1765877664.735908,495
1765877664.735919,496
1765877664.735927,495
1765877664.735935,495
1765877664.7359428,495
1765877664.7359512,495
1765877664.735959,495
1765877664.735967,495
1765877664.735975,495
1765877664.735984,496
1765877664.735992,495
1765877664.736,495
1765877664.736008,495
1765877664.7360158,495
1765877664.7360241,495
1765877664.736032,495
1765877664.73605,495
1765877664.736058,495
1765877664.736066,495
1765877664.736075,495
1765877664.736083,495
1765877664.736091,495
1765877664.736099,495
1765877664.736107,495
1765877664.736115,495
1765877664.7361228,495
1765877664.736131,495
1765877664.736141,495
1765877664.73615,495
1765877664.736158,495
1765877664.736166,495
1765877664.736174,495
1765877664.736182,494
1765877664.7361898,495
1765877664.736199,495
1765877664.736207,495
1765877664.736215,495
1765877664.736223,495
1765877664.7362309,495
1765877664.7362392,495
1765877664.736247,495
1765877664.736255,495
1765877664.7362628,496
1765877664.7362719,496
1765877664.73628,495
1765877664.736288,495
1765877664.736296,495
1765877664.736304,495
1765877664.7363122,495
1765877664.73632,495
1765877664.736328,494
1765877664.736337,495
1765877664.736345,495
1765877664.736355,496
1765877664.7363641,495
1765877664.736372,496
1765877664.7363799,495
1765877664.7363882,495
1765877664.736396,495
1765877664.736404,495
1765877664.7364118,495
1765877664.736421,495
1765877664.736429,495
1765877664.73646,495
1765877664.736468,495
1765877664.736477,495
1765877664.736485,494
1765877664.736493,494
1765877664.736502,495
1765877664.736552,494
1765877664.73656,495
1765877664.736568,495
1765877664.736577,495
1765877664.736585,495
1765877664.736593,495
1765877664.736601,495
1765877664.736609,495
1765877664.7366168,496
1765877664.736625,495
1765877664.736633,495
1765877664.736644,495
1765877664.736653,495
1765877664.736661,495
1765877664.7366688,495
1765877664.7366772,495
1765877664.736686,494
1765877664.736694,495
1765877664.736702,496
1765877664.7367098,497
1765877664.7367182,497
1765877664.736726,497
1765877664.736734,497
1765877664.7367418,497
1765877664.736751,496
1765877664.736759,497
1765877664.736767,497
1765877664.736775,497
1765877664.736783,496
1765877664.7367911,496
1765877664.7368,496
1765877664.7368078,496
1765877664.7368162,496
1765877664.736824,496
1765877664.736832,496
1765877664.73684,495
1765877664.7368479,495
1765877664.7368572,496
1765877664.7368672,495
1765877664.736875,495
1765877664.736883,495
1765877664.7368908,495
1765877664.7369,495
1765877664.736908,496
1765877664.736916,496
1765877664.736928,496
1765877664.7369359,496
1765877664.736945,495
1765877664.736953,496
1765877664.7369611,495
1765877664.736969,495
1765877664.7369769,496
1765877664.7369852,495
1765877664.736993,495
1765877664.737002,495
1765877664.73701,495
1765877664.737018,496
1765877664.7370272,496
1765877664.737035,496
1765877664.737043,495
1765877664.7370508,495
1765877664.73706,496
1765877664.737068,496
1765877664.737076,495
1765877664.737086,496
1765877664.7370949,496
1765877664.737103,496
1765877664.737112,496
1765877664.73712,495
1765877664.737128,495
1765877664.7371368,495
1765877664.7371452,496
1765877664.737153,496
1765877664.737161,496
1765877664.73717,496
1765877664.737178,496
1765877664.737186,496
1765877664.737194,496
1765877664.737202,496
1765877664.73721,495
1765877664.7372181,496
1765877664.737226,496
1765877664.7372339,496
1765877664.7372422,496
1765877664.737251,496
1765877664.737259,496
1765877664.737267,496
1765877664.7372758,496
1765877664.7372842,496
1765877664.737292,496
1765877664.737303,496
1765877664.737313,496
1765877664.737321,496
1765877664.73733,496
1765877664.737338,496
1765877664.737346,496
1765877664.737354,497
1765877664.737362,496
1765877664.73737,496
1765877664.737379,496
1765877664.737387,496
1765877664.737395,496
1765877664.737403,496
1765877664.737411,496
1765877664.73742,496
1765877664.737428,496
1765877664.7374358,496
1765877664.737445,496
1765877664.737453,497
1765877664.737461,496
1765877664.737469,496
1765877664.737477,496
1765877664.7374861,496
1765877664.737494,496
1765877664.7375019,497
1765877664.73751,497
1765877664.737518,496
1765877664.737531,497
1765877664.73754,497
1765877664.737548,497
1765877664.737556,497
1765877664.7375638,497
1765877664.7375722,497
1765877664.73758,497
1765877664.737588,496
1765877664.737597,496
1765877664.737605,496
1765877664.737613,496
1765877664.737621,497
1765877664.737629,497
1765877664.737637,496
1765877664.7376451,496
1765877664.737653,496
1765877664.737661,497
1765877664.7376692,497
1765877664.737677,497
1765877664.737685,497
1765877664.737694,497
1765877664.737702,497
1765877664.73771,497
1765877664.737718,497
1765877664.737726,497
1765877664.7377348,496
1765877664.7377448,497
1765877664.737754,497
1765877664.737762,497
1765877664.73777,497
1765877664.737778,498
1765877664.737786,497
1765877664.7377942,497
1765877664.737802,497
1765877664.7378109,497
1765877664.737819,497
1765877664.737827,497
1765877664.737835,496
1765877664.737843,497
1765877664.737851,497
1765877664.7378602,497
1765877664.737868,496
1765877664.737876,497
1765877664.7378838,497
1765877664.7378922,497
1765877664.7379,498
1765877664.737908,497
1765877664.737916,497
1765877664.737925,497
1765877664.7379332,497
1765877664.737941,497
1765877664.737949,497
1765877664.737959,497
1765877664.7379682,497
1765877664.737976,497
1765877664.737984,497
1765877664.737992,497
1765877664.738,497
1765877664.738008,497
1765877664.738016,497
1765877664.738025,497
1765877664.7380328,498
1765877664.7380412,498
1765877664.738049,498
1765877664.738057,498
1765877664.738065,498
1765877664.738074,497
1765877664.738082,498
1765877664.73809,497
1765877664.738098,497
1765877664.738107,497
1765877664.738115,498
1765877664.738123,498
1765877664.738131,498
1765877664.738139,498
1765877664.738147,498
1765877664.7381551,498
1765877664.738164,498
1765877664.7381718,497
1765877664.7381818,498
1765877664.7381911,499
1765877664.738199,498
1765877664.7382069,498
1765877664.738215,498
1765877664.738223,497
1765877664.738231,497
1765877664.738239,498
1765877664.738247,497
1765877664.738255,498
1765877664.7382631,497
1765877664.738271,497
1765877664.7382789,497
1765877664.7382882,497
1765877664.738296,497
1765877664.738304,498
1765877664.738312,497
1765877664.7383199,497
1765877664.738328,497
1765877664.738336,497
1765877664.738344,498
1765877664.738352,497
1765877664.7383602,498
1765877664.738368,498
1765877664.738376,498
1765877664.738385,498
1765877664.738394,497
1765877664.738404,498
1765877664.7384121,497
1765877664.73842,497
1765877664.7384279,498
1765877664.738436,498
1765877664.738444,498
1765877664.738452,497
1765877664.738461,498
1765877664.7384691,498
1765877664.738477,498
1765877664.738485,497
1765877664.738493,498
1765877664.738501,497
1765877664.738509,497
1765877664.738517,498
1765877664.738525,498
1765877664.738533,498
1765877664.738542,497
1765877664.73855,498
1765877664.738558,498
1765877664.738566,499
1765877664.738574,498
1765877664.7385821,498
1765877664.738592,498
1765877664.7386,498
1765877664.7386088,497
1765877664.7386189,498
1765877664.738627,497
1765877664.738635,498
1765877664.738643,498
1765877664.738652,498
1765877664.73866,497
1765877664.738668,498
1765877664.738676,498
1765877664.738684,497
1765877664.738692,498
1765877664.7387,497
1765877664.738708,498
1765877664.738716,498
1765877664.738724,498
1765877664.738732,498
1765877664.738741,498
1765877664.738749,498
1765877664.7387571,498
1765877664.738765,498
1765877664.738773,498
1765877664.738781,498
1765877664.738789,498
1765877664.738797,498
1765877664.738805,498
1765877664.738813,498
1765877664.738822,498
1765877664.7388318,498
1765877664.738841,498
1765877664.738849,498
1765877664.738857,497
1765877664.738865,498
1765877664.7388742,498
1765877664.738882,498
1765877664.73889,498
1765877664.738899,498
1765877664.7389069,498
1765877664.738915,498
1765877664.738923,498
1765877664.738931,498
1765877664.7389388,498
1765877664.7389472,498
1765877664.738955,498
1765877664.738963,498
1765877664.738972,498
1765877664.73898,498
1765877664.738988,498
1765877664.738996,498
1765877664.739004,498
1765877664.7390132,498
1765877664.739021,498
1765877664.739029,498
1765877664.739071,498
1765877664.739079,498
1765877664.73909,498
1765877664.7390988,498
1765877664.7391071,498
1765877664.739115,498
1765877664.739124,498
1765877664.739132,498
1765877664.73914,498
1765877664.7391481,498
1765877664.739157,498
1765877664.7391648,498
1765877664.739174,498
1765877664.739182,498
1765877664.739191,498
1765877664.739199,498
1765877664.739208,498
1765877664.7392159,498
1765877664.7392251,498
1765877664.739233,498
1765877664.739241,498
1765877664.739249,498
1765877664.739257,499
1765877664.739267,498
1765877664.739276,498
1765877664.739284,499
1765877664.739292,498
1765877664.739299,497
1765877664.739309,498
1765877664.739315,498
1765877664.739321,498
1765877664.739326,498
1765877664.739331,498
1765877664.739337,498
1765877664.739342,498
1765877664.739348,498
1765877664.7393532,498
1765877664.739358,498
1765877664.7393641,499
1765877664.739369,498
1765877664.7393742,498
1765877664.73938,498
1765877664.7393851,498
1765877664.73939,498
1765877664.739396,498
1765877664.7394009,498
1765877664.739407,498
1765877664.739412,498
1765877664.739418,499
1765877664.739423,498
1765877664.739428,498
1765877664.739434,498
1765877664.739439,498
1765877664.739444,498
1765877664.7394502,499
1765877664.7394571,498
1765877664.7394629,498
1765877664.739468,498
1765877664.7394738,499
1765877664.739543,498
1765877664.739549,498
1765877664.7395551,498
1765877664.73956,498
1765877664.7395651,498
1765877664.7395709,498
1765877664.739577,498
1765877664.739583,498
1765877664.73959,499
1765877664.739595,498
1765877664.7396,498
1765877664.739605,497
1765877664.739611,498
1765877664.739616,498
1765877664.7396212,498
1765877664.7396271,498
1765877664.7396321,498
1765877664.739637,498
1765877664.7396429,498
1765877664.739648,498
1765877664.739653,498
1765877664.739659,498
1765877664.7396638,498
1765877664.739671,498
1765877664.739677,498
1765877664.739682,498
1765877664.739688,498
1765877664.7396932,498
1765877664.739698,498
1765877664.739703,498
1765877664.739709,499
1765877664.7397141,499
1765877664.739719,499
1765877664.739724,500
1765877664.73973,499
1765877664.7397351,500
1765877664.73974,499
1765877664.7397451,500
1765877664.73975,500
1765877664.739756,499
1765877664.7397609,499
1765877664.7397661,499
1765877664.739771,500
1765877664.739776,499
1765877664.7397819,500
1765877664.739787,499
1765877664.7397919,499
1765877664.7397969,499
1765877664.7398021,500
1765877664.739808,498
1765877664.7398138,498
1765877664.739821,499
1765877664.739827,499
1765877664.7398322,498
1765877664.739838,498
1765877664.739844,499
1765877664.73985,498
1765877664.7398558,499
1765877664.739861,499
1765877664.739867,498
1765877664.739873,498
1765877664.739879,498
1765877664.7398841,498
1765877664.7398899,498
1765877664.739896,499
1765877664.739902,498
1765877664.739908,498
1765877664.739914,498
1765877664.73992,498
1765877664.739925,498
1765877664.7399309,499
1765877664.739937,499
1765877664.7399418,498
1765877664.739947,498
1765877664.739952,498
1765877664.739958,499
1765877664.7399628,499
1765877664.73997,498
1765877664.739976,498
1765877664.7399821,498
1765877664.739987,499
1765877664.7399921,498
1765877664.739997,498
1765877664.740003,498
1765877664.7400079,498
1765877664.7400131,499
1765877664.740018,499
1765877664.740024,498
1765877664.74003,498
1765877664.740035,499
1765877664.740041,499
1765877664.7400472,498
1765877664.740053,498
1765877664.7400582,498
1765877664.740064,499
1765877664.7400699,498
1765877664.740076,498
1765877664.7400808,498
1765877664.740087,498
1765877664.740093,499
1765877664.740099,499
1765877664.740105,498
1765877664.7401102,498
1765877664.740117,498
1765877664.740124,498
1765877664.74013,498
1765877664.740136,498
1765877664.740142,498
1765877664.740148,498
1765877664.740154,499
1765877664.740159,498
1765877664.7401652,498
1765877664.740171,498
1765877664.740177,498
1765877664.740183,498
1765877664.7401888,498
1765877664.740194,498
1765877664.7402,498
1765877664.740206,498
1765877664.740211,499
1765877664.740217,498
1765877664.740223,498
1765877664.7402291,498
1765877664.740235,498
1765877664.740242,498
1765877664.7402508,498
1765877664.7402601,498
1765877664.740269,498
1765877664.740277,498
1765877664.740284,497
1765877664.740293,498
1765877664.7403,498
1765877664.740306,498
1765877664.740312,498
1765877664.740318,498
1765877664.740324,498
1765877664.7404149,498
1765877664.7404249,498
1765877664.740433,498
1765877664.7404401,498
1765877664.7404459,498
1765877664.740451,498
1765877664.7404559,498
1765877664.740462,498
1765877664.7404668,498
1765877664.740473,497
1765877664.740478,498
1765877664.740484,498
1765877664.740489,498
1765877664.7404952,499
1765877664.7405,498
1765877664.7405062,499
1765877664.740511,498
1765877664.7405171,498
1765877664.740522,499
1765877664.740528,498
1765877664.740534,498
1765877664.740542,498
1765877664.7405472,498
1765877664.740553,498
1765877664.7405581,498
1765877664.740566,499
1765877664.740573,498
1765877664.740581,498
1765877664.740588,498
1765877664.740596,498
1765877664.740603,498
1765877664.740611,498
1765877664.7406158,498
1765877664.740621,498
1765877664.740627,498
1765877664.740632,498
1765877664.740638,498
1765877664.740643,498
1765877664.740649,499
1765877664.740654,498
1765877664.740659,498
1765877664.7406652,498
1765877664.74067,497
1765877664.7406762,498
1765877664.740681,498
1765877664.7406862,498
1765877664.740692,498
1765877664.7406988,498
1765877664.740705,498
1765877664.740711,498
1765877664.7407172,498
1765877664.740723,498
1765877664.7407281,498
1765877664.7407339,498
1765877664.740739,498
1765877664.740745,497
1765877664.740751,498
1765877664.740757,498
1765877664.740763,498
1765877664.740769,498
1765877664.740788,498
1765877664.7407942,498
1765877664.7408,498
1765877664.7408059,498
1765877664.740812,498
1765877664.7408168,498
1765877664.740823,498
1765877664.74083,498
1765877664.7408352,498
1765877664.7408419,498
1765877664.740848,498
1765877664.740854,498
1765877664.740861,498
1765877664.740869,498
1765877664.7408772,498
1765877664.740884,498
1765877664.74089,498
1765877664.740896,498
1765877664.740902,498
1765877664.7409081,498
1765877664.7409139,498
1765877664.74092,498
1765877664.740926,498
1765877664.740932,498
1765877664.740938,498
1765877664.740944,498
1765877664.74095,498
1765877664.7409558,498
1765877664.740962,498
1765877664.740968,498
1765877664.7409751,498
1765877664.740981,498
1765877664.7409868,498
1765877664.740992,498
1765877664.7409978,498
1765877664.741004,498
1765877664.74101,498
1765877664.7410161,498
1765877664.7410219,498
1765877664.741028,498
1765877664.741034,498
1765877664.7410429,498
1765877664.741052,498
1765877664.741059,498
1765877664.741065,498
1765877664.741071,498
1765877664.741077,498
1765877664.741083,498
1765877664.741089,498
1765877664.7410948,498
1765877664.741101,498
1765877664.741107,498
1765877664.7411132,498
1765877664.741119,498
1765877664.741125,498
1765877664.741132,498
1765877664.741139,498
1765877664.741146,498
1765877664.741153,498
1765877664.741159,498
1765877664.7411652,498
1765877664.741171,498
1765877664.741177,497
1765877664.741183,497
1765877664.741189,498
1765877664.741195,498
1765877664.741201,498
1765877664.741209,497
1765877664.7412171,498
1765877664.7412229,498
1765877664.741229,498
1765877664.741235,498
1765877664.741241,498
1765877664.741247,498
1765877664.7412531,497
1765877664.741259,498
1765877664.7412648,498
1765877664.741271,498
1765877664.741277,498
1765877664.7412841,499
1765877664.741291,498
1765877664.741299,498
1765877664.741305,498
1765877664.741311,498
1765877664.741318,498
1765877664.741324,498
1765877664.74133,498
1765877664.741336,498
1765877664.741342,497
1765877664.741348,498
1765877664.741354,498
1765877664.7413602,498
1765877664.741367,498
1765877664.7413728,498
1765877664.7413802,498
1765877664.741388,498
1765877664.7413938,497
1765877664.7414,498
1765877664.741406,498
1765877664.7414138,498
1765877664.741421,498
1765877664.741428,498
1765877664.7414348,498
1765877664.7414432,498
1765877664.741448,498
1765877664.7414541,498
1765877664.74146,497
1765877664.741465,498
1765877664.7414699,498
1765877664.741476,498
1765877664.741481,498
1765877664.741486,498
1765877664.741492,498
1765877664.741497,498
1765877664.741503,498
1765877664.741508,498
1765877664.741514,498
1765877664.7415192,498
1765877664.741525,498
1765877664.7415302,498
1765877664.741536,498
1765877664.7415428,498
1765877664.74155,498
1765877664.741556,498
1765877664.7415638,498
1765877664.7415712,498
1765877664.741577,498
1765877664.7415848,498
1765877664.7415931,498
1765877664.7416,498
1765877664.741607,498
1765877664.741615,498
1765877664.741621,498
1765877664.741627,498
1765877664.741633,498
1765877664.741639,498
1765877664.741645,498
1765877664.741651,497
1765877664.741657,498
1765877664.741663,498
1765877664.7416692,498
1765877664.741675,498
1765877664.7416809,498
1765877664.741687,498
1765877664.741694,498
1765877664.7417018,498
1765877664.741709,498
1765877664.741717,497
1765877664.741724,497
1765877664.74173,498
1765877664.741736,498
1765877664.7417421,498
1765877664.7417479,498
1765877664.7417548,498
1765877664.7417622,498
1765877664.741769,498
1765877664.741777,498
1765877664.7417831,498
1765877664.7417889,498
1765877664.741794,498
1765877664.7417998,498
1765877664.741806,498
1765877664.741812,498
1765877664.7418182,498
1765877664.741824,498
1765877664.7418308,498
1765877664.741836,498
1765877664.741842,498
1765877664.741848,498
1765877664.741854,498
1765877664.7418602,498
1765877664.7418659,498
1765877664.741871,498
1765877664.741877,498
1765877664.741886,498
1765877664.741906,497
1765877664.741913,498
1765877664.74192,498
1765877664.741926,498
1765877664.741932,498
1765877664.74194,497
1765877664.741947,498
1765877664.7419531,497
1765877664.74196,498
1765877664.741966,497
1765877664.741971,498
1765877664.741977,497
1765877664.741983,498
1765877664.7419899,498
1765877664.741996,497
1765877664.742002,498
1765877664.742008,497
1765877664.742014,498
1765877664.7420201,498
1765877664.742026,498
1765877664.7420318,497
1765877664.742038,498
1765877664.742044,498
1765877664.74205,498
1765877664.742056,498
1765877664.7420642,498
1765877664.7420712,498
1765877664.7420769,497
1765877664.742083,498
1765877664.742089,497
1765877664.742097,498
1765877664.742104,497
1765877664.742111,498
1765877664.7421172,498
1765877664.742124,498
1765877664.7421298,500
1765877664.742136,500
1765877664.742142,500
1765877664.7421482,499
1765877664.742203,499
1765877664.742209,499
1765877664.742215,499
1765877664.742223,499
1765877664.74223,499
1765877664.7422369,499
1765877664.742243,499
1765877664.742249,499
1765877664.7422552,499
1765877664.742261,498
1765877664.7422678,498
1765877664.742274,498
1765877664.74228,499
1765877664.7422879,498
1765877664.742295,498
1765877664.742301,498
1765877664.7423072,498
1765877664.742313,498
1765877664.742319,498
1765877664.742325,498
1765877664.7423308,498
1765877664.742338,498
1765877664.7423449,498
1765877664.742353,498
1765877664.742359,498
1765877664.742365,498
1765877664.742377,498
1765877664.742383,498
1765877664.742389,498
1765877664.742395,498
1765877664.7424011,498
1765877664.742406,498
1765877664.742412,497
1765877664.7424178,498
1765877664.7424252,498
1765877664.742431,498
1765877664.7424371,498
1765877664.742442,497
1765877664.7424471,498
1765877664.742454,498
1765877664.742462,498
1765877664.74249,498
1765877664.742496,497
1765877664.742501,498
1765877664.742507,497
1765877664.7425122,498
1765877664.742518,498
1765877664.742524,498
1765877664.742529,498
1765877664.742534,498
1765877664.7425401,498
1765877664.742545,498
1765877664.742551,498
1765877664.7425559,497
1765877664.742562,497
1765877664.7425668,498
1765877664.742573,498
1765877664.742578,498
1765877664.742584,497
1765877664.74259,497
1765877664.7425961,497
1765877664.7426019,497
1765877664.7426078,498
1765877664.742614,497
1765877664.74262,498
1765877664.742626,498
1765877664.742634,498
1765877664.742641,498
1765877664.742647,498
1765877664.742653,497
1765877664.74266,498
1765877664.742666,497
1765877664.742672,498
1765877664.742678,497
1765877664.742684,497
1765877664.74269,498
1765877664.742697,498
1765877664.742702,497
1765877664.742708,498
1765877664.7427142,497
1765877664.74272,497
1765877664.7427258,497
1765877664.742732,497
1765877664.742738,497
1765877664.742744,497
1765877664.74275,497
1765877664.7427561,497
1765877664.742762,498
1765877664.742768,497
1765877664.742774,497
1765877664.74278,498
1765877664.742786,498
1765877664.742794,497
1765877664.742801,498
1765877664.742808,497
1765877664.742814,497
1765877664.74282,498
1765877664.742826,498
1765877664.742833,498
1765877664.742839,497
1765877664.7428448,498
1765877664.742851,497
1765877664.742857,498
1765877664.7428632,498
1765877664.742869,498
1765877664.7428749,498
1765877664.742881,498
1765877664.742887,498
1765877664.742893,498
1765877664.742899,497
1765877664.7429051,497
1765877664.7429109,497
1765877664.742917,498
1765877664.742923,497
1765877664.742929,498
1765877664.742935,497
1765877664.742941,497
1765877664.742948,497
1765877664.742955,497
1765877664.742964,498
1765877664.742972,498
1765877664.742978,497
1765877664.7429838,497
1765877664.74299,497
1765877664.742996,497
1765877664.7430022,497
1765877664.743008,497
1765877664.7430139,497
1765877664.74302,497
1765877664.743027,497
1765877664.7430332,497
1765877664.743039,497
1765877664.743045,497
1765877664.743051,497
1765877664.743057,497
1765877664.743063,497
1765877664.743069,498
1765877664.743074,498
1765877664.74308,498
1765877664.743086,498
1765877664.743092,497
1765877664.743099,497
1765877664.743107,497
1765877664.743114,498
1765877664.74312,498
1765877664.743126,497
1765877664.743134,497
1765877664.7431412,498
1765877664.743147,498
1765877664.7431521,498
1765877664.743158,498
1765877664.7431638,497
1765877664.74317,497
1765877664.743176,497
1765877664.7431822,497
1765877664.743188,498
1765877664.743194,498
1765877664.7432,497
1765877664.7432058,497
1765877664.743212,497
1765877664.743218,498
1765877664.7432241,497
1765877664.7432299,497
1765877664.743236,498
1765877664.743242,497
1765877664.743248,497
1765877664.743254,497
1765877664.74326,497
1765877664.743266,498
1765877664.7432718,497
1765877664.743278,497
1765877664.743284,498
1765877664.7432919,497
1765877664.743299,497
1765877664.743305,498
1765877664.7433112,497
1765877664.743318,497
1765877664.743325,497
1765877664.743333,497
1765877664.743339,497
1765877664.7433448,497
1765877664.743351,497
1765877664.743357,497
1765877664.7433631,497
1765877664.7433689,497
1765877664.743375,497
1765877664.743381,497
1765877664.743387,498
1765877664.7433941,497
1765877664.7433999,497
1765877664.743406,497
1765877664.743412,497
1765877664.7434182,497
1765877664.743424,497
1765877664.74343,496
1765877664.743436,497
1765877664.7434409,497
1765877664.743447,497
1765877664.743453,498
1765877664.7434611,497
1765877664.743468,498
1765877664.743474,498
1765877664.74348,497
1765877664.743486,497
1765877664.7434921,497
1765877664.743498,497
1765877664.7435038,497
1765877664.74351,497
1765877664.743516,497
1765877664.7435222,497
1765877664.743528,497
1765877664.743534,497
1765877664.74354,497
1765877664.743546,498
1765877664.743552,498
1765877664.743558,497
1765877664.7435641,497
1765877664.7435699,497
1765877664.7435799,497
1765877664.7435882,497
1765877664.743594,497
1765877664.7436001,497
1765877664.743606,497
1765877664.7436118,498
1765877664.743618,497
1765877664.743625,497
1765877664.7436318,497
1765877664.743638,497
1765877664.743644,497
1765877664.7436512,497
1765877664.7436569,497
1765877664.743663,497
1765877664.743669,497
1765877664.743675,497
1765877664.743681,497
1765877664.743687,497
1765877664.743693,497
1765877664.743698,497
1765877664.743704,497
1765877664.74371,497
1765877664.743718,497
1765877664.743724,497
1765877664.7437298,497
1765877664.743736,497
1765877664.743742,497
1765877664.7437482,497
1765877664.743753,497
1765877664.7437592,497
1765877664.7437649,497
1765877664.7437708,497
1765877664.743777,498
1765877664.743783,497
1765877664.743789,497
1765877664.743795,497
1765877664.7438028,496
1765877664.74381,497
1765877664.743816,497
1765877664.743822,497
1765877664.743828,497
1765877664.743834,497
1765877664.74384,497
1765877664.743846,497
1765877664.7438521,498
1765877664.7438579,497
1765877664.743864,497
1765877664.74387,497
1765877664.743875,497
1765877664.743881,497
1765877664.7438872,497
1765877664.743893,497
1765877664.7438989,497
1765877664.743905,496
1765877664.743911,497
1765877664.743917,497
1765877664.743923,498
1765877664.7439291,497
1765877664.7439349,498
1765877664.74394,497
1765877664.743947,497
1765877664.7439518,497
1765877664.7439601,498
1765877664.743967,497
1765877664.743973,497
1765877664.743979,497
1765877664.7439842,497
1765877664.74399,497
1765877664.743996,498
1765877664.744002,497
1765877664.7440078,497
1765877664.744014,498
1765877664.74402,497
1765877664.7440262,497
1765877664.744031,497
1765877664.7440372,497
1765877664.744043,497
1765877664.7440488,497
1765877664.7442062,497
1765877664.744212,497
1765877664.7442172,497
1765877664.744222,497
1765877664.7442281,496
1765877664.744233,497
1765877664.7442381,497
1765877664.744243,497
1765877664.7442482,497
1765877664.7442539,497
1765877664.74426,497
1765877664.744268,497
1765877664.744274,497
1765877664.7442791,497
1765877664.7442849,497
1765877664.74429,497
1765877664.744295,497
1765877664.744301,496
1765877664.744307,497
1765877664.744313,497
1765877664.744319,498
1765877664.7443242,497
1765877664.74433,497
1765877664.7443368,497
1765877664.744342,497
1765877664.7443478,497
1765877664.744355,497
1765877664.744361,497
1765877664.7443671,497
1765877664.744372,497
1765877664.7443788,497
1765877664.744385,497
1765877664.7443898,497
1765877664.744396,497
1765877664.744402,497
1765877664.7444081,497
1765877664.7444139,497
1765877664.744419,497
1765877664.744427,497
1765877664.7444339,497
1765877664.74444,497
1765877664.744446,497
1765877664.744452,497
1765877664.744458,497
1765877664.7444632,496
1765877664.744469,497
1765877664.744475,497
1765877664.744481,496
1765877664.7444868,497
1765877664.744492,497
1765877664.744498,497
1765877664.744504,497
1765877664.74451,497
1765877664.7445161,497
1765877664.744522,497
1765877664.7445278,496
1765877664.744534,497
1765877664.7445388,497
1765877664.744546,497
1765877664.744552,497
1765877664.744558,497
1765877664.744564,497
1765877664.74457,497
1765877664.744576,497
1765877664.744583,497
1765877664.744591,497
1765877664.744596,497
1765877664.7446022,497
1765877664.744608,498
1765877664.744614,498
1765877664.74462,499
1765877664.7446258,499
1765877664.744632,498
1765877664.744638,498
1765877664.7446442,498
1765877664.74465,498
1765877664.7446558,498
1765877664.744662,499
1765877664.7446668,498
1765877664.744673,498
1765877664.744679,498
1765877664.7446852,498
1765877664.744691,498
1765877664.744697,497
1765877664.7447019,498
1765877664.744708,497
1765877664.744714,497
1765877664.74472,497
1765877664.7447271,497
1765877664.7447329,498
1765877664.74474,497
1765877664.744749,497
1765877664.744757,496
1765877664.744763,497
1765877664.744769,497
1765877664.7447739,497
1765877664.74478,497
1765877664.744786,497
1765877664.744792,497
1765877664.744798,497
1765877664.7448032,497
1765877664.744809,497
1765877664.744815,497
1765877664.744821,497
1765877664.7448268,497
1765877664.744833,497
1765877664.744839,497
1765877664.744844,498
1765877664.74485,497
1765877664.744856,497
1765877664.7448618,497
1765877664.744868,497
1765877664.744874,497
1765877664.744879,497
1765877664.744885,497
1765877664.744891,497
1765877664.7448971,497
1765877664.7449028,497
1765877664.744915,497
1765877664.7449222,497
1765877664.744928,497
1765877664.7449338,497
1765877664.74494,496
1765877664.744946,497
1765877664.744952,497
1765877664.744957,496
1765877664.7449632,497
1765877664.744969,497
1765877664.744975,497
1765877664.744981,497
1765877664.7449868,497
1765877664.744993,496
1765877664.744999,497
1765877664.7450051,497
1765877664.74501,497
1765877664.745016,497
1765877664.745022,497
1765877664.7450292,497
1765877664.7450361,497
1765877664.7450418,497
1765877664.745048,497
1765877664.745054,497
1765877664.7450602,497
1765877664.745066,496
1765877664.745074,497
1765877664.74508,496
1765877664.745087,496
1765877664.745093,497
1765877664.745099,497
1765877664.7451048,497
1765877664.745111,497
1765877664.745117,496
1765877664.7451231,497
1765877664.745131,497
1765877664.745138,497
1765877664.745146,497
1765877664.745152,496
1765877664.745159,496
1765877664.745167,496
1765877664.745174,497
1765877664.745182,496
1765877664.745188,497
1765877664.745194,497
1765877664.7452018,496
1765877664.7452102,496
1765877664.745217,496
1765877664.745224,497
1765877664.7452312,496
1765877664.745238,497
1765877664.745246,497
1765877664.745253,497
1765877664.745263,497
1765877664.745271,497
1765877664.745278,497
1765877664.745284,497
1765877664.74529,497
1765877664.7452958,497
1765877664.745302,497
1765877664.745308,497
1765877664.7453141,497
1765877664.745322,497
1765877664.745329,497
1765877664.745337,497
1765877664.745344,497
1765877664.74535,496
1765877664.745356,496
1765877664.7453618,497
1765877664.745368,497
1765877664.745375,497
1765877664.745383,497
1765877664.7453902,497
1765877664.745396,497
1765877664.745402,497
1765877664.745408,497
1765877664.7454138,497
1765877664.74542,497
1765877664.745426,497
1765877664.7454321,497
1765877664.745441,497
1765877664.745447,497
1765877664.7454531,496
1765877664.7454588,496
1765877664.745465,496
1765877664.745471,497
1765877664.7454772,496
1765877664.745483,497
1765877664.745489,496
1765877664.745495,497
1765877664.745501,496
1765877664.745507,497
1765877664.745513,497
1765877664.745518,497
1765877664.745524,496
1765877664.7455318,497
1765877664.7455392,497
1765877664.745547,497
1765877664.745554,497
1765877664.745562,497
1765877664.745569,496
1765877664.745576,497
1765877664.745583,497
1765877664.74559,497
1765877664.745597,496
1765877664.745604,496
1765877664.745614,496
1765877664.745622,497
1765877664.7456279,496
1765877664.745634,496
1765877664.7456388,497
1765877664.745645,497
1765877664.745651,497
1765877664.7456572,496
1765877664.7456708,497
1765877664.7456782,497
1765877664.745685,496
1765877664.7456908,497
1765877664.745697,497
1765877664.745703,497
1765877664.745708,497
1765877664.745715,497
1765877664.745722,498
1765877664.7457302,497
1765877664.745737,497
1765877664.745744,497
1765877664.7457511,497
1765877664.745759,496
1765877664.745766,496
1765877664.745774,497
1765877664.745781,496
1765877664.7457888,496
1765877664.745795,496
1765877664.745805,496
1765877664.745811,496
1765877664.7458181,497
1765877664.745824,497
1765877664.7458482,497
1765877664.745853,497
1765877664.7458591,496
1765877664.745866,497
1765877664.745873,496
1765877664.745879,496
1765877664.745885,496
1765877664.745891,497
1765877664.7458959,497
1765877664.745901,497
1765877664.7459068,497
1765877664.745913,497
1765877664.74592,497
1765877664.7459269,497
1765877664.745934,497
1765877664.745941,497
1765877664.7459478,497
1765877664.745954,497
1765877664.745961,497
1765877664.745968,497
1765877664.745974,496
1765877664.745981,497
1765877664.7459881,496
1765877664.745994,497
1765877664.7459998,497
1765877664.746005,496
1765877664.7460108,496
1765877664.746016,496
1765877664.746023,496
1765877664.74603,497
1765877664.746037,496
1765877664.746044,496
1765877664.7460501,497
1765877664.746055,496
1765877664.746061,496
1765877664.746067,497
1765877664.7460742,497
1765877664.746081,497
1765877664.746088,496
1765877664.746094,497
1765877664.746101,496
1765877664.7461078,497
1765877664.746114,496
1765877664.746119,497
1765877664.746124,497
1765877664.74613,497
1765877664.746136,497
1765877664.7461429,497
1765877664.746149,497
1765877664.746159,497
1765877664.746166,496
1765877664.746173,497
1765877664.746179,496
1765877664.746186,497
1765877664.746191,496
1765877664.746196,496
1765877664.7462022,496
1765877664.746207,496
1765877664.746212,496
1765877664.746218,496
1765877664.7462242,496
1765877664.746229,496
1765877664.7462358,496
1765877664.746242,496
1765877664.746248,497
1765877664.746254,496
1765877664.74626,497
1765877664.7462652,497
1765877664.746271,497
1765877664.746277,496
1765877664.746283,497
1765877664.746289,497
1765877664.746295,497
1765877664.746303,496
1765877664.74631,497
1765877664.746319,496
1765877664.746326,496
1765877664.746332,497
1765877664.746339,496
1765877664.746347,496
1765877664.7463522,496
1765877664.746358,497
1765877664.7463648,496
1765877664.746372,496
1765877664.746378,497
1765877664.7463849,497
1765877664.746391,497
1765877664.7463958,497
1765877664.746402,497
1765877664.746408,496
1765877664.7464151,496
1765877664.74642,496
1765877664.746426,496
1765877664.7464309,496
1765877664.7464378,496
1765877664.746445,496
1765877664.7464519,496
1765877664.746458,496
1765877664.746465,496
1765877664.746471,496
1765877664.7464771,496
1765877664.746484,496
1765877664.746491,496
1765877664.746497,496
1765877664.7465038,496
1765877664.74651,496
1765877664.746517,496
1765877664.746523,496
1765877664.746528,496
1765877664.7465339,497
1765877664.74654,497
1765877664.7465448,497
1765877664.746551,496
1765877664.7465558,497
1765877664.746562,496
1765877664.746567,497
1765877664.746573,496
1765877664.746579,496
1765877664.7465842,497
1765877664.74659,496
1765877664.7465951,496
1765877664.7466009,496
1765877664.746606,496
1765877664.746612,496
1765877664.746617,496
1765877664.746623,496
1765877664.7466292,497
1765877664.746635,496
1765877664.7466419,496
1765877664.746649,497
1765877664.746655,496
1765877664.74666,496
1765877664.746666,496
1765877664.7466722,496
1765877664.746677,496
1765877664.746683,496
1765877664.746689,496
1765877664.7466938,496
1765877664.746699,497
1765877664.7467048,496
1765877664.746711,496
1765877664.746716,496
1765877664.746722,497
1765877664.746727,496
1765877664.746733,496
1765877664.746738,496
1765877664.7467442,496
1765877664.746749,496
1765877664.7467551,496
1765877664.74676,496
1765877664.746766,496
1765877664.746772,496
1765877664.746777,496
1765877664.746783,496
1765877664.7467892,497
1765877664.7467961,497
1765877664.746803,496
1765877664.746808,496
1765877664.746814,496
1765877664.7468202,496
1765877664.746825,497
1765877664.7468312,496
1765877664.746837,496
1765877664.7468421,496
1765877664.7468631,496
1765877664.74687,497
1765877664.746876,497
1765877664.746882,496
1765877664.746887,496
1765877664.7468932,496
1765877664.746898,496
1765877664.7469041,497
1765877664.7469099,496
1765877664.746915,497
1765877664.746921,496
1765877664.746927,496
1765877664.746932,496
1765877664.7469382,497
1765877664.746944,496
1765877664.74695,496
1765877664.746955,496
1765877664.746963,496
1765877664.7469702,496
1765877664.746976,496
1765877664.7469811,497
1765877664.746986,496
1765877664.746992,496
1765877664.7469969,496
1765877664.7470028,496
1765877664.747008,496
1765877664.747013,496
1765877664.747019,496
1765877664.7470238,496
1765877664.747029,497
1765877664.7470348,497
1765877664.74704,498
1765877664.747045,497
1765877664.74705,497
1765877664.7470562,497
1765877664.747061,497
1765877664.747066,497
1765877664.747072,497
1765877664.7470772,497
1765877664.747082,497
1765877664.747088,497
1765877664.747093,498
1765877664.7470982,497
1765877664.747104,498
1765877664.7471108,497
1765877664.7471192,497
1765877664.747125,496
1765877664.7471302,497
1765877664.747136,496
1765877664.7471411,496
1765877664.747147,496
1765877664.7471519,497
1765877664.747157,496
1765877664.7471628,496
1765877664.747168,497
1765877664.7471738,496
1765877664.747179,496
1765877664.747184,496
1765877664.74719,496
1765877664.7471948,496
1765877664.7472,496
1765877664.747206,496
1765877664.747211,496
1765877664.747216,496
1765877664.747222,496
1765877664.747227,496
1765877664.747232,496
1765877664.747238,496
1765877664.747243,497
1765877664.7472482,496
1765877664.747253,497
1765877664.7472608,496
1765877664.747267,496
1765877664.747273,496
1765877664.747278,497
1765877664.747283,496
1765877664.7472901,497
1765877664.747297,496
1765877664.7473018,496
1765877664.747308,496
1765877664.7473128,496
1765877664.747318,496
1765877664.747324,496
1765877664.747329,497
1765877664.747334,496
1765877664.74734,496
1765877664.7473469,496
1765877664.747353,497
1765877664.747359,496
1765877664.747364,496
1765877664.747369,497
1765877664.7473888,496
1765877664.747396,496
1765877664.747402,496
1765877664.7474072,496
1765877664.747413,496
1765877664.7474182,496
1765877664.747425,496
1765877664.747432,496
1765877664.7474382,497
1765877664.747445,496
1765877664.747452,496
1765877664.747458,496
1765877664.747463,496
1765877664.747468,496
1765877664.747474,497
1765877664.747479,496
1765877664.747485,496
1765877664.74749,496
1765877664.747496,495
1765877664.7475011,496
1765877664.7475069,496
1765877664.747512,496
1765877664.747518,496
1765877664.747523,495
1765877664.747529,496
1765877664.747535,496
1765877664.747541,496
1765877664.747547,496
1765877664.747553,496
1765877664.7475588,497
1765877664.747565,496
1765877664.747571,496
1765877664.7475772,496
1765877664.747585,496
1765877664.7475939,496
1765877664.7476008,496
1765877664.747608,496
1765877664.747614,496
1765877664.74762,496
1765877664.747626,496
1765877664.747632,496
1765877664.747638,496
1765877664.747644,496
1765877664.7476501,496
1765877664.747657,496
1765877664.747664,496
1765877664.747672,497
1765877664.747679,496
1765877664.7476869,496
1765877664.747694,496
1765877664.747701,496
1765877664.747709,495
1765877664.7477162,495
1765877664.747724,496
1765877664.74773,496
1765877664.747736,496
1765877664.747742,496
1765877664.7477481,496
1765877664.747754,496
1765877664.74776,496
1765877664.7477682,496
1765877664.747776,496
1765877664.747782,496
1765877664.747788,496
1765877664.747794,496
1765877664.7478,496
1765877664.7478058,496
1765877664.747812,496
1765877664.747818,496
1765877664.7478242,496
1765877664.74783,496
1765877664.7478359,495
1765877664.747842,495
1765877664.747848,495
1765877664.747854,496
1765877664.74786,496
1765877664.7478662,496
1765877664.747872,496
1765877664.7478778,496
1765877664.747884,496
1765877664.74789,496
1765877664.747896,496
1765877664.747902,496
1765877664.747908,496
1765877664.747914,496
1765877664.7479198,495
1765877664.747966,496
1765877664.747972,496
1765877664.747977,496
1765877664.7479832,496
1765877664.747988,496
1765877664.747993,496
1765877664.747998,496
1765877664.7480042,496
1765877664.74801,496
1765877664.7480168,496
1765877664.748022,496
1765877664.7480278,496
1765877664.748033,496
1765877664.7480378,496
1765877664.748044,496
1765877664.7480488,496
1765877664.748054,496
1765877664.74806,496
1765877664.748065,496
1765877664.74807,496
1765877664.748076,496
1765877664.748081,496
1765877664.748086,496
1765877664.748091,496
1765877664.748097,496
1765877664.748102,496
1765877664.748109,496
1765877664.748115,496
1765877664.7481222,496
1765877664.7481291,496
1765877664.748134,496
1765877664.748139,496
1765877664.7481449,496
1765877664.74815,496
1765877664.7481558,496
1765877664.748161,496
1765877664.7481658,496
1765877664.748172,495
1765877664.748178,496
1765877664.748184,496
1765877664.748189,496
1765877664.7481952,496
1765877664.748202,496
1765877664.748209,496
1765877664.7482162,496
1765877664.7482219,495
1765877664.748228,496
1765877664.748234,496
1765877664.7482398,496
1765877664.748245,496
1765877664.748251,496
1765877664.748257,495
1765877664.748263,496
1765877664.748271,496
1765877664.748278,496
1765877664.7482839,496
1765877664.748289,496
1765877664.7482948,496
1765877664.748301,496
1765877664.748307,495
1765877664.7483132,496
1765877664.748318,496
1765877664.7483242,496
1765877664.7483299,496
1765877664.748336,496
1765877664.748342,496
1765877664.7483468,496
1765877664.748353,496
1765877664.7483609,496
1765877664.748367,496
1765877664.748373,496
1765877664.748379,496
1765877664.748385,496
1765877664.7483919,496
1765877664.748399,496
1765877664.748405,496
1765877664.748411,496
1765877664.748418,495
1765877664.748424,496
1765877664.74843,496
1765877664.74844,496
1765877664.748446,496
1765877664.748451,495
1765877664.748457,496
1765877664.748462,496
1765877664.748468,496
1765877664.7484732,496
1765877664.748478,495
1765877664.7484841,496
1765877664.748489,496
1765877664.748513,496
1765877664.748519,497
1765877664.7485251,496
1765877664.74853,496
1765877664.748536,497
1765877664.7485409,496
1765877664.748547,495
1765877664.748553,496
1765877664.748558,496
1765877664.748564,496
1765877664.748569,497
1765877664.748574,496
1765877664.7485812,496
1765877664.748588,496
1765877664.748596,496
1765877664.7486038,496
1765877664.748613,496
1765877664.74862,497
1765877664.748626,496
1765877664.748632,496
1765877664.748638,496
1765877664.748644,496
1765877664.74865,496
1765877664.748656,496
1765877664.748661,496
1765877664.748668,496
1765877664.748675,496
1765877664.748682,495
1765877664.748688,496
1765877664.748694,496
1765877664.7487,496
1765877664.748706,496
1765877664.748713,496
1765877664.7487192,496
1765877664.748725,496
1765877664.748731,496
1765877664.748737,496
1765877664.7487428,496
1765877664.74875,496
1765877664.748757,496
1765877664.748765,496
1765877664.7487712,496
1765877664.748779,496
1765877664.748786,496
1765877664.7487922,496
1765877664.748798,496
1765877664.748804,496
1765877664.74881,496
1765877664.7488158,496
1765877664.748822,496
1765877664.7488298,496
1765877664.748836,496
1765877664.748842,496
1765877664.7488482,496
1765877664.748854,496
1765877664.74886,496
1765877664.748866,496
1765877664.748872,496
1765877664.748878,496
1765877664.748884,496
1765877664.7488902,496
1765877664.748896,496
1765877664.7489018,496
1765877664.748908,496
1765877664.748915,496
1765877664.748922,496
1765877664.748929,496
1765877664.748937,496
1765877664.748943,496
1765877664.7489889,496
1765877664.748996,496
1765877664.749003,496
1765877664.749009,496
1765877664.749015,496
1765877664.749022,496
1765877664.7490292,496
1765877664.749036,496
1765877664.7490408,496
1765877664.749047,496
1765877664.7490802,496
1765877664.7490869,496
1765877664.749093,496
1765877664.749099,495
1765877664.749106,496
1765877664.749113,496
1765877664.749119,496
1765877664.749126,496
1765877664.749132,496
1765877664.749137,496
1765877664.7491431,496
1765877664.7491488,496
1765877664.749154,496
1765877664.74916,496
1765877664.749165,496
1765877664.7491698,496
1765877664.749177,496
1765877664.749184,496
1765877664.7491891,496
1765877664.749196,496
1765877664.749203,496
1765877664.7492101,496
1765877664.749217,496
1765877664.749223,496
1765877664.7492301,496
1765877664.749235,496
1765877664.749241,496
1765877664.749246,496
1765877664.749252,496
1765877664.749259,496
1765877664.749266,496
1765877664.749273,495
1765877664.74928,496
1765877664.7492878,496
1765877664.749295,496
1765877664.749303,495
1765877664.74931,496
1765877664.749318,496
1765877664.749324,496
1765877664.7493298,496
1765877664.749336,496
1765877664.749342,496
1765877664.7493482,496
1765877664.749356,495
1765877664.749363,496
1765877664.7493691,495
1765877664.7493749,495
1765877664.749381,496
1765877664.749387,495
1765877664.749393,496
1765877664.749399,496
1765877664.749405,495
1765877664.749411,496
1765877664.749417,496
1765877664.749423,496
1765877664.749429,496
1765877664.749435,495
1765877664.749441,496
1765877664.7494469,496
1765877664.749452,496
1765877664.7494578,497
1765877664.749463,497
1765877664.7494678,498
1765877664.749474,497
1765877664.7494788,497
1765877664.749485,497
1765877664.74949,497
1765877664.749496,497
1765877664.749501,497
1765877664.7495081,498
1765877664.749515,497
1765877664.7495198,497
1765877664.749526,497
1765877664.7495308,497
1765877664.749537,497
1765877664.749542,496
1765877664.749548,496
1765877664.749553,496
1765877664.749559,496
1765877664.749564,496
1765877664.7495701,496
1765877664.749575,496
1765877664.749581,496
1765877664.7495859,496
1765877664.749592,496
1765877664.7495968,496
1765877664.749603,496
1765877664.749608,496
1765877664.749614,496
1765877664.74962,496
1765877664.7496252,496
1765877664.749631,496
1765877664.7496362,496
1765877664.749642,496
1765877664.7496471,496
1765877664.749653,496
1765877664.74966,496
1765877664.749666,495
1765877664.749672,496
1765877664.749679,496
1765877664.749686,495
1765877664.749693,496
1765877664.749699,497
1765877664.749704,496
1765877664.74971,496
1765877664.7497149,496
1765877664.74972,496
1765877664.7497249,496
1765877664.749731,496
1765877664.7497358,496
1765877664.749741,496
1765877664.7497458,495
1765877664.749752,496
1765877664.749758,495
1765877664.7497652,496
1765877664.749771,496
1765877664.749776,496
1765877664.749782,496
1765877664.749789,496
1765877664.749795,496
1765877664.7498019,496
1765877664.749808,496
1765877664.7498162,495
1765877664.749824,495
1765877664.7498298,496
1765877664.749836,495
1765877664.749841,496
1765877664.749847,495
1765877664.749853,495
1765877664.749859,495
1765877664.749865,496
1765877664.749871,496
1765877664.749877,496
1765877664.7498848,495
1765877664.749892,496
1765877664.749899,495
1765877664.7499049,496
1765877664.749911,496
1765877664.749917,496
1765877664.7499242,495
1765877664.749932,496
1765877664.749939,496
1765877664.749946,496
1765877664.749953,496
1765877664.749959,496
1765877664.749965,496
1765877664.749971,495
1765877664.7499762,495
1765877664.749991,496
1765877664.7500002,496
1765877664.750009,496
1765877664.750015,496
1765877664.750022,496
1765877664.75003,496
1765877664.750037,496
1765877664.7500439,495
1765877664.750051,495
1765877664.750058,496
1765877664.7500658,495
1765877664.7500732,496
1765877664.750079,496
1765877664.750085,495
1765877664.75009,496
1765877664.7500958,496
1765877664.750102,496
1765877664.750108,496
1765877664.750113,496
1765877664.750119,496
1765877664.7501261,495
1765877664.750133,495
1765877664.750139,495
1765877664.750145,495
1765877664.750151,496
1765877664.750157,495
1765877664.7501628,495
1765877664.7501702,495
1765877664.750177,495
1765877664.750182,496
1765877664.750189,495
1765877664.750196,496
1765877664.7502038,495
1765877664.750211,495
1765877664.750217,495
1765877664.7502232,496
1765877664.75023,495
1765877664.750237,496
1765877664.7502441,496
1765877664.750251,496
1765877664.750259,495
1765877664.750266,495
1765877664.750273,497
1765877664.7502809,496
1765877664.7502878,496
1765877664.750294,495
1765877664.750301,496
1765877664.750308,496
1765877664.7503161,495
1765877664.750323,496
1765877664.7503302,495
1765877664.750338,495
1765877664.750345,496
1765877664.750352,495
1765877664.7503612,495
1765877664.750368,496
1765877664.7503738,495
1765877664.750379,496
1765877664.7503848,495
1765877664.750392,496
1765877664.750398,496
1765877664.750405,496
1765877664.750411,495
1765877664.750417,496
1765877664.750423,496
1765877664.750429,495
1765877664.750436,496
1765877664.750442,495
1765877664.750449,496
1765877664.7504551,496
1765877664.750462,496
1765877664.750468,496
1765877664.750474,495
1765877664.75048,496
1765877664.750486,496
1765877664.7504919,496
1765877664.750498,495
1765877664.7505028,495
1765877664.75051,495
1765877664.750517,496
1765877664.7505229,495
1765877664.75053,495
1765877664.750536,495
1765877664.750541,495
1765877664.750548,496
1765877664.7505548,496
1765877664.750562,496
1765877664.750568,495
1765877664.750574,496
1765877664.75058,495
1765877664.750587,495
1765877664.750593,496
1765877664.7505999,495
1765877664.750607,496
1765877664.750613,496
1765877664.750619,495
1765877664.7506251,495
1765877664.7506309,495
1765877664.750638,496
1765877664.750644,496
1765877664.750651,496
1765877664.750657,496
1765877664.750664,496
1765877664.7506711,496
1765877664.750677,495
1765877664.750684,496
1765877664.7506912,496
1765877664.7507288,496
1765877664.750741,496
1765877664.750747,496
1765877664.750753,495
1765877664.750759,496
1765877664.750765,496
1765877664.750772,496
1765877664.7507799,496
1765877664.750787,496
1765877664.7507951,496
1765877664.7508018,495
1765877664.750808,496
1765877664.750814,496
1765877664.7508202,496
1765877664.750826,496
1765877664.750834,496
1765877664.7508411,496
1765877664.750846,495
1765877664.7508512,495
1765877664.7508569,496
1765877664.7508621,495
1765877664.750867,496
1765877664.750874,496
