timestamp,emg_value
1765877495.435468,495
1765877495.4354858,495
1765877495.435494,495
1765877495.4355001,495
1765877495.4355059,495
1765877495.435512,495
1765877495.435518,495
1765877495.435523,496
1765877495.43553,496
1765877495.4355378,497
1765877495.435544,497
1765877495.435549,496
1765877495.435555,493
1765877495.435561,493
1765877495.4355671,494
1765877495.435572,494
1765877495.435578,494
1765877495.4355881,494
1765877495.435594,495
1765877495.435599,495
1765877495.435605,494
1765877495.4356108,496
1765877495.435617,497
1765877495.435622,500
1765877495.435628,500
1765877495.435643,500
1765877495.435651,502
1765877495.435658,503
1765877495.435665,502
1765877495.435672,498
1765877495.435678,490
1765877495.4356842,490
1765877495.435689,493
1765877495.435701,495
1765877495.4357069,495
1765877495.435712,494
1765877495.4357178,496
1765877495.4357288,496
1765877495.4357362,495
1765877495.435743,494
1765877495.4357498,494
1765877495.435758,494
1765877495.435764,494
1765877495.43577,495
1765877495.435776,495
1765877495.435782,495
1765877495.435788,495
1765877495.4357939,495
1765877495.4358,496
1765877495.4358048,496
1765877495.435811,495
1765877495.435817,496
1765877495.435829,495
1765877495.435839,495
1765877495.4358442,495
1765877495.43585,495
1765877495.4358559,495
1765877495.435861,495
1765877495.4358668,495
1765877495.435873,495
1765877495.43588,495
1765877495.435887,495
1765877495.435894,495
1765877495.435901,495
1765877495.435908,495
1765877495.435925,495
1765877495.435931,495
1765877495.435937,495
1765877495.435943,495
1765877495.435949,495
1765877495.435956,495
1765877495.435963,495
1765877495.435971,495
1765877495.435978,495
1765877495.435984,495
1765877495.43599,495
1765877495.4359958,496
1765877495.436013,495
1765877495.43602,495
1765877495.4360268,495
1765877495.436033,496
1765877495.436039,495
1765877495.4360452,495
1765877495.436051,495
1765877495.436057,496
1765877495.4360619,497
1765877495.436068,498
1765877495.436074,500
1765877495.436084,499
1765877495.436092,497
1765877495.436098,495
1765877495.4361038,492
1765877495.436112,495
1765877495.43612,496
1765877495.436131,495
1765877495.436137,493
1765877495.4361448,494
1765877495.4361532,494
1765877495.436159,495
1765877495.4361658,494
1765877495.4361742,495
1765877495.436181,495
1765877495.436188,495
1765877495.436194,495
1765877495.4362,495
1765877495.43621,495
1765877495.436218,494
1765877495.436224,495
1765877495.43623,494
1765877495.436249,495
1765877495.436256,495
1765877495.4362628,496
1765877495.43627,496
1765877495.436276,496
1765877495.4362822,495
1765877495.436288,493
1765877495.4362938,494
1765877495.4363,495
1765877495.4363048,496
1765877495.436311,495
1765877495.436317,496
1765877495.4363232,495
1765877495.436329,496
1765877495.436335,496
1765877495.436341,496
1765877495.436346,495
1765877495.436352,494
1765877495.436358,495
1765877495.436364,495
1765877495.43638,494
1765877495.436386,495
1765877495.436394,495
1765877495.4364002,498
1765877495.436406,502
1765877495.4364119,503
1765877495.436418,501
1765877495.436424,499
1765877495.43643,489
1765877495.436436,492
1765877495.4364412,493
1765877495.436447,494
1765877495.436453,493
1765877495.436464,493
1765877495.436469,494
1765877495.4364748,495
1765877495.436481,495
1765877495.436487,494
1765877495.436494,495
1765877495.436501,495
1765877495.436508,495
1765877495.436515,495
1765877495.436521,494
1765877495.436527,495
1765877495.436533,495
1765877495.436539,495
1765877495.4365451,495
1765877495.43655,495
1765877495.436556,495
1765877495.436568,496
1765877495.436575,496
1765877495.4365811,495
1765877495.436587,494
1765877495.4365928,495
1765877495.436599,495
1765877495.436606,495
1765877495.436613,495
1765877495.43662,495
1765877495.436627,495
1765877495.436633,496
1765877495.436639,495
1765877495.436645,495
1765877495.436651,495
1765877495.436657,495
1765877495.436667,495
1765877495.436673,495
1765877495.436679,495
1765877495.436685,495
1765877495.436691,495
1765877495.436697,496
1765877495.436703,496
1765877495.4367082,496
1765877495.436714,497
1765877495.4367201,499
1765877495.4367292,500
1765877495.436736,500
1765877495.436746,502
1765877495.4367528,503
1765877495.436759,500
1765877495.436765,491
1765877495.4367712,490
1765877495.4367769,494
1765877495.4367821,493
1765877495.436788,494
1765877495.436794,495
1765877495.4368,494
1765877495.436806,492
1765877495.436811,492
1765877495.436817,493
1765877495.4368231,494
1765877495.4368289,495
1765877495.436835,495
1765877495.436841,495
1765877495.4368472,495
1765877495.436853,494
1765877495.4368582,495
1765877495.436865,495
1765877495.436872,495
1765877495.4368799,495
1765877495.436887,496
1765877495.436893,495
1765877495.436901,496
1765877495.436909,495
1765877495.436915,495
1765877495.436922,495
1765877495.436929,495
1765877495.436935,495
1765877495.4369411,495
1765877495.4369469,496
1765877495.436953,495
1765877495.436959,495
1765877495.4369652,495
1765877495.436971,495
1765877495.4369762,495
1765877495.436982,494
1765877495.4369888,495
1765877495.436996,497
1765877495.437003,498
1765877495.437011,500
1765877495.437016,500
1765877495.437022,495
1765877495.4370282,493
1765877495.437034,492
1765877495.43704,495
1765877495.437052,495
1765877495.437057,495
1765877495.437063,496
1765877495.437069,497
1765877495.437075,494
1765877495.437082,494
1765877495.437089,494
1765877495.437095,495
1765877495.4371011,495
1765877495.4371068,495
1765877495.437112,495
1765877495.437118,495
1765877495.437124,495
1765877495.437131,495
1765877495.437139,495
1765877495.4371462,496
1765877495.437152,495
1765877495.4371579,495
1765877495.437164,495
1765877495.43717,495
1765877495.437176,496
1765877495.437182,495
1765877495.4371881,495
1765877495.437196,495
1765877495.437205,495
1765877495.437215,495
1765877495.437222,495
1765877495.437228,495
1765877495.437234,494
1765877495.4372401,495
1765877495.437245,495
1765877495.437251,495
1765877495.437259,495
1765877495.4372659,496
1765877495.437272,496
1765877495.4372768,496
1765877495.437283,496
1765877495.437289,496
1765877495.4372952,495
1765877495.437301,495
1765877495.437307,495
1765877495.437313,494
1765877495.4373188,495
1765877495.437324,496
1765877495.43733,495
1765877495.437336,496
1765877495.437342,495
1765877495.4373481,495
1765877495.437354,496
1765877495.43736,495
1765877495.437365,494
1765877495.4373708,495
1765877495.437377,495
1765877495.437383,495
1765877495.4373891,495
1765877495.4373949,496
1765877495.437401,496
1765877495.437407,496
1765877495.4374132,496
1765877495.437422,496
1765877495.437429,498
1765877495.437435,501
1765877495.437441,500
1765877495.4374468,499
1765877495.437453,495
1765877495.437459,494
1765877495.4374652,494
1765877495.43747,495
1765877495.4374762,494
1765877495.4374819,495
1765877495.437488,495
1765877495.437494,496
1765877495.4375,497
1765877495.437505,496
1765877495.437511,496
1765877495.4375172,496
1765877495.437529,496
1765877495.437536,497
1765877495.437543,495
1765877495.437549,497
1765877495.4375548,497
1765877495.437561,498
1765877495.437566,496
1765877495.437572,495
1765877495.437578,495
1765877495.4375849,493
1765877495.437592,493
1765877495.437598,494
1765877495.4376042,495
1765877495.43761,495
1765877495.437616,495
1765877495.437622,495
1765877495.4376268,497
1765877495.437633,498
1765877495.437639,498
1765877495.437645,498
1765877495.4376519,497
1765877495.43766,495
1765877495.4376671,495
1765877495.4376729,494
1765877495.437679,495
1765877495.437685,495
1765877495.437691,495
1765877495.437697,495
1765877495.437703,493
1765877495.437709,494
1765877495.4377139,495
1765877495.43772,496
1765877495.437727,496
1765877495.437734,496
1765877495.437742,495
1765877495.437749,495
1765877495.4377558,495
1765877495.437763,495
1765877495.437769,495
1765877495.4377751,496
1765877495.437781,497
1765877495.4377868,498
1765877495.437793,497
1765877495.4377978,496
1765877495.437804,494
1765877495.43781,493
1765877495.4378161,495
1765877495.4378219,495
1765877495.437828,495
1765877495.437834,495
1765877495.43784,495
1765877495.437846,496
1765877495.437852,495
1765877495.437858,494
1765877495.4378629,494
1765877495.437869,495
1765877495.437875,495
1765877495.4378822,495
1765877495.437889,495
1765877495.437896,496
1765877495.4379032,496
1765877495.437909,496
1765877495.4379148,496
1765877495.437922,495
1765877495.4379299,495
1765877495.437936,494
1765877495.437942,495
1765877495.4379468,495
1765877495.437953,494
1765877495.437959,495
1765877495.437966,495
1765877495.437974,496
1765877495.437981,495
1765877495.437988,496
1765877495.437994,496
1765877495.437999,497
1765877495.438005,497
1765877495.438011,497
1765877495.4380171,496
1765877495.4380229,496
1765877495.438029,496
1765877495.438035,497
1765877495.43804,497
1765877495.438046,497
1765877495.4380522,498
1765877495.438058,498
1765877495.438064,498
1765877495.43807,498
1765877495.438076,498
1765877495.438082,496
1765877495.43809,495
1765877495.438098,495
1765877495.4381068,495
1765877495.4381151,494
1765877495.438122,495
1765877495.4381282,495
1765877495.438134,495
1765877495.43814,495
1765877495.438146,494
1765877495.4381518,495
1765877495.438158,496
1765877495.438163,496
1765877495.438169,496
1765877495.438175,496
1765877495.4381812,495
1765877495.438186,498
1765877495.4381921,497
1765877495.438198,498
1765877495.4382038,498
1765877495.438209,498
1765877495.438215,494
1765877495.438221,497
1765877495.438227,496
1765877495.438232,495
1765877495.4382389,496
1765877495.438247,496
1765877495.438256,494
1765877495.438265,493
1765877495.438272,493
1765877495.438278,494
1765877495.438284,494
1765877495.4382899,495
1765877495.438296,494
1765877495.438302,495
1765877495.438308,496
1765877495.438313,495
1765877495.4383192,495
1765877495.438325,495
1765877495.438331,496
1765877495.438337,495
1765877495.4383428,495
1765877495.438348,495
1765877495.438354,495
1765877495.43836,495
1765877495.438366,497
1765877495.4383721,499
1765877495.438378,498
1765877495.438384,497
1765877495.43839,493
1765877495.438396,493
1765877495.438401,494
1765877495.438407,495
1765877495.4384131,496
1765877495.438421,496
1765877495.438428,495
1765877495.4384341,496
1765877495.438439,495
1765877495.438445,495
1765877495.438451,496
1765877495.438457,497
1765877495.438463,495
1765877495.4384692,495
1765877495.438475,494
1765877495.43848,495
1765877495.438486,495
1765877495.4384918,495
1765877495.438498,495
1765877495.438503,494
1765877495.438509,495
1765877495.438515,495
1765877495.4385211,495
1765877495.438526,495
1765877495.438532,495
1765877495.438538,495
1765877495.4385438,495
1765877495.43855,494
1765877495.438557,495
1765877495.438564,495
1765877495.43857,495
1765877495.4385762,495
1765877495.4385831,495
1765877495.43859,494
1765877495.438596,495
1765877495.438602,495
1765877495.438608,495
1765877495.438613,495
1765877495.438619,495
1765877495.438625,495
1765877495.4386308,495
1765877495.438637,495
1765877495.438643,496
1765877495.4386492,496
1765877495.438654,498
1765877495.4386601,499
1765877495.4386659,498
1765877495.4386718,495
1765877495.438678,496
1765877495.438684,496
1765877495.43869,495
1765877495.438696,494
1765877495.4387012,496
1765877495.4387069,495
1765877495.438713,493
1765877495.438719,496
1765877495.4387252,495
1765877495.438731,496
1765877495.438737,496
1765877495.438744,495
1765877495.438751,495
1765877495.438756,494
1765877495.438765,494
1765877495.438771,494
1765877495.438777,494
1765877495.438783,495
1765877495.4387882,494
1765877495.438794,495
1765877495.4387999,495
1765877495.438806,495
1765877495.438812,496
1765877495.438818,496
1765877495.438824,495
1765877495.438829,494
1765877495.438835,494
1765877495.438841,494
1765877495.438847,495
1765877495.438853,496
1765877495.438859,496
1765877495.438865,495
1765877495.43887,495
1765877495.438876,496
1765877495.438882,495
1765877495.4388878,496
1765877495.438894,495
1765877495.438901,495
1765877495.4389079,495
1765877495.438914,495
1765877495.43892,494
1765877495.438926,494
1765877495.438932,495
1765877495.4389381,494
1765877495.438943,494
1765877495.438949,494
1765877495.438955,494
1765877495.4389608,495
1765877495.438967,495
1765877495.438973,495
1765877495.438978,495
1765877495.438984,495
1765877495.43899,495
1765877495.438996,495
1765877495.439002,495
1765877495.439008,495
1765877495.439013,495
1765877495.439019,496
1765877495.439025,495
1765877495.4390311,495
1765877495.4390368,495
1765877495.439043,495
1765877495.439048,495
1765877495.439054,494
1765877495.439062,495
1765877495.4390678,495
1765877495.439074,494
1765877495.43908,494
1765877495.4390862,495
1765877495.439092,496
1765877495.4390981,495
1765877495.439104,496
1765877495.4391098,495
1765877495.439115,495
1765877495.439121,495
1765877495.439127,495
1765877495.439133,497
1765877495.4391391,499
1765877495.4391448,501
1765877495.439151,502
1765877495.439157,500
1765877495.439163,494
1765877495.439169,494
1765877495.439174,495
1765877495.4391801,496
1765877495.4391859,495
1765877495.439192,494
1765877495.439198,493
1765877495.439204,493
1765877495.43921,493
1765877495.4392152,494
1765877495.439223,494
1765877495.439229,494
1765877495.439237,495
1765877495.439243,496
1765877495.4392488,495
1765877495.439255,495
1765877495.439261,495
1765877495.4392672,495
1765877495.43928,495
1765877495.439286,495
1765877495.439292,495
1765877495.4392982,495
1765877495.4393039,495
1765877495.4393091,496
1765877495.4393148,495
1765877495.439321,495
1765877495.439327,495
1765877495.439332,495
1765877495.439338,495
1765877495.4393442,497
1765877495.4393501,499
1765877495.4393559,498
1765877495.439362,496
1765877495.43937,495
1765877495.4393768,493
1765877495.439384,495
1765877495.439391,495
1765877495.4393978,496
1765877495.439405,495
1765877495.439413,496
1765877495.43942,496
1765877495.439426,495
1765877495.439431,493
1765877495.4394372,495
1765877495.4394429,495
1765877495.439449,493
1765877495.439455,494
1765877495.4394612,495
1765877495.439467,495
1765877495.439473,495
1765877495.439479,496
1765877495.439484,495
1765877495.43949,495
1765877495.439496,495
1765877495.439502,495
1765877495.439508,495
1765877495.4395142,495
1765877495.43952,495
1765877495.4395251,495
1765877495.439531,496
1765877495.4395368,496
1765877495.439543,495
1765877495.439549,495
1765877495.4395552,496
1765877495.439561,496
1765877495.4395678,495
1765877495.439574,496
1765877495.439584,496
1765877495.43959,496
1765877495.439595,495
1765877495.439601,495
1765877495.4396071,496
1765877495.4396129,495
1765877495.439619,495
1765877495.439625,496
1765877495.43963,496
1765877495.439636,496
1765877495.4396422,496
1765877495.439648,496
1765877495.4396539,495
1765877495.43966,495
1765877495.439666,496
1765877495.439671,496
1765877495.439677,495
1765877495.439683,495
1765877495.439689,496
1765877495.4396951,496
1765877495.439701,497
1765877495.439706,498
1765877495.439712,497
1765877495.4397178,498
1765877495.439724,498
1765877495.43973,497
1765877495.439741,494
1765877495.439765,492
1765877495.439772,494
1765877495.4397771,494
1765877495.4397829,494
1765877495.439789,495
1765877495.439795,495
1765877495.439801,495
1765877495.439807,495
1765877495.4398131,496
1765877495.439819,495
1765877495.4398239,495
1765877495.43983,495
1765877495.4398358,495
1765877495.439842,495
1765877495.439848,495
1765877495.4398541,496
1765877495.4398599,495
1765877495.439865,496
1765877495.439871,496
1765877495.439877,496
1765877495.439883,495
1765877495.439889,495
1765877495.4398952,495
1765877495.4399009,495
1765877495.439907,495
1765877495.4399118,496
1765877495.4399202,495
1765877495.439926,495
1765877495.439935,495
1765877495.4399412,496
1765877495.439947,495
1765877495.4399529,494
1765877495.439959,495
1765877495.4399638,495
1765877495.43997,495
1765877495.439976,496
1765877495.4399822,496
1765877495.439988,496
1765877495.439994,495
1765877495.44,496
1765877495.4400058,495
1765877495.440011,496
1765877495.440017,495
1765877495.440023,495
1765877495.440029,495
1765877495.440035,496
1765877495.440041,495
1765877495.440046,495
1765877495.440052,495
1765877495.440059,496
1765877495.440066,497
1765877495.440073,497
1765877495.4400792,497
1765877495.440084,498
1765877495.4400918,495
1765877495.440099,496
1765877495.440107,497
1765877495.4401128,496
1765877495.440119,495
1765877495.440125,496
1765877495.4401312,496
1765877495.440137,495
1765877495.4401438,496
1765877495.44015,497
1765877495.440156,497
1765877495.440162,496
1765877495.440168,496
1765877495.440174,496
1765877495.44018,497
1765877495.440186,496
1765877495.440192,496
1765877495.440198,495
1765877495.4402041,495
1765877495.4402099,496
1765877495.440216,496
1765877495.440222,495
1765877495.440228,495
1765877495.440234,496
1765877495.440323,495
1765877495.440341,496
1765877495.440355,495
1765877495.4403808,496
1765877495.440394,496
1765877495.440408,496
1765877495.440421,496
1765877495.440434,496
1765877495.440447,495
1765877495.44046,495
1765877495.4404721,496
1765877495.4404852,496
1765877495.4404979,495
1765877495.440524,496
1765877495.4405499,496
1765877495.440564,495
1765877495.440577,495
1765877495.4405901,496
1765877495.440604,495
1765877495.440799,495
1765877495.4408069,496
1765877495.440814,496
1765877495.44082,496
1765877495.4408262,495
1765877495.440832,496
1765877495.4408379,496
1765877495.440844,496
1765877495.44085,496
1765877495.440856,496
1765877495.440864,494
1765877495.440872,496
1765877495.440879,495
1765877495.440885,496
1765877495.44089,495
1765877495.440897,495
1765877495.440903,496
1765877495.440963,496
1765877495.4409852,495
1765877495.4409978,495
1765877495.441011,496
1765877495.441024,495
1765877495.441036,495
1765877495.441049,495
1765877495.441061,496
1765877495.441074,495
1765877495.441087,496
1765877495.4411001,495
1765877495.441112,495
1765877495.4411252,494
1765877495.441153,495
1765877495.4411662,496
1765877495.441178,496
1765877495.441191,496
1765877495.4412029,496
1765877495.441216,496
1765877495.441228,496
1765877495.441244,495
1765877495.441257,495
1765877495.441269,495
1765877495.441282,495
1765877495.4412951,495
1765877495.441308,496
1765877495.44132,496
1765877495.441333,496
1765877495.441345,495
1765877495.441358,496
1765877495.44137,495
1765877495.441383,496
1765877495.441395,496
1765877495.441408,495
1765877495.441421,496
1765877495.4414332,495
1765877495.4414709,495
1765877495.441495,495
1765877495.441522,495
1765877495.441539,496
1765877495.441546,497
1765877495.441552,496
1765877495.4415581,496
1765877495.4415638,496
1765877495.44157,495
1765877495.441576,496
1765877495.441584,496
1765877495.441592,495
1765877495.441598,495
1765877495.4416041,495
1765877495.44161,496
1765877495.4416158,495
1765877495.441622,496
1765877495.441628,496
1765877495.441634,496
1765877495.441668,495
1765877495.4416819,495
1765877495.441695,494
1765877495.441708,494
1765877495.441756,495
1765877495.44177,495
1765877495.44181,495
1765877495.441827,496
1765877495.441841,496
1765877495.441855,496
1765877495.441897,496
1765877495.441908,496
1765877495.441914,496
1765877495.44192,495
1765877495.441927,496
1765877495.4419332,494
1765877495.441962,496
1765877495.441976,495
1765877495.441993,496
1765877495.4420202,496
1765877495.442034,495
1765877495.442059,496
1765877495.442102,495
1765877495.4421089,495
1765877495.442116,495
1765877495.442139,495
1765877495.442157,495
1765877495.4421701,495
1765877495.4421902,495
1765877495.442197,495
1765877495.4422028,495
1765877495.442209,495
1765877495.442215,495
1765877495.4422212,496
1765877495.4422688,496
1765877495.4422882,495
1765877495.442302,495
1765877495.442315,495
1765877495.442348,496
1765877495.442355,496
1765877495.442361,496
1765877495.442367,496
1765877495.442373,496
1765877495.442379,494
1765877495.4423869,495
1765877495.442394,495
1765877495.4424,495
1765877495.442406,496
1765877495.4424121,495
1765877495.4424179,495
1765877495.442424,495
1765877495.44243,495
1765877495.442436,494
1765877495.442442,495
1765877495.4424489,496
1765877495.442455,496
1765877495.442461,496
1765877495.442467,496
1765877495.442473,495
1765877495.4424791,495
1765877495.442485,494
1765877495.4424908,495
1765877495.442511,495
1765877495.442546,495
1765877495.4425821,495
1765877495.4425972,495
1765877495.442611,495
1765877495.442624,496
1765877495.442654,496
1765877495.442726,496
1765877495.442741,495
1765877495.442775,495
1765877495.442781,496
1765877495.4427872,496
1765877495.442793,495
1765877495.442799,495
1765877495.442805,496
1765877495.4428391,495
1765877495.442854,496
1765877495.44287,495
1765877495.4428868,496
1765877495.442893,495
1765877495.4429,495
1765877495.4429061,495
1765877495.442944,496
1765877495.442966,496
1765877495.442973,495
1765877495.442979,496
1765877495.443006,496
1765877495.44302,495
1765877495.443043,495
1765877495.443073,495
1765877495.44308,495
1765877495.4430861,495
1765877495.443124,495
1765877495.443132,495
1765877495.44314,496
1765877495.443172,496
1765877495.443197,495
1765877495.4432042,495
1765877495.4432309,495
1765877495.443239,496
1765877495.4432452,496
1765877495.443251,495
1765877495.443257,496
1765877495.443263,496
1765877495.443269,495
1765877495.443275,495
1765877495.443281,496
1765877495.4432871,495
1765877495.4432929,495
1765877495.443299,495
1765877495.443305,495
1765877495.4433112,496
1765877495.443316,496
1765877495.4433222,497
1765877495.443328,497
1765877495.4433339,497
1765877495.44334,496
1765877495.443346,494
1765877495.443352,495
1765877495.443358,494
1765877495.443369,495
1765877495.4433768,496
1765877495.4433842,495
1765877495.443399,496
1765877495.4434052,495
1765877495.443414,494
1765877495.443439,495
1765877495.443447,494
1765877495.4434528,495
1765877495.443477,495
1765877495.4434838,495
1765877495.44349,495
1765877495.443497,495
1765877495.443504,495
1765877495.44351,496
1765877495.443516,495
1765877495.443522,495
1765877495.443528,495
1765877495.4435341,495
1765877495.4435399,495
1765877495.443546,494
1765877495.443552,494
1765877495.443558,494
1765877495.443564,495
1765877495.44357,496
1765877495.443576,496
1765877495.443582,497
1765877495.443588,497
1765877495.4435961,495
1765877495.443604,496
1765877495.4436102,496
1765877495.443616,496
1765877495.4436219,495
1765877495.443628,496
1765877495.443634,495
1765877495.44364,495
1765877495.443646,495
1765877495.4436522,495
1765877495.4436579,495
1765877495.4436638,496
1765877495.44367,496
1765877495.4436748,495
1765877495.443681,497
1765877495.443687,497
1765877495.4436932,496
1765877495.443699,495
1765877495.443705,495
1765877495.443711,494
1765877495.443717,494
1765877495.443723,495
1765877495.443729,495
1765877495.443736,495
1765877495.443767,494
1765877495.443774,495
1765877495.4437802,495
1765877495.444993,495
1765877495.445081,495
1765877495.445099,495
1765877495.445135,496
1765877495.4451442,496
1765877495.445167,495
1765877495.445181,496
1765877495.445194,495
1765877495.445207,496
1765877495.4452212,496
1765877495.44524,496
1765877495.445246,495
1765877495.4452522,495
1765877495.445258,495
1765877495.4452639,495
1765877495.44527,495
1765877495.445276,495
1765877495.4452832,494
1765877495.445289,495
1765877495.445295,495
1765877495.445301,495
1765877495.4453068,496
1765877495.445313,494
1765877495.445326,495
1765877495.445333,495
1765877495.44534,495
1765877495.445348,495
1765877495.4453561,495
1765877495.4453619,495
1765877495.445368,495
1765877495.445374,495
1765877495.4453802,495
1765877495.445386,495
1765877495.445392,495
1765877495.445398,495
1765877495.4454038,496
1765877495.445445,495
1765877495.445451,496
1765877495.445457,495
1765877495.445463,495
1765877495.445469,495
1765877495.445475,495
1765877495.445481,494
1765877495.445487,495
1765877495.445493,495
1765877495.445499,495
1765877495.4455051,495
1765877495.4455109,495
1765877495.445517,496
1765877495.445525,496
1765877495.4455318,496
1765877495.445539,495
1765877495.445547,493
1765877495.445556,493
1765877495.4455628,493
1765877495.445575,495
1765877495.4455822,496
1765877495.445617,494
1765877495.445655,495
1765877495.445725,498
1765877495.445732,496
1765877495.445738,497
1765877495.445744,497
1765877495.44575,497
1765877495.445756,496
1765877495.4458098,495
1765877495.445817,496
1765877495.445823,497
1765877495.4458292,496
1765877495.445835,496
1765877495.4458408,497
1765877495.445846,497
1765877495.4458518,497
1765877495.445858,497
1765877495.445864,496
1765877495.445885,497
1765877495.445893,495
1765877495.4459,495
1765877495.445906,494
1765877495.445914,496
1765877495.44592,496
1765877495.445927,496
1765877495.445933,496
1765877495.4459388,496
1765877495.445945,496
1765877495.445952,495
1765877495.445981,494
1765877495.446012,495
1765877495.446021,495
1765877495.446027,496
1765877495.446033,497
1765877495.446039,497
1765877495.446045,497
1765877495.4460511,496
1765877495.4460568,495
1765877495.446063,496
1765877495.446069,494
1765877495.446075,495
1765877495.446081,495
1765877495.446086,495
1765877495.446104,495
1765877495.446134,495
1765877495.44618,495
1765877495.4461892,495
1765877495.446195,496
1765877495.446201,495
1765877495.446224,495
1765877495.446251,496
1765877495.446275,495
1765877495.446282,495
1765877495.4462879,496
1765877495.446294,496
1765877495.4462998,495
1765877495.446306,494
1765877495.446312,496
1765877495.4463181,495
1765877495.4463239,495
1765877495.44633,495
1765877495.446336,495
1765877495.446342,495
1765877495.4463491,495
1765877495.446354,495
1765877495.446361,495
1765877495.4463658,495
1765877495.4463732,495
1765877495.446379,495
1765877495.4463842,495
1765877495.44639,495
1765877495.4463959,495
1765877495.446402,495
1765877495.446408,495
1765877495.446414,495
1765877495.446421,495
1765877495.446429,495
1765877495.446435,495
1765877495.446441,495
1765877495.4464471,495
1765877495.446453,495
1765877495.4464588,496
1765877495.446465,495
1765877495.446471,495
1765877495.4464772,495
1765877495.446483,495
1765877495.4464881,495
1765877495.446495,495
1765877495.4465,494
1765877495.446506,495
1765877495.4465122,495
1765877495.446518,494
1765877495.446524,494
1765877495.44653,495
1765877495.4465358,495
1765877495.446542,495
1765877495.446549,496
1765877495.4465559,495
1765877495.446563,495
1765877495.446569,495
1765877495.4465752,495
1765877495.446581,495
1765877495.4465878,495
1765877495.4465961,495
1765877495.446601,495
1765877495.446607,495
1765877495.446614,495
1765877495.4466188,496
1765877495.446625,495
1765877495.446632,495
1765877495.446639,495
1765877495.446646,495
1765877495.446652,494
1765877495.4466581,494
1765877495.4466639,495
1765877495.44667,496
1765877495.446676,495
1765877495.4466822,494
1765877495.446688,494
1765877495.4466932,495
1765877495.4467,495
1765877495.446707,495
1765877495.4467142,496
1765877495.44672,495
1765877495.4467258,495
1765877495.446732,495
1765877495.446738,495
1765877495.446744,495
1765877495.446752,495
1765877495.44677,495
1765877495.446778,496
1765877495.44682,495
1765877495.446826,495
1765877495.4468322,496
1765877495.446838,496
1765877495.4468439,495
1765877495.446851,496
1765877495.446858,496
1765877495.446866,495
1765877495.4468732,495
1765877495.446879,495
1765877495.4468842,495
1765877495.4468899,495
1765877495.446896,495
1765877495.446902,495
1765877495.446908,496
1765877495.446914,496
1765877495.44692,496
1765877495.4469252,495
1765877495.446931,495
1765877495.446937,496
1765877495.446943,495
1765877495.446949,495
1765877495.446954,495
1765877495.446964,496
1765877495.4469728,496
1765877495.4469812,495
1765877495.446989,496
1765877495.446995,495
1765877495.447001,495
1765877495.447007,496
1765877495.4470122,496
1765877495.447018,496
1765877495.447024,495
1765877495.44703,496
1765877495.4470358,495
1765877495.447042,495
1765877495.447047,495
1765877495.447053,495
1765877495.447059,495
1765877495.447065,496
1765877495.447071,496
1765877495.447077,495
1765877495.447086,495
1765877495.447094,495
1765877495.4471009,496
1765877495.447108,495
1765877495.447114,495
1765877495.44712,495
1765877495.447126,494
1765877495.4471328,494
1765877495.4471428,496
1765877495.4471512,497
1765877495.447157,496
1765877495.4471629,496
1765877495.447169,496
1765877495.447175,496
1765877495.447181,496
1765877495.447187,496
1765877495.447192,495
1765877495.447198,495
1765877495.447204,494
1765877495.447209,495
1765877495.447714,495
1765877495.447744,495
1765877495.447753,496
1765877495.4477818,496
1765877495.447788,496
1765877495.447794,496
1765877495.447801,497
1765877495.44783,496
1765877495.447841,497
1765877495.447849,497
1765877495.447855,497
1765877495.447861,497
1765877495.447867,496
1765877495.447873,496
1765877495.447878,495
1765877495.447885,494
1765877495.447892,495
1765877495.4478981,496
1765877495.447903,497
1765877495.447909,496
1765877495.447914,496
1765877495.44792,496
1765877495.447925,496
1765877495.4479308,496
1765877495.447937,496
1765877495.447943,495
1765877495.4479492,494
1765877495.447954,495
1765877495.4479601,496
1765877495.4479659,496
1765877495.447972,496
1765877495.447978,496
1765877495.4479842,497
1765877495.44799,497
1765877495.447996,497
1765877495.448002,496
1765877495.4480078,496
1765877495.448014,496
1765877495.44802,495
1765877495.4480262,494
1765877495.448032,495
1765877495.448203,495
1765877495.448215,495
1765877495.448221,495
1765877495.4482272,496
1765877495.448233,496
1765877495.448239,495
1765877495.448245,495
1765877495.4482508,496
1765877495.448257,496
1765877495.448263,494
1765877495.4482691,494
1765877495.4482749,494
1765877495.448281,494
1765877495.448287,495
1765877495.4482932,495
1765877495.448298,495
1765877495.4483042,495
1765877495.448309,495
1765877495.4483142,495
1765877495.448319,496
1765877495.4483252,496
1765877495.44833,496
1765877495.4483352,497
1765877495.448341,496
1765877495.4483461,496
1765877495.448351,496
1765877495.4483562,495
1765877495.448363,495
1765877495.44837,495
1765877495.448375,494
1765877495.448381,495
1765877495.448386,495
1765877495.448392,495
1765877495.448399,496
1765877495.448407,497
1765877495.4484138,498
1765877495.448421,496
1765877495.448427,494
1765877495.448433,493
1765877495.4484391,493
1765877495.4484448,495
1765877495.448451,496
1765877495.448457,497
1765877495.4484632,497
1765877495.448468,497
1765877495.4484742,496
1765877495.44848,496
1765877495.4484859,497
1765877495.448492,495
1765877495.448498,493
1765877495.448504,495
1765877495.44851,495
1765877495.4485161,495
1765877495.448522,494
1765877495.448529,494
1765877495.4485362,495
1765877495.4485419,496
1765877495.448548,495
1765877495.448554,495
1765877495.4485602,495
1765877495.448566,494
1765877495.448572,494
1765877495.448577,495
1765877495.448583,495
1765877495.448589,495
1765877495.448595,495
1765877495.448601,495
1765877495.448607,495
1765877495.4486132,496
1765877495.448619,495
1765877495.4486248,496
1765877495.448631,496
1765877495.4486358,496
1765877495.448643,496
1765877495.448651,494
1765877495.4486568,493
1765877495.448663,495
1765877495.448669,496
1765877495.4486752,495
1765877495.4486809,496
1765877495.4486861,497
1765877495.448694,496
1765877495.4487019,497
1765877495.44871,494
1765877495.448717,494
1765877495.448725,494
1765877495.448732,495
1765877495.44874,495
1765877495.448746,495
1765877495.4487522,494
1765877495.4487581,494
1765877495.4487638,494
1765877495.44877,494
1765877495.448776,495
1765877495.448782,495
1765877495.448788,496
1765877495.4487941,495
1765877495.4488,494
1765877495.4488058,494
1765877495.448812,495
1765877495.448818,496
1765877495.4488242,497
1765877495.448832,497
1765877495.448838,495
1765877495.448844,494
1765877495.44885,496
1765877495.448856,495
1765877495.448864,495
1765877495.448871,494
1765877495.448877,494
1765877495.448883,495
1765877495.448889,494
1765877495.448896,494
1765877495.4489028,495
1765877495.448909,495
1765877495.448915,496
1765877495.4489212,496
1765877495.448927,495
1765877495.4489331,495
1765877495.448939,494
1765877495.4489448,495
1765877495.448951,495
1765877495.448957,496
1765877495.448964,497
1765877495.448972,496
1765877495.448979,496
1765877495.448985,496
1765877495.448991,496
1765877495.448997,496
1765877495.449003,496
1765877495.449009,496
1765877495.4490151,496
1765877495.4490209,496
1765877495.449027,496
1765877495.449035,495
1765877495.449043,495
1765877495.449049,497
1765877495.449054,496
1765877495.4490602,496
1765877495.449066,495
1765877495.4490721,495
1765877495.449078,494
1765877495.4490838,495
1765877495.44909,495
1765877495.449096,496
1765877495.4491022,496
1765877495.449108,496
1765877495.449114,495
1765877495.449121,495
1765877495.449126,495
1765877495.4491332,495
1765877495.449138,495
1765877495.4491441,495
1765877495.4491498,495
1765877495.449156,495
1765877495.449162,495
1765877495.449169,496
1765877495.449174,496
1765877495.4491808,496
1765877495.449187,495
1765877495.449193,496
1765877495.4492009,495
1765877495.449208,495
1765877495.449214,495
1765877495.4492202,495
1765877495.449226,495
1765877495.4492319,494
1765877495.449238,493
1765877495.449244,494
1765877495.44925,494
1765877495.449256,495
1765877495.4492621,494
1765877495.4492679,495
1765877495.449274,495
1765877495.44928,495
1765877495.449286,495
1765877495.449292,496
1765877495.449297,495
1765877495.4493032,495
1765877495.4493089,495
1765877495.449315,496
1765877495.449321,495
1765877495.449327,495
1765877495.449333,495
1765877495.449339,495
1765877495.449345,495
1765877495.4493508,495
1765877495.449357,495
1765877495.449365,495
1765877495.4493718,495
1765877495.449378,495
1765877495.449384,495
1765877495.4493902,495
1765877495.449396,495
1765877495.449402,495
1765877495.4494069,495
1765877495.449413,495
1765877495.44942,495
1765877495.449426,495
1765877495.449431,495
1765877495.449437,495
1765877495.449443,495
1765877495.449449,495
1765877495.449455,495
1765877495.449461,495
1765877495.449467,494
1765877495.4494731,495
1765877495.4494789,495
1765877495.449485,496
1765877495.449491,495
1765877495.449497,496
1765877495.449503,495
1765877495.4495091,495
1765877495.449515,495
1765877495.4495208,495
1765877495.4495308,495
1765877495.4495392,495
1765877495.449545,495
1765877495.449551,495
1765877495.449557,494
1765877495.4495628,495
1765877495.449569,495
1765877495.449575,495
1765877495.4495811,495
1765877495.4495869,495
1765877495.449593,495
1765877495.449599,495
1765877495.4496052,495
1765877495.449611,495
1765877495.449617,495
1765877495.449623,495
1765877495.4496288,495
1765877495.449635,495
1765877495.449641,495
1765877495.4496472,495
1765877495.449653,495
1765877495.4496582,496
1765877495.449664,496
1765877495.4496698,495
1765877495.449676,495
1765877495.449682,495
1765877495.44969,495
1765877495.449697,495
1765877495.449703,495
1765877495.449709,495
1765877495.449715,495
1765877495.449721,496
1765877495.449727,495
1765877495.449733,495
1765877495.449739,495
1765877495.449745,494
1765877495.4497511,495
1765877495.4497569,495
1765877495.449763,495
1765877495.449769,495
1765877495.449779,496
1765877495.449785,496
1765877495.449791,495
1765877495.4497972,495
1765877495.449803,495
1765877495.44981,495
1765877495.449816,496
1765877495.449822,496
1765877495.4498281,495
1765877495.4498339,495
1765877495.44984,496
1765877495.449846,495
1765877495.449852,496
1765877495.44986,495
1765877495.449868,495
1765877495.449874,495
1765877495.4498801,495
1765877495.4498858,495
1765877495.449892,495
1765877495.4499211,494
1765877495.4499269,495
1765877495.449933,495
1765877495.449939,495
1765877495.4499462,495
1765877495.449952,495
1765877495.4499578,496
1765877495.449964,495
1765877495.44997,495
1765877495.449975,495
1765877495.449981,495
1765877495.4499872,496
1765877495.449993,496
1765877495.449999,495
1765877495.450005,494
1765877495.450052,494
1765877495.450059,494
1765877495.450065,495
1765877495.450093,495
1765877495.450099,496
1765877495.4501052,495
1765877495.450113,494
1765877495.45012,495
1765877495.4501262,495
1765877495.450133,495
1765877495.4501388,495
1765877495.450145,495
1765877495.450151,495
1765877495.4501572,494
1765877495.450192,495
1765877495.450231,495
1765877495.450243,496
1765877495.450249,495
1765877495.450263,496
1765877495.45027,496
1765877495.4502761,495
1765877495.450282,495
1765877495.450288,495
1765877495.450294,495
1765877495.4503,495
1765877495.450305,495
1765877495.450355,495
1765877495.450376,495
1765877495.450389,495
1765877495.450424,496
1765877495.450433,495
1765877495.450439,495
1765877495.4504452,495
1765877495.4504519,495
1765877495.45046,496
1765877495.4504662,496
1765877495.4504719,496
1765877495.450478,494
1765877495.450484,494
1765877495.45049,495
1765877495.450496,495
1765877495.450502,495
1765877495.450508,495
1765877495.4505138,495
1765877495.450573,496
1765877495.450582,495
1765877495.450588,495
1765877495.4505951,495
1765877495.450607,495
1765877495.450613,496
1765877495.450619,495
1765877495.450625,495
1765877495.450631,496
1765877495.450637,495
1765877495.450643,496
1765877495.450649,495
1765877495.450678,495
1765877495.4506922,495
1765877495.4507048,496
1765877495.450717,495
1765877495.4507468,495
1765877495.4507678,495
1765877495.450774,495
1765877495.45078,495
1765877495.450786,495
1765877495.4507918,495
1765877495.450798,495
1765877495.450805,495
1765877495.450811,495
1765877495.450817,496
1765877495.4508228,496
1765877495.450829,495
1765877495.450835,495
1765877495.4508412,496
1765877495.450847,495
1765877495.450853,495
1765877495.45088,495
1765877495.4509,496
1765877495.450906,495
1765877495.450912,495
1765877495.450918,495
1765877495.450924,495
1765877495.4509299,495
1765877495.450936,495
1765877495.450942,495
1765877495.450948,495
1765877495.4509592,495
1765877495.450965,495
1765877495.450971,496
1765877495.450977,495
1765877495.4509828,495
1765877495.450989,495
1765877495.450995,496
1765877495.4510012,495
1765877495.451007,495
1765877495.451013,495
1765877495.451019,495
1765877495.451025,495
1765877495.451031,494
1765877495.451037,495
1765877495.4510431,495
1765877495.4510489,495
1765877495.451055,496
1765877495.451061,496
1765877495.451067,496
1765877495.451073,495
1765877495.451079,495
1765877495.451085,495
1765877495.451091,494
1765877495.451097,495
1765877495.451103,495
1765877495.4511092,496
1765877495.451116,495
1765877495.451124,495
1765877495.4511302,496
1765877495.451136,496
1765877495.4511418,495
1765877495.451148,495
1765877495.451154,495
1765877495.45116,495
1765877495.451166,495
1765877495.451172,495
1765877495.451178,495
1765877495.451184,495
1765877495.45119,495
1765877495.451196,495
1765877495.4512022,496
1765877495.4512079,495
1765877495.451214,495
1765877495.45122,495
1765877495.451226,494
1765877495.451232,494
1765877495.451238,495
1765877495.451244,494
1765877495.4512498,496
1765877495.451256,496
1765877495.451262,497
1765877495.4512682,497
1765877495.451274,495
1765877495.4512808,494
1765877495.4512892,495
1765877495.451295,495
1765877495.451301,495
1765877495.451307,495
1765877495.4513128,495
1765877495.451319,495
1765877495.451324,495
1765877495.45133,496
1765877495.451336,496
1765877495.451342,495
1765877495.451348,496
1765877495.451354,495
1765877495.45136,495
1765877495.451366,495
1765877495.4513721,495
1765877495.4513779,495
1765877495.451384,495
1765877495.45139,495
1765877495.451396,495
1765877495.451402,495
1765877495.451408,496
1765877495.451414,495
1765877495.4514198,495
1765877495.451425,495
1765877495.4514308,495
1765877495.4514408,496
1765877495.4514492,495
1765877495.451457,495
1765877495.451464,495
1765877495.4514701,495
1765877495.451475,495
1765877495.451481,495
1765877495.451487,496
1765877495.451493,495
1765877495.451499,496
1765877495.451506,495
1765877495.451573,495
1765877495.451604,496
1765877495.45161,495
1765877495.451617,495
1765877495.451623,495
1765877495.4516292,495
1765877495.451657,495
1765877495.451663,495
1765877495.4516962,496
1765877495.451703,495
1765877495.45171,495
1765877495.4517162,495
1765877495.451722,496
1765877495.4517279,495
1765877495.451734,496
1765877495.4517398,495
1765877495.4517992,496
1765877495.451862,496
1765877495.451888,496
1765877495.451958,496
1765877495.451972,496
1765877495.4520588,496
1765877495.4520671,497
1765877495.4520729,497
1765877495.452079,496
1765877495.452085,496
1765877495.452091,496
1765877495.452097,496
1765877495.452103,497
1765877495.4521081,497
1765877495.4521139,497
1765877495.45212,496
1765877495.452127,497
1765877495.4521332,497
1765877495.452139,497
1765877495.4521449,496
1765877495.452151,495
1765877495.452173,495
1765877495.452179,496
1765877495.4521852,495
1765877495.4521909,496
1765877495.452197,496
1765877495.452204,496
1765877495.452211,495
1765877495.452218,495
1765877495.452277,496
1765877495.452283,496
1765877495.452289,496
1765877495.4522948,496
1765877495.452302,495
1765877495.452308,496
1765877495.4523141,496
1765877495.45232,495
1765877495.4523258,495
1765877495.452332,496
1765877495.452338,496
1765877495.4523442,496
1765877495.45235,495
1765877495.452356,496
1765877495.4523609,495
1765877495.452367,496
1765877495.452373,496
1765877495.452379,495
1765877495.452385,496
1765877495.452391,496
1765877495.452397,496
1765877495.4524028,495
1765877495.452409,495
1765877495.452415,495
1765877495.4524229,495
1765877495.45243,495
1765877495.452437,495
1765877495.452443,495
1765877495.452448,495
1765877495.4524539,495
1765877495.452461,496
1765877495.452469,495
1765877495.4524748,495
1765877495.452481,495
1765877495.452487,496
1765877495.452493,495
1765877495.452499,496
1765877495.452505,496
1765877495.452511,496
1765877495.452516,496
1765877495.452522,495
1765877495.4525282,495
1765877495.452534,495
1765877495.45254,495
1765877495.4525461,495
1765877495.4525518,496
1765877495.452558,495
1765877495.452565,495
1765877495.4525719,495
1765877495.452578,495
1765877495.452584,495
1765877495.4525921,495
1765877495.452599,496
1765877495.452605,496
1765877495.4526122,496
1765877495.452618,495
1765877495.4526248,496
1765877495.452632,495
1765877495.45264,496
1765877495.452647,495
1765877495.4526541,495
1765877495.45266,496
1765877495.452666,495
1765877495.452672,495
1765877495.452678,495
1765877495.452684,495
1765877495.45269,496
1765877495.452696,495
1765877495.452702,495
1765877495.452708,495
1765877495.452714,496
1765877495.4527202,495
1765877495.4527261,496
1765877495.4527318,495
1765877495.452738,495
1765877495.452744,494
1765877495.452749,495
1765877495.4527621,495
1765877495.452769,495
1765877495.452775,495
1765877495.452781,495
1765877495.452787,495
1765877495.452794,495
1765877495.452801,495
1765877495.452807,495
1765877495.4528131,496
1765877495.4528189,496
1765877495.452825,495
1765877495.452831,495
1765877495.4528372,495
1765877495.452843,495
1765877495.452849,495
1765877495.452855,495
1765877495.4528608,495
1765877495.452867,495
1765877495.452872,496
1765877495.452878,496
1765877495.452884,495
1765877495.4528902,495
1765877495.452896,495
1765877495.4529018,495
1765877495.452908,495
1765877495.452914,495
1765877495.45292,495
1765877495.4529269,495
1765877495.4529338,496
1765877495.45294,496
1765877495.452946,496
1765877495.4529521,495
1765877495.4529579,495
1765877495.452964,496
1765877495.45297,495
1765877495.4529762,495
1765877495.452982,494
1765877495.452988,495
1765877495.452994,495
1765877495.4529998,496
1765877495.453006,495
1765877495.453012,495
1765877495.4530182,495
1765877495.453024,495
1765877495.4530299,495
1765877495.453035,495
1765877495.453042,495
1765877495.453047,495
1765877495.453053,495
1765877495.453059,495
1765877495.453065,495
1765877495.453071,496
1765877495.453077,495
1765877495.4530828,495
1765877495.45309,495
1765877495.453098,495
1765877495.453104,495
1765877495.453109,495
1765877495.453115,495
1765877495.453121,495
1765877495.453127,495
1765877495.453133,496
1765877495.4531388,495
1765877495.453145,495
1765877495.453151,496
1765877495.4531572,495
1765877495.453163,495
1765877495.4531689,495
1765877495.453175,495
1765877495.453181,495
1765877495.453187,496
1765877495.453193,496
1765877495.4531991,495
1765877495.453207,495
1765877495.453213,495
1765877495.4532192,495
1765877495.453225,496
1765877495.453231,496
1765877495.453237,495
1765877495.453244,495
1765877495.4532511,495
1765877495.453259,495
1765877495.4532669,495
1765877495.453273,495
1765877495.453279,495
1765877495.4532852,495
1765877495.453291,494
1765877495.453297,495
1765877495.453303,496
1765877495.4533088,496
1765877495.453315,496
1765877495.45332,495
1765877495.453326,496
1765877495.453332,496
1765877495.4533381,495
1765877495.453344,495
1765877495.4535182,495
1765877495.4535701,496
1765877495.4535758,495
1765877495.453583,495
1765877495.453589,496
1765877495.453595,495
1765877495.4536011,496
1765877495.4536068,495
1765877495.453613,495
1765877495.45362,496
1765877495.4536262,496
1765877495.453632,495
1765877495.4536378,495
1765877495.453644,495
1765877495.45365,495
1765877495.453656,495
1765877495.453662,495
1765877495.453668,495
1765877495.453674,495
1765877495.45368,495
1765877495.453686,496
1765877495.453692,495
1765877495.4536982,496
1765877495.4537039,495
1765877495.45371,495
1765877495.453716,495
1765877495.453722,495
1765877495.453728,495
1765877495.453734,495
1765877495.4537401,495
1765877495.4537458,496
1765877495.453752,495
1765877495.453759,495
1765877495.4537642,496
1765877495.45377,495
1765877495.453776,495
1765877495.4537961,495
1765877495.4538329,495
1765877495.4538398,496
1765877495.453846,495
1765877495.453852,495
1765877495.4538581,496
1765877495.4538639,496
1765877495.453879,496
1765877495.453888,496
1765877495.453907,495
1765877495.4539149,495
1765877495.453921,495
1765877495.4539268,495
1765877495.453933,495
1765877495.453939,495
1765877495.4539452,495
1765877495.453952,495
1765877495.4539578,496
1765877495.453964,495
1765877495.45397,496
1765877495.4539762,495
1765877495.4539819,495
1765877495.453988,495
1765877495.453994,495
1765877495.4540002,495
1765877495.454006,495
1765877495.454012,495
1765877495.454018,495
1765877495.4540238,495
1765877495.45403,496
1765877495.454061,495
1765877495.454068,495
1765877495.4540741,495
1765877495.45408,495
1765877495.4540858,495
1765877495.454092,495
1765877495.454098,495
1765877495.454104,495
1765877495.45411,495
1765877495.454116,495
1765877495.454123,495
1765877495.454129,495
1765877495.454135,496
1765877495.454141,495
1765877495.454147,495
1765877495.454153,496
1765877495.4546628,496
1765877495.4546702,495
1765877495.454676,495
1765877495.454682,494
1765877495.454688,495
1765877495.4546938,495
1765877495.4547,495
1765877495.454706,495
1765877495.4547122,495
1765877495.4547179,495
1765877495.454724,495
1765877495.45473,496
1765877495.4547358,495
1765877495.454741,495
1765877495.454747,495
1765877495.454752,496
1765877495.454758,495
1765877495.454763,495
1765877495.4547682,495
1765877495.454773,495
1765877495.454779,495
1765877495.454784,495
1765877495.4547899,495
1765877495.454797,495
1765877495.454803,495
1765877495.454808,495
1765877495.454814,495
1765877495.454821,495
1765877495.454827,495
1765877495.454835,494
1765877495.4548411,495
1765877495.4548469,495
1765877495.454853,495
1765877495.454859,495
1765877495.454865,496
1765877495.4548721,495
1765877495.454879,495
1765877495.454887,495
1765877495.454894,495
1765877495.454901,495
1765877495.454907,495
1765877495.4549131,494
1765877495.4549189,495
1765877495.454925,495
1765877495.454931,495
1765877495.454937,495
1765877495.454943,495
1765877495.4549491,494
1765877495.454956,495
1765877495.454963,494
1765877495.4549708,494
1765877495.454978,495
1765877495.454985,494
1765877495.4549918,495
1765877495.454998,495
1765877495.455004,495
1765877495.45501,495
1765877495.455016,495
1765877495.455022,494
1765877495.455028,495
1765877495.455034,495
1765877495.455039,495
1765877495.455046,495
1765877495.455053,495
1765877495.45506,494
1765877495.4550662,494
1765877495.455072,494
1765877495.455078,495
1765877495.455084,495
1765877495.4550898,495
1765877495.455096,495
1765877495.455102,495
1765877495.4551082,496
1765877495.455114,496
1765877495.4551198,496
1765877495.455126,496
1765877495.455132,496
1765877495.455138,496
1765877495.455144,496
1765877495.4551501,496
1765877495.4551558,496
1765877495.455162,496
1765877495.455168,496
1765877495.455174,496
1765877495.4551811,496
1765877495.4551868,495
1765877495.455193,495
1765877495.455199,495
1765877495.4552052,496
1765877495.455211,494
1765877495.455217,496
1765877495.455223,496
1765877495.4552279,495
1765877495.455234,495
1765877495.45524,495
1765877495.455789,495
1765877495.456825,495
1765877495.4578218,495
1765877495.458816,495
1765877495.45981,495
1765877495.460819,495
1765877495.461809,495
1765877495.4628239,495
1765877495.463804,495
1765877495.464812,495
1765877495.465811,495
1765877495.466815,495
1765877495.467814,495
1765877495.468846,495
1765877495.4698508,495
1765877495.470829,495
1765877495.471825,495
1765877495.472826,495
1765877495.473855,495
1765877495.474915,494
1765877495.475831,495
1765877495.476852,495
1765877495.477835,495
1765877495.478847,495
1765877495.479851,495
1765877495.4808562,495
1765877495.481868,494
1765877495.482931,495
1765877495.483878,495
1765877495.4849339,495
1765877495.4858801,495
1765877495.486866,495
1765877495.487874,495
1765877495.488884,495
1765877495.489877,495
1765877495.4909172,495
1765877495.491891,495
1765877495.492905,495
1765877495.493888,495
1765877495.4948962,495
1765877495.495898,495
1765877495.49691,494
1765877495.497935,494
1765877495.498903,494
1765877495.499926,495
1765877495.500915,495
1765877495.501903,495
1765877495.502914,495
1765877495.503913,495
1765877495.50491,494
1765877495.50594,495
1765877495.506921,494
1765877495.507921,495
1765877495.5089312,495
1765877495.509928,495
1765877495.5109482,495
1765877495.5119622,495
1765877495.5129669,495
1765877495.5139651,494
1765877495.514962,495
1765877495.515965,495
1765877495.516982,495
1765877495.517955,494
1765877495.518979,495
1765877495.519958,495
1765877495.520968,495
1765877495.5219688,494
1765877495.522974,495
1765877495.523993,495
1765877495.524996,494
1765877495.525991,495
1765877495.527067,495
1765877495.528032,495
1765877495.529014,495
1765877495.530012,495
1765877495.530999,495
1765877495.531997,495
1765877495.533034,495
1765877495.5340312,495
1765877495.535003,495
1765877495.5360231,495
1765877495.5370948,494
1765877495.538058,495
1765877495.53905,494
1765877495.5400379,495
1765877495.541039,495
1765877495.5420349,495
1765877495.54305,495
1765877495.544048,495
1765877495.545048,495
1765877495.546051,495
1765877495.547057,495
1765877495.548054,494
1765877495.549067,494
1765877495.550092,495
1765877495.5510788,495
1765877495.5520818,495
1765877495.553084,495
1765877495.5541172,495
1765877495.555084,495
1765877495.556075,495
1765877495.557111,495
1765877495.558133,495
1765877495.5591428,495
1765877495.5601401,495
1765877495.5611498,495
1765877495.562142,495
1765877495.563173,494
1765877495.5641248,494
1765877495.56515,494
1765877495.566153,495
1765877495.567156,495
1765877495.568151,495
1765877495.5691252,496
1765877495.5701492,495
1765877495.571163,495
1765877495.572147,495
1765877495.573153,495
1765877495.574167,495
1765877495.5751522,495
1765877495.576158,495
1765877495.577159,495
1765877495.578294,494
1765877495.579211,495
1765877495.5801878,495
1765877495.5811892,495
1765877495.5822148,495
1765877495.583189,496
1765877495.584188,495
1765877495.5851882,495
1765877495.5861819,494
1765877495.58721,494
1765877495.588207,493
1765877495.58919,493
1765877495.5903869,494
1765877495.5912051,494
1765877495.592214,495
1765877495.5932522,495
1765877495.594235,495
1765877495.595222,495
1765877495.596266,495
1765877495.59725,495
1765877495.598253,496
1765877495.599252,495
1765877495.600233,495
1765877495.6011891,495
1765877495.60219,495
1765877495.603209,495
1765877495.6042151,495
1765877495.605213,495
1765877495.606208,495
1765877495.607231,495
1765877495.6082098,494
1765877495.60922,495
1765877495.610228,495
1765877495.6112268,495
1765877495.612247,494
1765877495.613332,494
1765877495.614329,495
1765877495.615335,495
1765877495.616339,494
1765877495.6173272,494
1765877495.618339,494
1765877495.619335,495
1765877495.620325,494
1765877495.621326,494
1765877495.622327,495
1765877495.623324,495
1765877495.624328,495
1765877495.625331,494
1765877495.626322,495
1765877495.627327,495
1765877495.62833,494
1765877495.629354,495
1765877495.6303942,495
1765877495.631379,495
1765877495.632365,495
1765877495.6333928,495
1765877495.634337,495
1765877495.635374,494
1765877495.636341,495
1765877495.637357,494
1765877495.6383722,495
1765877495.639339,495
1765877495.640343,495
1765877495.641361,495
1765877495.642358,495
1765877495.643344,494
1765877495.644345,494
1765877495.645335,495
1765877495.646344,494
1765877495.6473432,495
1765877495.64834,495
1765877495.6493492,495
1765877495.650342,495
1765877495.651356,494
1765877495.652333,495
1765877495.653344,495
1765877495.654363,495
1765877495.655357,494
1765877495.656358,495
1765877495.657363,495
1765877495.658386,495
1765877495.6593761,495
1765877495.6603782,495
1765877495.661372,495
1765877495.662389,495
1765877495.663397,495
1765877495.664387,495
1765877495.665399,495
1765877495.666433,495
1765877495.667423,495
1765877495.668394,495
1765877495.6694138,495
1765877495.670423,495
1765877495.671457,495
1765877495.67242,495
1765877495.6734211,494
1765877495.6744168,495
1765877495.675416,495
1765877495.676397,495
1765877495.677495,495
1765877495.678509,495
1765877495.6794398,495
1765877495.680424,495
1765877495.68144,494
1765877495.682457,495
1765877495.683435,495
1765877495.6844459,494
1765877495.685514,495
1765877495.686487,495
1765877495.687466,494
1765877495.68845,495
1765877495.6894631,494
1765877495.690454,495
1765877495.691466,495
1765877495.6925418,495
1765877495.6934688,495
1765877495.694504,495
1765877495.695505,495
1765877495.6965408,495
1765877495.6974819,495
1765877495.698516,495
1765877495.699479,495
1765877495.700525,495
1765877495.701545,495
1765877495.702544,495
1765877495.703557,496
1765877495.704546,495
1765877495.705556,495
1765877495.70651,495
1765877495.707499,495
1765877495.708512,495
1765877495.709501,495
1765877495.710495,494
1765877495.71153,494
1765877495.712517,495
1765877495.713522,495
1765877495.7146041,495
1765877495.715512,495
1765877495.716577,495
1765877495.7175639,495
1765877495.718596,495
1765877495.719535,495
1765877495.7205892,495
1765877495.7215822,495
1765877495.722579,494
1765877495.723545,494
1765877495.724563,494
1765877495.7255838,495
1765877495.7265751,495
1765877495.727583,495
1765877495.728632,495
1765877495.7295601,495
1765877495.7305799,495
1765877495.7316191,495
1765877495.732587,496
1765877495.733633,495
1765877495.734659,496
1765877495.7356212,495
1765877495.736662,494
1765877495.737637,495
1765877495.738642,495
1765877495.739647,495
1765877495.7406101,495
1765877495.741663,495
1765877495.74267,495
1765877495.7436612,495
1765877495.744652,494
1765877495.745694,495
1765877495.746637,495
1765877495.747672,495
1765877495.7486248,494
1765877495.749662,495
1765877495.750666,495
1765877495.751661,495
1765877495.7526689,495
1765877495.7536378,495
1765877495.754642,495
1765877495.7556841,495
1765877495.756657,495
1765877495.757673,495
1765877495.758691,495
1765877495.7597098,495
1765877495.760706,495
1765877495.761697,496
1765877495.762711,495
1765877495.763726,496
1765877495.764728,495
1765877495.765687,495
1765877495.766724,495
1765877495.767721,495
1765877495.768735,495
1765877495.769699,495
1765877495.770693,495
1765877495.771729,495
1765877495.772738,495
1765877495.7736971,495
1765877495.77473,495
1765877495.775764,495
1765877495.7767382,495
1765877495.77772,495
1765877495.778751,495
1765877495.779752,495
1765877495.7807648,496
1765877495.781735,495
1765877495.782739,495
1765877495.783774,494
1765877495.7847838,495
1765877495.785789,495
1765877495.786767,495
1765877495.787777,495
1765877495.788773,495
1765877495.7897742,496
1765877495.790762,496
1765877495.791764,497
1765877495.792775,497
1765877495.793789,496
1765877495.794761,496
1765877495.7957592,496
1765877495.7967591,496
1765877495.797802,497
1765877495.7987578,497
1765877495.799798,497
1765877495.8007948,496
1765877495.8018181,496
1765877495.802785,496
1765877495.803817,496
1765877495.804808,496
1765877495.805834,495
1765877495.8068202,496
1765877495.8078039,496
1765877495.808817,496
1765877495.809823,496
1765877495.8108401,496
1765877495.8118248,495
1765877495.812841,496
1765877495.813827,495
1765877495.814838,495
1765877495.8158169,496
1765877495.81683,497
1765877495.817821,497
1765877495.818861,497
1765877495.819817,496
1765877495.8208761,497
1765877495.821855,496
1765877495.8228679,496
1765877495.823838,495
1765877495.824875,495
1765877495.825881,494
1765877495.826863,494
1765877495.827863,494
1765877495.8289201,495
1765877495.829876,495
1765877495.8309178,495
1765877495.831879,494
1765877495.832891,495
1765877495.8339221,495
1765877495.834902,495
1765877495.835896,495
1765877495.836873,495
1765877495.837881,495
1765877495.838884,495
1765877495.839916,495
1765877495.840954,495
1765877495.841918,494
1765877495.842897,493
1765877495.843894,494
1765877495.8449259,494
1765877495.8459132,494
1765877495.846949,495
1765877495.8479302,495
1765877495.848908,494
1765877495.849911,494
1765877495.850928,495
1765877495.851912,495
1765877495.8529012,495
1765877495.853905,495
1765877495.854923,495
1765877495.855961,495
1765877495.856936,495
1765877495.8579478,495
1765877495.8589592,496
1765877495.859958,495
1765877495.860967,495
1765877495.8619819,495
1765877495.862983,495
1765877495.863991,494
1765877495.8649862,495
1765877495.865983,495
1765877495.8669891,495
1765877495.8679922,496
1765877495.868991,495
1765877495.870002,496
1765877495.871,496
1765877495.871993,495
1765877495.8730109,494
1765877495.873992,494
1765877495.874995,495
1765877495.8760011,495
1765877495.877022,495
1765877495.878075,495
1765877495.879018,495
1765877495.879992,494
1765877495.880995,494
1765877495.882005,496
1765877495.883001,495
1765877495.8840058,495
1765877495.885013,496
1765877495.8860302,497
1765877495.887043,497
1765877495.888031,497
1765877495.889055,495
1765877495.890037,495
1765877495.891051,497
1765877495.892064,499
1765877495.893055,498
1765877495.8940501,497
1765877495.895071,496
1765877495.896072,497
1765877495.8970618,496
1765877495.898057,495
1765877495.8990662,495
1765877495.9000561,495
1765877495.9010491,494
1765877495.902059,494
1765877495.903081,495
1765877495.904053,495
1765877495.905071,496
1765877495.906073,497
1765877495.907074,496
1765877495.908072,495
1765877495.9090931,495
1765877495.910111,497
1765877495.9111192,498
1765877495.9121192,499
1765877495.9131231,501
1765877495.914117,501
1765877495.9151108,502
1765877495.916129,502
1765877495.9171588,501
1765877495.918144,498
1765877495.919147,494
1765877495.92016,494
1765877495.921154,492
1765877495.9221509,491
1765877495.923202,492
1765877495.924143,493
1765877495.925129,494
1765877495.92617,493
1765877495.927161,494
1765877495.928203,495
1765877495.92918,496
1765877495.930167,498
1765877495.931178,500
1765877495.932209,500
1765877495.933185,496
1765877495.934177,494
1765877495.935162,494
1765877495.936173,493
1765877495.937193,495
1765877495.938175,494
1765877495.9391701,497
1765877495.940177,500
1765877495.9411762,503
1765877495.942192,503
1765877495.943522,505
1765877495.9442718,503
1765877495.9452338,500
1765877495.9462242,496
1765877495.947247,494
1765877495.948215,494
1765877495.951518,496
1765877495.9515579,496
1765877495.9515789,494
1765877495.9522681,493
1765877495.953296,492
1765877495.954263,493
1765877495.955348,495
1765877495.9562309,499
1765877495.9572322,501
1765877495.958223,505
1765877495.959239,510
1765877495.960224,512
1765877495.961235,515
1765877495.9622478,510
1765877495.9632409,504
1765877495.964309,495
1765877495.965312,491
1765877495.966264,489
1765877495.967263,490
1765877495.96826,489
1765877495.9692302,488
1765877495.970258,489
1765877495.971374,491
1765877495.9723651,495
1765877495.973244,497
1765877495.974359,497
1765877495.975339,498
1765877495.9763331,497
1765877495.9773388,495
1765877495.978348,498
1765877495.97933,496
1765877495.980339,495
1765877495.981329,494
1765877495.982359,495
1765877495.983354,496
1765877495.984343,496
1765877495.9853508,495
1765877495.98634,496
1765877495.9873438,500
1765877495.988339,503
1765877495.989335,503
1765877495.9903512,501
1765877495.991353,498
1765877495.992367,502
1765877495.993359,505
1765877495.9946282,502
1765877495.995498,498
1765877495.996376,500
1765877495.997364,497
1765877495.9983318,494
1765877495.9993448,491
1765877496.000336,492
1765877496.001365,492
1765877496.002379,492
1765877496.0033731,491
1765877496.00437,491
1765877496.005367,492
1765877496.006412,494
1765877496.007421,495
1765877496.008387,495
1765877496.009402,495
1765877496.010368,495
1765877496.011384,494
1765877496.0123541,494
1765877496.013376,497
1765877496.014378,498
1765877496.0154,499
1765877496.01641,500
1765877496.0174022,499
1765877496.018393,495
1765877496.019364,491
1765877496.020373,494
1765877496.0213718,494
1765877496.022374,495
1765877496.0233998,495
1765877496.024406,494
1765877496.025392,495
1765877496.026397,496
1765877496.027406,496
1765877496.028404,494
1765877496.029406,494
1765877496.030404,495
1765877496.031414,497
1765877496.032427,498
1765877496.0334232,501
1765877496.034413,501
1765877496.035428,502
1765877496.036452,495
1765877496.0374532,492
1765877496.038452,494
1765877496.039447,493
1765877496.0404391,492
1765877496.041436,493
1765877496.0424268,494
1765877496.04345,495
1765877496.044449,495
1765877496.045457,494
1765877496.046438,494
1765877496.0474591,495
1765877496.048488,495
1765877496.049495,497
1765877496.050459,499
1765877496.051469,497
1765877496.052468,496
1765877496.05347,496
1765877496.054476,495
1765877496.05549,496
1765877496.056488,499
1765877496.057492,499
1765877496.058493,498
1765877496.059498,497
1765877496.060513,496
1765877496.061575,496
1765877496.062565,498
1765877496.0635111,498
1765877496.064515,498
1765877496.065536,496
1765877496.066526,492
1765877496.0675578,497
1765877496.0685241,500
1765877496.069518,501
1765877496.070527,499
1765877496.0715399,492
1765877496.0725188,489
1765877496.073535,491
1765877496.0745332,494
1765877496.0755541,494
1765877496.076546,495
1765877496.077549,495
1765877496.0785658,496
1765877496.079584,496
1765877496.080595,495
1765877496.081593,497
1765877496.082609,498
1765877496.083624,497
1765877496.0846112,495
1765877496.085588,495
1765877496.086654,494
1765877496.0876448,496
1765877496.088663,497
1765877496.0896242,497
1765877496.090643,495
1765877496.091757,491
1765877496.0926158,494
1765877496.093652,495
1765877496.094811,494
1765877496.09565,494
1765877496.0966249,494
1765877496.0976,494
1765877496.09862,495
1765877496.099618,495
1765877496.100611,494
1765877496.101602,494
1765877496.10262,494
1765877496.1036339,495
1765877496.104616,494
1765877496.105612,495
1765877496.106635,496
1765877496.107637,495
1765877496.108632,494
1765877496.109632,495
1765877496.110636,496
1765877496.11167,496
1765877496.112633,496
1765877496.1136682,496
1765877496.1146371,496
1765877496.115649,496
1765877496.11664,494
1765877496.117663,493
1765877496.118664,494
1765877496.119682,494
1765877496.120694,495
1765877496.121692,496
1765877496.122664,498
1765877496.123668,499
1765877496.1246579,499
1765877496.125686,497
1765877496.126687,498
1765877496.127674,494
1765877496.128681,491
1765877496.129689,495
1765877496.130715,494
1765877496.131685,493
1765877496.1327,494
1765877496.133694,494
1765877496.134712,494
1765877496.135703,494
1765877496.136708,495
1765877496.1377048,496
1765877496.1387148,496
1765877496.1397178,497
1765877496.1407812,496
1765877496.141726,495
1765877496.14273,496
1765877496.143728,496
1765877496.14475,496
1765877496.1457229,497
1765877496.1467369,497
1765877496.147737,497
1765877496.148741,495
1765877496.1497548,493
1765877496.1507578,494
1765877496.151763,496
1765877496.152763,498
1765877496.153754,497
1765877496.154759,496
1765877496.155751,494
1765877496.156758,493
1765877496.1577878,493
1765877496.158798,495
1765877496.159775,496
1765877496.160786,495
1765877496.161817,496
1765877496.162838,496
1765877496.163829,495
1765877496.164798,493
1765877496.1659,496
1765877496.166858,498
1765877496.1678941,499
1765877496.168865,498
1765877496.169896,497
1765877496.170944,492
1765877496.17187,493
1765877496.173003,496
1765877496.173853,497
1765877496.174874,496
1765877496.175852,497
1765877496.1768582,495
1765877496.177862,495
1765877496.178863,494
1765877496.1798432,493
1765877496.1808362,494
1765877496.181851,494
1765877496.1828501,495
1765877496.18384,494
1765877496.1848361,495
1765877496.185838,496
1765877496.186848,497
1765877496.187864,498
1765877496.188868,496
1765877496.189854,494
1765877496.190867,496
1765877496.1918578,495
1765877496.1928499,493
1765877496.1938848,491
1765877496.19488,494
1765877496.1958668,494
1765877496.196866,494
1765877496.197886,494
1765877496.198899,494
1765877496.199894,494
1765877496.2009118,494
1765877496.201926,494
1765877496.2031412,494
1765877496.2039921,493
1765877496.2049432,494
1765877496.2059252,494
1765877496.206913,495
1765877496.207912,495
1765877496.2089212,495
1765877496.209909,495
1765877496.210915,496
1765877496.211915,495
1765877496.2129269,495
1765877496.2139258,495
1765877496.2149298,495
1765877496.2159412,497
1765877496.216931,499
1765877496.217938,499
1765877496.2189388,498
1765877496.219954,496
1765877496.2209659,493
1765877496.221954,490
1765877496.222938,493
1765877496.2239518,493
1765877496.224962,493
1765877496.2259572,493
1765877496.2269702,494
1765877496.227967,494
1765877496.228968,494
1765877496.229992,495
1765877496.2309911,494
1765877496.2319858,494
1765877496.232987,493
1765877496.233987,493
1765877496.234984,494
1765877496.2359848,494
1765877496.2369869,495
1765877496.237998,494
1765877496.239014,495
1765877496.239989,494
1765877496.241032,495
1765877496.242029,495
1765877496.24302,495
1765877496.2440162,496
1765877496.2450602,495
1765877496.246031,494
1765877496.247063,494
1765877496.248076,493
1765877496.249063,494
1765877496.2500322,495
1765877496.251044,496
1765877496.2520561,496
1765877496.253047,497
1765877496.254047,496
1765877496.255053,495
1765877496.2560499,494
1765877496.257055,494
1765877496.258081,494
1765877496.259066,495
1765877496.260063,494
1765877496.2612789,494
1765877496.262092,494
1765877496.263113,495
1765877496.264065,495
1765877496.2650728,494
1765877496.266112,494
1765877496.267094,494
1765877496.268086,495
1765877496.269084,495
1765877496.270095,494
1765877496.2710998,493
1765877496.2721221,495
1765877496.273108,495
1765877496.2741172,494
1765877496.275116,497
1765877496.276114,497
1765877496.277144,499
1765877496.278153,501
1765877496.27915,500
1765877496.2801542,495
1765877496.281169,496
1765877496.282188,492
1765877496.283134,492
1765877496.2841358,494
1765877496.285142,496
1765877496.286154,495
1765877496.287183,494
1765877496.288161,495
1765877496.289171,492
1765877496.290159,491
1765877496.291177,491
1765877496.292171,493
1765877496.293155,493
1765877496.294185,494
1765877496.2951832,493
1765877496.29617,494
1765877496.297169,495
1765877496.298232,495
1765877496.2991831,494
1765877496.300181,494
1765877496.3011851,495
1765877496.302221,495
1765877496.303214,495
1765877496.304197,494
1765877496.305245,493
1765877496.306241,494
1765877496.30721,494
1765877496.308207,494
1765877496.309213,495
1765877496.310217,494
1765877496.31122,495
1765877496.312236,495
1765877496.3132439,495
1765877496.314256,494
1765877496.31526,495
1765877496.31625,494
1765877496.31725,495
1765877496.3182561,494
1765877496.319248,494
1765877496.320234,494
1765877496.3212428,495
1765877496.3222451,494
1765877496.323243,494
1765877496.32426,495
1765877496.325265,495
1765877496.326287,495
1765877496.327281,495
1765877496.3283992,495
1765877496.3294232,495
1765877496.3303978,494
1765877496.3314009,495
1765877496.332387,494
1765877496.33338,495
1765877496.334361,495
1765877496.335375,495
1765877496.3363578,495
1765877496.337377,494
1765877496.338363,494
1765877496.339384,495
1765877496.340435,499
1765877496.341411,501
1765877496.342396,507
1765877496.3433778,508
1765877496.344385,503
1765877496.345391,492
1765877496.346368,494
1765877496.347369,495
1765877496.348363,490
1765877496.34937,492
1765877496.350357,492
1765877496.351357,491
1765877496.352364,494
1765877496.353386,496
1765877496.354366,496
1765877496.355353,494
1765877496.356354,490
1765877496.3573601,493
1765877496.3583639,494
1765877496.359364,494
1765877496.3603609,496
1765877496.361366,495
1765877496.362349,494
1765877496.363345,494
1765877496.364352,495
1765877496.365355,493
1765877496.366358,493
1765877496.3673549,494
1765877496.36836,494
1765877496.369401,493
1765877496.370419,494
1765877496.371392,494
1765877496.3723662,494
1765877496.373371,495
1765877496.3744068,495
1765877496.3753788,494
1765877496.376392,494
1765877496.3773792,495
1765877496.3784,494
1765877496.379385,494
1765877496.3803892,494
1765877496.381387,494
1765877496.382422,495
1765877496.383389,495
1765877496.384398,495
1765877496.385398,495
1765877496.386413,494
1765877496.387424,495
1765877496.388416,495
1765877496.389411,495
1765877496.390419,495
1765877496.3914251,495
1765877496.39243,495
1765877496.393415,495
1765877496.394429,494
1765877496.395436,494
1765877496.396441,494
1765877496.397439,494
1765877496.398438,494
1765877496.3994591,494
1765877496.4004748,494
1765877496.4014652,494
1765877496.4024692,494
1765877496.403466,494
1765877496.4044669,494
1765877496.405458,494
1765877496.406469,494
1765877496.407469,494
1765877496.408472,494
1765877496.409462,493
1765877496.410495,493
1765877496.4115179,494
1765877496.412508,494
1765877496.4134998,495
1765877496.4144971,496
1765877496.415512,495
1765877496.416478,495
1765877496.417484,495
1765877496.418483,496
1765877496.419489,498
1765877496.420513,500
1765877496.421505,499
1765877496.422513,501
1765877496.4235158,505
1765877496.4245079,501
1765877496.425514,498
1765877496.426501,497
1765877496.427516,490
1765877496.428535,488
1765877496.4295318,490
1765877496.430528,493
1765877496.431539,494
1765877496.432539,492
1765877496.433543,491
1765877496.4345448,491
1765877496.435549,493
