timestamp,emg_value
1765877526.376203,495
1765877526.376224,495
1765877526.376241,495
1765877526.376257,495
1765877526.376273,495
1765877526.37629,495
1765877526.3763058,495
1765877526.376322,495
1765877526.3763368,495
1765877526.376353,495
1765877526.376369,495
1765877526.376384,495
1765877526.3763998,495
1765877526.376415,495
1765877526.376431,494
1765877526.376446,494
1765877526.376462,495
1765877526.376478,497
1765877526.3764942,501
1765877526.376509,503
1765877526.3765252,504
1765877526.376541,507
1765877526.376557,503
1765877526.3765728,493
1765877526.376588,492
1765877526.37661,494
1765877526.3766289,494
1765877526.376645,492
1765877526.3766599,495
1765877526.376676,496
1765877526.3766909,496
1765877526.376707,495
1765877526.3767219,496
1765877526.376738,498
1765877526.3767538,498
1765877526.37677,492
1765877526.3767848,492
1765877526.376801,493
1765877526.376817,493
1765877526.376832,494
1765877526.376848,494
1765877526.376865,494
1765877526.3768802,495
1765877526.376896,495
1765877526.3769119,495
1765877526.376927,494
1765877526.376943,495
1765877526.376958,494
1765877526.3769732,494
1765877526.376989,494
1765877526.3770041,495
1765877526.377028,495
1765877526.377045,494
1765877526.3770618,495
1765877526.377078,495
1765877526.3770938,495
1765877526.377109,495
1765877526.377125,495
1765877526.37714,495
1765877526.377156,495
1765877526.377171,495
1765877526.377187,495
1765877526.377202,495
1765877526.377218,494
1765877526.3772328,495
1765877526.37727,495
1765877526.377286,497
1765877526.377301,497
1765877526.377316,495
1765877526.377332,495
1765877526.377347,494
1765877526.377363,494
1765877526.3773792,494
1765877526.377402,494
1765877526.377418,495
1765877526.377434,495
1765877526.37745,496
1765877526.3774872,496
1765877526.377504,496
1765877526.3775191,496
1765877526.3775349,495
1765877526.3775501,494
1765877526.3775659,494
1765877526.377582,495
1765877526.3775969,494
1765877526.377613,494
1765877526.377629,495
1765877526.377645,496
1765877526.377661,497
1765877526.377677,499
1765877526.377692,497
1765877526.3777092,495
1765877526.377724,495
1765877526.377744,494
1765877526.37776,494
1765877526.3777752,495
1765877526.377791,495
1765877526.3778062,495
1765877526.377821,494
1765877526.377837,493
1765877526.377853,494
1765877526.3778691,496
1765877526.3778849,498
1765877526.3779001,499
1765877526.37792,498
1765877526.3779352,497
1765877526.37795,495
1765877526.3779662,497
1765877526.377981,496
1765877526.378011,497
1765877526.378027,497
1765877526.3780422,498
1765877526.378058,498
1765877526.378073,492
1765877526.378089,492
1765877526.378104,493
1765877526.37812,493
1765877526.378135,493
1765877526.378151,493
1765877526.378166,494
1765877526.3781812,494
1765877526.378197,494
1765877526.3782132,495
1765877526.378228,497
1765877526.3782442,497
1765877526.378259,497
1765877526.3782752,498
1765877526.37829,495
1765877526.3783062,492
1765877526.378335,494
1765877526.378356,496
1765877526.3783722,497
1765877526.378388,498
1765877526.3784032,498
1765877526.378419,497
1765877526.3784351,492
1765877526.37845,493
1765877526.3784661,494
1765877526.3784819,495
1765877526.378525,495
1765877526.378558,496
1765877526.378575,496
1765877526.378592,496
1765877526.3786082,496
1765877526.378625,496
1765877526.37864,497
1765877526.378656,496
1765877526.3786721,497
1765877526.378688,496
1765877526.3787808,496
1765877526.3788211,496
1765877526.378839,496
1765877526.378855,496
1765877526.378871,497
1765877526.378888,498
1765877526.378904,499
1765877526.3789241,502
1765877526.3789399,498
1765877526.378956,496
1765877526.3789718,497
1765877526.378988,494
1765877526.3790028,491
1765877526.379018,492
1765877526.379034,494
1765877526.379049,493
1765877526.379067,494
1765877526.379083,494
1765877526.3790982,494
1765877526.379113,493
1765877526.3791292,494
1765877526.379144,496
1765877526.3791602,496
1765877526.379175,497
1765877526.379216,496
1765877526.379231,495
1765877526.3792472,495
1765877526.379262,494
1765877526.379277,495
1765877526.379293,496
1765877526.379308,495
1765877526.379324,497
1765877526.379339,497
1765877526.379358,496
1765877526.3793752,497
1765877526.37939,497
1765877526.379405,494
1765877526.379421,492
1765877526.379436,495
1765877526.379452,497
1765877526.379467,498
1765877526.379483,497
1765877526.379498,496
1765877526.3795142,494
1765877526.379529,495
1765877526.379544,496
1765877526.37956,494
1765877526.379575,493
1765877526.379591,494
1765877526.379606,496
1765877526.379622,495
1765877526.379637,495
1765877526.3796532,494
1765877526.379669,495
1765877526.3796852,496
1765877526.379702,496
1765877526.3797178,496
1765877526.379734,495
1765877526.379751,495
1765877526.37977,494
1765877526.379788,495
1765877526.379804,498
1765877526.379821,498
1765877526.379837,498
1765877526.379854,496
1765877526.379869,496
1765877526.379885,496
1765877526.379901,495
1765877526.379916,495
1765877526.379932,496
1765877526.3799481,496
1765877526.379963,493
1765877526.379978,493
1765877526.3799942,494
1765877526.38001,496
1765877526.3800251,495
1765877526.380041,497
1765877526.3800561,498
1765877526.380071,498
1765877526.3800871,496
1765877526.380102,494
1765877526.3801181,494
1765877526.3801332,494
1765877526.380149,494
1765877526.380171,494
1765877526.3801868,493
1765877526.380208,492
1765877526.380223,493
1765877526.380239,494
1765877526.380254,496
1765877526.38027,496
1765877526.380286,496
1765877526.380301,495
1765877526.380317,494
1765877526.380332,494
1765877526.380348,495
1765877526.380364,495
1765877526.38038,494
1765877526.380395,494
1765877526.380411,493
1765877526.380426,494
1765877526.3804421,495
1765877526.380457,495
1765877526.3804731,495
1765877526.380488,494
1765877526.3805041,495
1765877526.380519,495
1765877526.380534,495
1765877526.38055,495
1765877526.380565,496
1765877526.3805811,497
1765877526.380596,499
1765877526.380616,501
1765877526.380631,506
1765877526.380647,505
1765877526.380662,501
1765877526.380678,498
1765877526.380693,491
1765877526.3807092,491
1765877526.380724,494
1765877526.3807402,492
1765877526.380755,489
1765877526.3807712,492
1765877526.380786,493
1765877526.380801,494
1765877526.380817,493
1765877526.380832,494
1765877526.3808472,494
1765877526.380863,494
1765877526.3808792,494
1765877526.380894,495
1765877526.380909,496
1765877526.380925,496
1765877526.3809412,496
1765877526.380957,495
1765877526.3809721,495
1765877526.380987,495
1765877526.381003,494
1765877526.381023,495
1765877526.3810391,495
1765877526.3810549,495
1765877526.3810701,495
1765877526.3810859,495
1765877526.381102,495
1765877526.3811169,495
1765877526.3811321,495
1765877526.3811479,495
1765877526.381164,495
1765877526.3811789,494
1765877526.381195,495
1765877526.38121,494
1765877526.381226,493
1765877526.381241,493
1765877526.381257,495
1765877526.381273,497
1765877526.381288,498
1765877526.381304,500
1765877526.38132,500
1765877526.381335,498
1765877526.381351,496
1765877526.3813791,496
1765877526.381394,495
1765877526.3814101,495
1765877526.3814259,495
1765877526.3814452,494
1765877526.381461,493
1765877526.381477,493
1765877526.381492,495
1765877526.381508,496
1765877526.381523,495
1765877526.381539,495
1765877526.381554,496
1765877526.38157,496
1765877526.3815858,495
1765877526.381602,495
1765877526.381618,494
1765877526.381634,495
1765877526.381651,495
1765877526.3816671,496
1765877526.3816829,496
1765877526.381699,494
1765877526.381715,495
1765877526.381731,495
1765877526.381748,495
1765877526.381763,496
1765877526.381779,496
1765877526.381794,495
1765877526.381809,494
1765877526.381825,495
1765877526.38184,496
1765877526.381859,495
1765877526.381876,494
1765877526.3818922,494
1765877526.381908,495
1765877526.3819242,495
1765877526.381939,495
1765877526.381954,495
1765877526.38197,494
1765877526.3819861,495
1765877526.382001,494
1765877526.3820171,496
1765877526.382032,498
1765877526.382048,499
1765877526.3820632,498
1765877526.382079,497
1765877526.3820941,495
1765877526.3821099,495
1765877526.382126,495
1765877526.3821409,496
1765877526.382157,497
1765877526.3821719,495
1765877526.3821921,499
1765877526.382207,504
1765877526.38223,503
1765877526.382245,503
1765877526.38226,500
1765877526.382276,491
1765877526.382296,488
1765877526.3823118,491
1765877526.382327,491
1765877526.3823428,491
1765877526.382358,492
1765877526.3823738,493
1765877526.38239,494
1765877526.382405,494
1765877526.382421,494
1765877526.3824372,495
1765877526.382452,495
1765877526.382467,495
1765877526.382483,495
1765877526.382499,495
1765877526.382514,495
1765877526.38253,495
1765877526.382546,494
1765877526.382564,495
1765877526.3825788,494
1765877526.382595,495
1765877526.3826098,496
1765877526.382626,496
1765877526.3826408,496
1765877526.382658,496
1765877526.3826728,495
1765877526.382689,495
1765877526.38271,495
1765877526.3827252,495
1765877526.38274,494
1765877526.382868,495
1765877526.382932,496
1765877526.382949,495
1765877526.382962,494
1765877526.3829749,495
1765877526.3829892,497
1765877526.383075,498
1765877526.383091,496
1765877526.3831072,495
1765877526.383123,494
1765877526.3831391,494
1765877526.3831549,494
1765877526.3831701,496
1765877526.3832262,497
1765877526.383242,498
1765877526.383254,499
1765877526.383268,497
1765877526.38328,493
1765877526.383293,493
1765877526.383305,495
1765877526.383317,495
1765877526.383329,496
1765877526.383341,496
1765877526.3833878,495
1765877526.3834062,495
1765877526.383422,497
1765877526.383438,497
1765877526.3834538,497
1765877526.38347,498
1765877526.3834848,498
1765877526.383501,493
1765877526.3835158,493
1765877526.383531,493
1765877526.3835871,494
1765877526.383643,495
1765877526.383661,495
1765877526.3836758,495
1765877526.383692,494
1765877526.3837068,495
1765877526.383723,495
1765877526.383738,495
1765877526.383753,495
1765877526.383769,496
1765877526.3837838,495
1765877526.383799,495
1765877526.3838148,495
1765877526.38383,495
1765877526.3838458,495
1765877526.383861,494
1765877526.38388,493
1765877526.383897,494
1765877526.3839118,497
1765877526.383928,498
1765877526.3839428,498
1765877526.383958,495
1765877526.3839738,494
1765877526.383989,495
1765877526.384004,496
1765877526.384019,497
1765877526.384035,499
1765877526.38405,497
1765877526.384065,494
1765877526.3840818,493
1765877526.384097,494
1765877526.3841121,495
1765877526.384127,494
1765877526.3841422,494
1765877526.384157,495
1765877526.384172,496
1765877526.384187,496
1765877526.384202,497
1765877526.384217,497
1765877526.384233,495
1765877526.384248,494
1765877526.384264,496
1765877526.384282,495
1765877526.384298,494
1765877526.384313,494
1765877526.384328,494
1765877526.384344,494
1765877526.384359,495
1765877526.384374,495
1765877526.3843892,495
1765877526.384405,495
1765877526.384421,495
1765877526.384436,495
1765877526.384452,495
1765877526.384467,496
1765877526.3844821,495
1765877526.384497,494
1765877526.384512,498
1765877526.384528,499
1765877526.384543,501
1765877526.384558,500
1765877526.384573,497
1765877526.384588,496
1765877526.3846028,497
1765877526.384618,497
1765877526.384633,499
1765877526.3846478,498
1765877526.384663,496
1765877526.384682,498
1765877526.3846989,498
1765877526.384714,498
1765877526.38473,496
1765877526.384745,493
1765877526.3847601,495
1765877526.384775,494
1765877526.38479,494
1765877526.384806,495
1765877526.384821,495
1765877526.3848362,495
1765877526.384852,496
1765877526.384866,495
1765877526.384882,495
1765877526.384897,496
1765877526.3849118,495
1765877526.384927,495
1765877526.384942,496
1765877526.384958,496
1765877526.384973,495
1765877526.3849878,495
1765877526.385003,495
1765877526.385018,495
1765877526.385033,494
1765877526.3850482,495
1765877526.385064,495
1765877526.385083,495
1765877526.385099,496
1765877526.385115,496
1765877526.38513,500
1765877526.3851452,503
1765877526.385161,504
1765877526.3851762,500
1765877526.385191,494
1765877526.385206,493
1765877526.385221,494
1765877526.385236,493
1765877526.385252,493
1765877526.385267,494
1765877526.385282,494
1765877526.385298,494
1765877526.385313,495
1765877526.385328,495
1765877526.385344,494
1765877526.385359,495
1765877526.385374,496
1765877526.385389,496
1765877526.3854048,496
1765877526.38542,496
1765877526.3854349,496
1765877526.385451,496
1765877526.385466,495
1765877526.385484,495
1765877526.3855019,495
1765877526.3855171,496
1765877526.3855329,495
1765877526.385548,496
1765877526.385563,495
1765877526.385578,495
1765877526.3855932,494
1765877526.385609,495
1765877526.3856242,496
1765877526.385639,497
1765877526.385654,497
1765877526.3856692,497
1765877526.385685,498
1765877526.3857,495
1765877526.385716,492
1765877526.385731,494
1765877526.385746,495
1765877526.385761,500
1765877526.385776,506
1765877526.385791,506
1765877526.385806,504
1765877526.385822,502
1765877526.385837,496
1765877526.3858519,490
1765877526.385867,491
1765877526.385886,492
1765877526.3859022,493
1765877526.385917,493
1765877526.3859332,494
1765877526.385948,495
1765877526.385963,496
1765877526.3859782,496
1765877526.385994,494
1765877526.386009,492
1765877526.386024,493
1765877526.38604,494
1765877526.386055,494
1765877526.386071,494
1765877526.386086,495
1765877526.386106,495
1765877526.386121,495
1765877526.386136,494
1765877526.386152,495
1765877526.386167,495
1765877526.386183,495
1765877526.386198,495
1765877526.386213,495
1765877526.386229,495
1765877526.386244,495
1765877526.3862588,495
1765877526.386275,497
1765877526.3862982,497
1765877526.386314,496
1765877526.3863292,496
1765877526.386344,497
1765877526.386357,496
1765877526.38637,495
1765877526.386383,494
1765877526.3864498,495
1765877526.386467,494
1765877526.386484,494
1765877526.386498,494
1765877526.386511,495
1765877526.386524,495
1765877526.386536,495
1765877526.386549,495
1765877526.386561,495
1765877526.386573,495
1765877526.3865862,495
1765877526.3865979,495
1765877526.38661,495
1765877526.386623,494
1765877526.386635,495
1765877526.386647,495
1765877526.38666,496
1765877526.386673,495
1765877526.386685,495
1765877526.386702,495
1765877526.386715,496
1765877526.386728,497
1765877526.38674,498
1765877526.386752,501
1765877526.386764,502
1765877526.3867772,499
1765877526.386789,493
1765877526.386801,492
1765877526.386813,497
1765877526.3868248,495
1765877526.386838,493
1765877526.386851,494
1765877526.386863,495
1765877526.386875,495
1765877526.386888,494
1765877526.3869,495
1765877526.386912,495
1765877526.386924,494
1765877526.386936,494
1765877526.386948,495
1765877526.3869598,496
1765877526.386973,496
1765877526.387029,494
1765877526.387043,496
1765877526.3870552,497
1765877526.387071,496
1765877526.387084,496
1765877526.3870962,497
1765877526.387108,498
1765877526.387121,498
1765877526.387133,496
1765877526.387145,494
1765877526.387157,493
1765877526.3871691,495
1765877526.387181,495
1765877526.3871932,494
1765877526.3872058,493
1765877526.387218,495
1765877526.38723,495
1765877526.387242,496
1765877526.387254,497
1765877526.387267,498
1765877526.387279,498
1765877526.387291,499
1765877526.3873029,499
1765877526.387315,495
1765877526.3873332,492
1765877526.3873448,494
1765877526.387358,494
1765877526.3873699,494
1765877526.387382,494
1765877526.387396,495
1765877526.3874109,494
1765877526.387423,495
1765877526.387435,495
1765877526.387447,495
1765877526.387459,494
1765877526.3874712,495
1765877526.387483,495
1765877526.387496,495
1765877526.387508,496
1765877526.38752,497
1765877526.387532,497
1765877526.3875442,495
1765877526.387556,496
1765877526.387569,494
1765877526.3875809,495
1765877526.387593,497
1765877526.387605,499
1765877526.387617,500
1765877526.38763,499
1765877526.3876421,494
1765877526.3876538,494
1765877526.387666,494
1765877526.387678,494
1765877526.38769,493
1765877526.387702,494
1765877526.3877141,494
1765877526.38773,495
1765877526.387742,495
1765877526.387755,495
1765877526.387768,494
1765877526.3877802,495
1765877526.3877928,495
1765877526.387805,495
1765877526.387817,495
1765877526.387829,495
1765877526.387841,496
1765877526.387854,496
1765877526.387866,495
1765877526.387878,495
1765877526.3878899,495
1765877526.387902,496
1765877526.387914,495
1765877526.387926,495
1765877526.3879511,496
1765877526.387969,495
1765877526.3879821,496
1765877526.387994,495
1765877526.388006,495
1765877526.388018,498
1765877526.388031,498
1765877526.388043,498
1765877526.388055,496
1765877526.3880699,494
1765877526.388083,495
1765877526.388104,495
1765877526.388116,498
1765877526.388128,501
1765877526.3881412,501
1765877526.388153,499
1765877526.3881652,497
1765877526.388177,493
1765877526.3881888,494
1765877526.388201,496
1765877526.388214,494
1765877526.388226,494
1765877526.3882382,494
1765877526.38825,493
1765877526.3882618,494
1765877526.388274,495
1765877526.388287,494
1765877526.388299,494
1765877526.3883111,495
1765877526.388323,495
1765877526.388335,496
1765877526.3883479,496
1765877526.38836,496
1765877526.388372,495
1765877526.388384,495
1765877526.3884,496
1765877526.388412,496
1765877526.3884249,496
1765877526.388437,496
1765877526.388453,495
1765877526.388465,495
1765877526.3884768,496
1765877526.388489,495
1765877526.388501,495
1765877526.388513,496
1765877526.388526,496
1765877526.3885381,497
1765877526.3885498,498
1765877526.388562,496
1765877526.388574,495
1765877526.388587,495
1765877526.3885992,494
1765877526.388611,495
1765877526.388623,495
1765877526.388635,495
1765877526.388651,495
1765877526.388663,496
1765877526.388675,498
1765877526.3886871,498
1765877526.3886988,499
1765877526.388711,501
1765877526.3887239,498
1765877526.388737,493
1765877526.3887491,495
1765877526.388761,496
1765877526.3887732,493
1765877526.388785,493
1765877526.388797,495
1765877526.388809,496
1765877526.388821,496
1765877526.388833,496
1765877526.388845,496
1765877526.3888571,495
1765877526.388869,495
1765877526.388882,495
1765877526.3888938,496
1765877526.388906,495
1765877526.388918,494
1765877526.38893,495
1765877526.388942,495
1765877526.3889542,494
1765877526.3889668,495
1765877526.388979,495
1765877526.3889909,495
1765877526.389003,498
1765877526.389015,498
1765877526.389028,498
1765877526.389042,499
1765877526.389054,497
1765877526.389066,494
1765877526.389078,495
1765877526.38909,496
1765877526.389102,495
1765877526.3891141,496
1765877526.3891258,496
1765877526.389138,495
1765877526.38915,495
1765877526.389162,495
1765877526.389174,494
1765877526.3891861,495
1765877526.389198,495
1765877526.3892102,495
1765877526.389222,494
1765877526.3892338,496
1765877526.389246,496
1765877526.389258,495
1765877526.38927,495
1765877526.389282,496
1765877526.3892941,497
1765877526.389306,497
1765877526.389318,496
1765877526.3893309,495
1765877526.389345,494
1765877526.389358,495
1765877526.3893702,496
1765877526.389382,498
1765877526.3893938,500
1765877526.389406,500
1765877526.389418,495
1765877526.38943,494
1765877526.389442,494
1765877526.3894541,495
1765877526.389466,495
1765877526.389479,495
1765877526.3894908,495
1765877526.389503,497
1765877526.389515,496
1765877526.389527,496
1765877526.389539,495
1765877526.3895512,496
1765877526.3895628,496
1765877526.389575,496
1765877526.389587,496
1765877526.389599,496
1765877526.389611,497
1765877526.389623,498
1765877526.389635,499
1765877526.389647,497
1765877526.3896608,497
1765877526.389718,498
1765877526.3897338,498
1765877526.389747,499
1765877526.389759,497
1765877526.389771,496
1765877526.389784,495
1765877526.389796,496
1765877526.3898082,496
1765877526.3898199,497
1765877526.389833,498
1765877526.389845,495
1765877526.389857,494
1765877526.3898702,495
1765877526.389882,495
1765877526.3898938,496
1765877526.389906,496
1765877526.3899179,495
1765877526.389931,496
1765877526.3899431,496
1765877526.389955,496
1765877526.3899672,496
1765877526.3899798,495
1765877526.389992,495
1765877526.390004,496
1765877526.390016,495
1765877526.3900318,496
1765877526.390045,495
1765877526.390058,495
1765877526.39007,495
1765877526.3900821,495
1765877526.390094,496
1765877526.3901062,495
1765877526.3901188,497
1765877526.390131,497
1765877526.390143,496
1765877526.390155,496
1765877526.390168,495
1765877526.39018,496
1765877526.390192,496
1765877526.390205,496
1765877526.390217,495
1765877526.39023,496
1765877526.390242,495
1765877526.390254,497
1765877526.3902662,497
1765877526.3902779,496
1765877526.390319,497
1765877526.390337,496
1765877526.39035,496
1765877526.390364,496
1765877526.3903759,496
1765877526.3904252,496
1765877526.39044,496
1765877526.390453,495
1765877526.390466,495
1765877526.3904798,496
1765877526.390493,495
1765877526.390506,495
1765877526.3905191,495
1765877526.390532,494
1765877526.390545,495
1765877526.390558,495
1765877526.390571,496
1765877526.390584,495
1765877526.390597,496
1765877526.39061,495
1765877526.390623,495
1765877526.390636,496
1765877526.390649,496
1765877526.390662,496
1765877526.3906748,496
1765877526.390688,496
1765877526.390701,496
1765877526.3907142,496
1765877526.390728,496
1765877526.39074,495
1765877526.3907561,495
1765877526.390774,495
1765877526.390792,495
1765877526.3908072,495
1765877526.390823,495
1765877526.390838,496
1765877526.3908532,496
1765877526.390868,496
1765877526.3908842,496
1765877526.390899,496
1765877526.390914,496
1765877526.39093,495
1765877526.390945,495
1765877526.3909602,494
1765877526.390975,494
1765877526.3909912,496
1765877526.391006,496
1765877526.391022,495
1765877526.391037,496
1765877526.391053,495
1765877526.391068,495
1765877526.391083,495
1765877526.391099,495
1765877526.391114,495
1765877526.3911302,495
1765877526.391145,496
1765877526.39116,495
1765877526.391176,495
1765877526.391196,495
1765877526.391212,494
1765877526.3912268,495
1765877526.391243,495
1765877526.391258,496
1765877526.391274,496
1765877526.3912902,496
1765877526.391306,497
1765877526.3913229,497
1765877526.391339,496
1765877526.3913548,496
1765877526.391371,496
1765877526.391386,495
1765877526.391401,496
1765877526.391417,495
1765877526.391432,495
1765877526.391447,495
1765877526.3914618,495
1765877526.391477,495
1765877526.3914938,495
1765877526.39151,495
1765877526.391525,495
1765877526.39154,495
1765877526.391556,496
1765877526.391571,495
1765877526.391586,495
1765877526.391607,495
1765877526.3916218,496
1765877526.391637,496
1765877526.391653,496
1765877526.391668,495
1765877526.391684,496
1765877526.3916988,495
1765877526.391715,495
1765877526.3917298,495
1765877526.391745,496
1765877526.3917608,496
1765877526.391776,496
1765877526.391792,496
1765877526.391807,495
1765877526.391823,496
1765877526.3918378,495
1765877526.391853,495
1765877526.3918688,495
1765877526.391884,496
1765877526.3918989,496
1765877526.391915,497
1765877526.39193,497
1765877526.391945,496
1765877526.391961,495
1765877526.391977,495
1765877526.391992,495
1765877526.3920121,495
1765877526.392027,495
1765877526.392043,495
1765877526.3920581,496
1765877526.3920739,495
1765877526.3920891,496
1765877526.392104,496
1765877526.3921201,496
1765877526.392135,496
1765877526.39215,495
1765877526.392166,496
1765877526.392181,497
1765877526.3921971,496
1765877526.392212,496
1765877526.3922272,495
1765877526.392243,495
1765877526.392258,495
1765877526.392274,495
1765877526.392289,495
1765877526.392305,496
1765877526.39232,496
1765877526.3923352,495
1765877526.392351,496
1765877526.3923662,495
1765877526.392381,496
1765877526.392396,495
1765877526.392421,496
1765877526.392436,496
1765877526.392451,496
1765877526.392467,496
1765877526.392482,496
1765877526.3924968,495
1765877526.392512,495
1765877526.3925278,496
1765877526.392543,495
1765877526.392559,496
1765877526.392575,497
1765877526.39259,496
1765877526.3926048,494
1765877526.392621,494
1765877526.3926358,495
1765877526.392651,494
1765877526.392666,496
1765877526.392682,497
1765877526.392697,497
1765877526.392713,497
1765877526.392728,495
1765877526.3927438,495
1765877526.392759,493
1765877526.3927739,496
1765877526.39279,498
1765877526.3928058,496
1765877526.392826,496
1765877526.3928409,496
1765877526.392857,494
1765877526.3928719,497
1765877526.392887,495
1765877526.392995,495
1765877526.39303,495
1765877526.393044,495
1765877526.393057,496
1765877526.39307,496
1765877526.3930829,496
1765877526.393095,496
1765877526.393107,495
1765877526.39312,495
1765877526.393132,495
1765877526.3931441,496
1765877526.3932202,495
1765877526.39335,495
1765877526.393367,496
1765877526.3933802,495
1765877526.3933928,495
1765877526.393405,495
1765877526.393418,495
1765877526.39343,496
1765877526.3934422,495
1765877526.393484,496
1765877526.3935208,496
1765877526.393537,496
1765877526.3935528,496
1765877526.393616,496
1765877526.393683,496
1765877526.393719,495
1765877526.39376,496
1765877526.3937778,495
1765877526.393794,495
1765877526.3938088,495
1765877526.393826,495
1765877526.393842,496
1765877526.393858,495
1765877526.393874,496
1765877526.393889,496
1765877526.393905,495
1765877526.3939211,496
1765877526.3939369,496
1765877526.393952,495
1765877526.393968,495
1765877526.393984,495
1765877526.3939998,496
1765877526.394015,495
1765877526.394031,495
1765877526.394046,496
1765877526.394062,495
1765877526.394089,496
1765877526.3941069,496
1765877526.394123,496
1765877526.394138,496
1765877526.394154,495
1765877526.39417,495
1765877526.394185,495
1765877526.394201,495
1765877526.394217,495
1765877526.394232,495
1765877526.394248,495
1765877526.394264,495
1765877526.39428,495
1765877526.394295,495
1765877526.394311,495
1765877526.394326,495
1765877526.394342,495
1765877526.394357,495
1765877526.39437,495
1765877526.3943832,496
1765877526.3943958,495
1765877526.394409,496
1765877526.394422,496
1765877526.3944352,497
1765877526.3944478,497
1765877526.394461,496
1765877526.3944771,496
1765877526.394492,496
1765877526.394505,496
1765877526.394518,495
1765877526.394531,494
1765877526.3945441,495
1765877526.394557,495
1765877526.394569,496
1765877526.394582,495
1765877526.3945951,495
1765877526.394608,495
1765877526.394621,495
1765877526.394634,495
1765877526.394648,495
1765877526.3946612,496
1765877526.3946738,495
1765877526.394687,495
1765877526.3947,495
1765877526.3947132,495
1765877526.3947258,495
1765877526.394739,495
1765877526.394752,496
1765877526.3947651,496
1765877526.394778,495
1765877526.394791,494
1765877526.394804,494
1765877526.394817,495
1765877526.394835,495
1765877526.394848,496
1765877526.394861,495
1765877526.394874,495
1765877526.394887,495
1765877526.3949,495
1765877526.394913,495
1765877526.394926,495
1765877526.394939,495
1765877526.3949518,496
1765877526.394965,495
1765877526.394979,495
1765877526.394992,496
1765877526.395005,496
1765877526.395018,496
1765877526.395031,496
1765877526.395044,496
1765877526.395058,495
1765877526.395071,496
1765877526.3950841,495
1765877526.3951092,497
1765877526.395135,496
1765877526.395162,496
1765877526.395176,496
1765877526.395189,495
1765877526.3952022,495
1765877526.3952188,495
1765877526.395234,496
1765877526.3952472,496
1765877526.3952599,496
1765877526.395273,495
1765877526.395286,496
1765877526.395299,495
1765877526.395312,495
1765877526.395326,495
1765877526.395339,495
1765877526.3953521,496
1765877526.3953652,496
1765877526.3953779,497
1765877526.395391,497
1765877526.395404,497
1765877526.395417,496
1765877526.3954298,497
1765877526.395443,496
1765877526.3954601,496
1765877526.395473,497
1765877526.3954859,496
1765877526.395499,497
1765877526.395512,497
1765877526.395605,497
1765877526.395621,496
1765877526.395634,496
1765877526.395745,497
1765877526.395759,496
1765877526.395773,495
1765877526.395786,495
1765877526.395799,495
1765877526.395811,497
1765877526.3958242,497
1765877526.3958368,497
1765877526.395851,497
1765877526.395864,496
1765877526.3958771,496
1765877526.39589,496
1765877526.3959029,495
1765877526.395915,496
1765877526.3959281,496
1765877526.395941,496
1765877526.395954,496
1765877526.395967,496
1765877526.3959801,496
1765877526.3959942,496
1765877526.3960059,495
1765877526.396019,496
1765877526.396032,495
1765877526.396044,496
1765877526.3960571,495
1765877526.396091,496
1765877526.396109,495
1765877526.396123,496
1765877526.396136,495
1765877526.396149,495
1765877526.396162,496
1765877526.3961751,496
1765877526.396188,495
1765877526.396201,496
1765877526.396214,495
1765877526.3962271,495
1765877526.396239,495
1765877526.3962529,496
1765877526.396266,495
1765877526.396279,496
1765877526.396291,496
1765877526.396304,495
1765877526.396317,496
1765877526.3963299,497
1765877526.396342,497
1765877526.3963552,495
1765877526.3963678,494
1765877526.396381,494
1765877526.396394,495
1765877526.3964071,495
1765877526.396419,495
1765877526.396432,496
1765877526.396448,496
1765877526.396462,495
1765877526.3964748,495
1765877526.396488,494
1765877526.396501,495
1765877526.396513,495
1765877526.396526,494
1765877526.396539,495
1765877526.3965518,495
1765877526.396565,495
1765877526.396578,495
1765877526.39659,495
1765877526.3966029,495
1765877526.396616,495
1765877526.396628,494
1765877526.396641,495
1765877526.3966541,495
1765877526.396666,495
1765877526.396679,494
1765877526.396692,496
1765877526.396705,496
1765877526.396718,495
1765877526.3967302,496
1765877526.3967428,497
1765877526.396756,496
1765877526.396769,495
1765877526.396784,493
1765877526.396799,495
1765877526.396812,496
1765877526.396827,496
1765877526.3968399,496
1765877526.396853,496
1765877526.396866,496
1765877526.3968792,496
1765877526.3968918,496
1765877526.396905,496
1765877526.396918,495
1765877526.3969312,496
1765877526.3969438,495
1765877526.396956,496
1765877526.3969688,496
1765877526.396982,496
1765877526.396995,496
1765877526.397008,495
1765877526.3970208,495
1765877526.397034,496
1765877526.397046,497
1765877526.397059,496
1765877526.3970718,495
1765877526.397085,495
1765877526.397098,495
1765877526.39711,496
1765877526.397124,496
1765877526.397141,496
1765877526.397154,497
1765877526.3971672,497
1765877526.397179,496
1765877526.397192,495
1765877526.3972049,495
1765877526.397218,495
1765877526.397231,495
1765877526.397244,495
1765877526.3972569,496
1765877526.397269,495
1765877526.3972821,495
1765877526.397295,495
1765877526.3973079,495
1765877526.397321,495
1765877526.397334,496
1765877526.397347,496
1765877526.3973591,496
1765877526.397372,495
1765877526.397385,495
1765877526.397397,495
1765877526.3974102,495
1765877526.397423,496
1765877526.397436,496
1765877526.3974478,496
1765877526.397461,495
1765877526.3974771,496
1765877526.39749,495
1765877526.397503,495
1765877526.397516,495
1765877526.3975291,496
1765877526.397542,495
1765877526.397554,496
1765877526.397567,496
1765877526.3975801,496
1765877526.397593,497
1765877526.397606,497
1765877526.397619,495
1765877526.397631,495
1765877526.397644,495
1765877526.3976572,496
1765877526.3976698,498
1765877526.397683,497
1765877526.397696,496
1765877526.397708,496
1765877526.397721,496
1765877526.397734,496
1765877526.397747,495
1765877526.39776,496
1765877526.397773,496
1765877526.3977852,496
1765877526.3977978,495
1765877526.397813,495
1765877526.3978271,496
1765877526.3978398,496
1765877526.397853,496
1765877526.397865,496
1765877526.39788,496
1765877526.397894,496
1765877526.3979058,495
1765877526.397919,496
1765877526.397932,497
1765877526.397944,496
1765877526.397957,496
1765877526.39797,494
1765877526.397983,494
1765877526.397996,494
1765877526.398008,496
1765877526.3980212,496
1765877526.3980339,498
1765877526.398047,497
1765877526.39806,495
1765877526.398072,495
1765877526.398085,496
1765877526.398099,493
1765877526.398112,494
1765877526.398124,494
1765877526.398137,495
1765877526.3981519,495
1765877526.3981671,495
1765877526.398179,496
1765877526.3981922,495
1765877526.398205,496
1765877526.398218,495
1765877526.398231,496
1765877526.3982441,495
1765877526.3982568,496
1765877526.398269,496
1765877526.398282,495
1765877526.398295,495
1765877526.398308,496
1765877526.398321,495
1765877526.3983328,496
1765877526.398346,496
1765877526.398359,497
1765877526.3983722,497
1765877526.3983848,496
1765877526.398398,496
1765877526.39841,495
1765877526.398423,495
1765877526.398436,495
1765877526.398449,495
1765877526.398462,496
1765877526.398474,495
1765877526.398487,495
1765877526.398504,496
1765877526.398517,496
1765877526.39853,495
1765877526.3985431,496
1765877526.398556,496
1765877526.3985689,496
1765877526.398582,496
1765877526.398595,496
1765877526.398608,496
1765877526.3986208,496
1765877526.398634,496
1765877526.398646,496
1765877526.398659,495
1765877526.3986719,495
1765877526.398685,495
1765877526.398697,496
1765877526.398711,495
1765877526.398724,496
1765877526.3987358,496
1765877526.3987489,496
1765877526.398762,496
1765877526.398775,495
1765877526.398787,495
1765877526.3988,495
1765877526.398813,496
1765877526.398826,495
1765877526.3988428,495
1765877526.398856,496
1765877526.398869,496
1765877526.3988822,496
1765877526.398895,496
1765877526.398907,496
1765877526.3989198,496
1765877526.398933,495
1765877526.398946,496
1765877526.39896,496
1765877526.3989718,496
1765877526.398985,496
1765877526.398998,496
1765877526.3990111,496
1765877526.399024,496
1765877526.399037,496
1765877526.39905,496
1765877526.399063,496
1765877526.399076,496
1765877526.3990889,495
1765877526.399102,496
1765877526.399114,495
1765877526.399127,495
1765877526.3991401,495
1765877526.399153,496
1765877526.3991659,496
1765877526.399182,496
1765877526.399196,495
1765877526.3992078,496
1765877526.399221,495
1765877526.399234,495
1765877526.3992472,495
1765877526.3992598,495
1765877526.399273,496
1765877526.399285,496
1765877526.399298,496
1765877526.399311,496
1765877526.399324,496
1765877526.3993359,495
1765877526.39935,496
1765877526.399362,496
1765877526.3993752,495
1765877526.399387,495
1765877526.3994,496
1765877526.399413,495
1765877526.399425,496
1765877526.3994381,496
1765877526.3994508,496
1765877526.399464,495
1765877526.399477,496
1765877526.39949,496
1765877526.399503,496
1765877526.399518,496
1765877526.399532,496
1765877526.3995452,496
1765877526.399557,496
1765877526.39957,495
1765877526.3995829,496
1765877526.399596,496
1765877526.3996081,496
1765877526.399621,496
1765877526.399634,495
1765877526.399647,496
1765877526.399659,496
1765877526.399672,496
1765877526.3996851,495
1765877526.399698,496
1765877526.39971,496
1765877526.399723,495
1765877526.3997362,496
1765877526.399749,496
1765877526.399761,495
1765877526.3997738,496
1765877526.399787,496
1765877526.3998,496
1765877526.3998132,496
1765877526.3998258,496
1765877526.399839,496
1765877526.399852,496
1765877526.399869,496
1765877526.399882,496
1765877526.399894,496
1765877526.399907,496
1765877526.3999202,496
1765877526.3999329,496
1765877526.399946,496
1765877526.399959,496
1765877526.3999722,496
1765877526.3999841,495
1765877526.399997,495
1765877526.4000099,495
1765877526.400022,495
1765877526.4000351,496
1765877526.400048,497
1765877526.400061,496
1765877526.400074,496
1765877526.400087,496
1765877526.4001,496
1765877526.4001129,495
1765877526.400126,496
1765877526.400139,496
1765877526.400152,495
1765877526.400165,496
1765877526.400178,496
1765877526.400191,496
1765877526.4002078,496
1765877526.400222,495
1765877526.400234,496
1765877526.400247,495
1765877526.4002602,495
1765877526.400272,495
1765877526.400285,495
1765877526.4002979,496
1765877526.40031,495
1765877526.400321,495
1765877526.400332,496
1765877526.400343,496
1765877526.4003541,496
1765877526.400365,496
1765877526.400376,497
1765877526.400387,497
1765877526.400398,497
1765877526.400409,496
1765877526.4004202,497
1765877526.4004312,497
1765877526.4004421,497
1765877526.4004538,497
1765877526.400465,497
1765877526.400476,497
1765877526.400487,496
1765877526.400498,497
1765877526.400513,496
1765877526.400525,496
1765877526.400536,497
1765877526.400547,496
1765877526.400558,497
1765877526.4005718,496
1765877526.400583,496
1765877526.400594,496
1765877526.400605,496
1765877526.400616,496
1765877526.400627,496
1765877526.4006379,496
1765877526.400649,496
1765877526.40066,496
1765877526.400672,495
1765877526.400683,496
1765877526.4006941,496
1765877526.400705,495
1765877526.400716,496
1765877526.400727,495
1765877526.400738,496
1765877526.400749,496
1765877526.4007602,495
1765877526.4007711,496
1765877526.400782,496
1765877526.400793,496
1765877526.400804,495
1765877526.400819,496
1765877526.40083,496
1765877526.400841,496
1765877526.400852,496
1765877526.400863,496
1765877526.400874,496
1765877526.400885,496
1765877526.400896,495
1765877526.400908,495
1765877526.400919,496
1765877526.4009302,495
1765877526.4009411,496
1765877526.400952,495
1765877526.400963,496
1765877526.400974,496
1765877526.400985,495
1765877526.4009962,495
1765877526.4010081,496
1765877526.4010189,496
1765877526.4010298,496
1765877526.4010408,496
1765877526.401052,496
1765877526.401063,496
1765877526.401074,496
1765877526.401085,496
1765877526.4010959,495
1765877526.40111,496
1765877526.401122,496
1765877526.401133,495
1765877526.401145,495
1765877526.4011562,495
1765877526.4011672,495
1765877526.4011781,495
1765877526.401189,495
1765877526.4012,496
1765877526.4012108,496
1765877526.401222,496
1765877526.401233,496
1765877526.401244,495
1765877526.401255,496
1765877526.4012659,495
1765877526.4012768,496
1765877526.401288,496
1765877526.4013,495
1765877526.401311,496
1765877526.401322,495
1765877526.401333,495
1765877526.401344,495
1765877526.401355,495
1765877526.401366,496
1765877526.401377,496
1765877526.401388,495
1765877526.401402,496
1765877526.4014149,495
1765877526.4014258,496
1765877526.401437,496
1765877526.401448,495
1765877526.401459,495
1765877526.40147,495
1765877526.40148,496
1765877526.401491,495
1765877526.401503,495
1765877526.401514,495
1765877526.401525,495
1765877526.401536,496
1765877526.401547,495
1765877526.401558,495
1765877526.40157,496
1765877526.401581,495
1765877526.401592,495
1765877526.401603,495
1765877526.4016142,496
1765877526.4016252,495
1765877526.4016361,496
1765877526.401647,495
1765877526.401658,495
1765877526.401669,495
1765877526.4016798,495
1765877526.401692,496
1765877526.401706,495
1765877526.401717,496
1765877526.401729,496
1765877526.40174,495
1765877526.401751,495
1765877526.401762,496
1765877526.401773,495
1765877526.4017842,495
1765877526.4017951,494
1765877526.401806,494
1765877526.401817,495
1765877526.401828,496
1765877526.401839,495
1765877526.401851,496
1765877526.401862,496
1765877526.4018729,496
1765877526.4018838,496
1765877526.4018948,495
1765877526.401906,495
1765877526.401918,496
1765877526.401929,496
1765877526.4019399,495
1765877526.401951,495
1765877526.401962,495
1765877526.401974,495
1765877526.401985,496
1765877526.401999,495
1765877526.4020119,495
1765877526.4020228,495
1765877526.4020338,495
1765877526.402045,495
1765877526.402056,495
1765877526.402067,495
1765877526.402078,496
1765877526.4020889,496
1765877526.402101,495
1765877526.402112,495
1765877526.402123,496
1765877526.402134,495
1765877526.402145,495
1765877526.402156,496
1765877526.402167,495
1765877526.402178,495
1765877526.402189,496
1765877526.4022,495
1765877526.4022112,496
1765877526.4022222,496
1765877526.4022331,496
1765877526.402244,496
1765877526.402255,495
1765877526.402266,495
1765877526.402278,495
1765877526.4022882,496
1765877526.402303,495
1765877526.402315,495
1765877526.402326,495
1765877526.402337,495
1765877526.402348,495
1765877526.402359,495
1765877526.40237,495
1765877526.402381,495
1765877526.4023921,496
1765877526.402403,495
1765877526.402415,496
1765877526.402426,495
1765877526.4024372,495
1765877526.402448,495
1765877526.4024582,496
1765877526.4024699,495
1765877526.4024808,495
1765877526.4024918,495
1765877526.4025018,495
1765877526.4025128,495
1765877526.402524,495
1765877526.402536,495
1765877526.402547,494
1765877526.4025578,494
1765877526.402569,495
1765877526.40258,496
1765877526.402594,496
1765877526.4026072,496
1765877526.4026182,496
1765877526.4026291,495
1765877526.4026399,495
1765877526.4026518,495
1765877526.402663,496
1765877526.402674,496
1765877526.402685,495
1765877526.402696,496
1765877526.4027069,495
1765877526.402719,496
1765877526.40273,496
1765877526.402741,496
1765877526.402752,495
1765877526.402763,495
1765877526.402774,495
1765877526.402785,495
1765877526.402796,495
1765877526.402807,495
1765877526.402818,496
1765877526.4028292,495
1765877526.4028401,496
1765877526.402851,496
1765877526.402862,496
1765877526.402876,496
1765877526.402891,496
1765877526.402913,495
1765877526.402924,496
1765877526.402935,495
1765877526.402946,495
1765877526.402957,495
1765877526.4029682,495
1765877526.4029791,495
1765877526.40299,496
1765877526.403001,495
1765877526.403012,495
1765877526.403023,495
1765877526.403035,496
1765877526.403046,495
1765877526.4030569,496
1765877526.4030678,496
1765877526.4030788,495
1765877526.40309,495
1765877526.403101,495
1765877526.403112,496
1765877526.403123,496
1765877526.4031339,496
1765877526.403145,495
1765877526.403156,495
1765877526.403167,495
1765877526.403178,496
1765877526.403192,495
1765877526.4032052,495
1765877526.403216,495
1765877526.4032269,494
1765877526.4032378,494
1765877526.4032488,495
1765877526.40326,496
1765877526.403272,496
1765877526.4032829,496
1765877526.4032938,495
1765877526.403305,495
1765877526.403316,496
1765877526.403327,496
1765877526.403339,496
1765877526.40335,495
1765877526.403361,495
1765877526.403372,495
1765877526.4033852,496
1765877526.4033961,496
1765877526.4034078,495
1765877526.4034188,495
1765877526.40343,495
1765877526.403541,496
1765877526.403554,495
1765877526.4035661,495
1765877526.403577,495
1765877526.403589,496
1765877526.4037151,495
1765877526.40373,496
1765877526.403741,496
1765877526.4037519,495
1765877526.403763,495
1765877526.4038038,495
1765877526.403817,495
1765877526.403829,495
1765877526.40384,495
1765877526.403851,495
1765877526.403863,495
1765877526.4038742,496
1765877526.403886,495
1765877526.403897,495
1765877526.403908,495
1765877526.40392,495
1765877526.403931,495
1765877526.4039419,495
1765877526.4039528,495
1765877526.4039638,495
1765877526.403976,495
1765877526.403987,495
1765877526.403998,495
1765877526.4040089,495
1765877526.404021,495
1765877526.404032,495
1765877526.404047,495
1765877526.404059,495
1765877526.40407,495
1765877526.4040809,495
1765877526.4040918,496
1765877526.4041028,495
1765877526.404115,495
1765877526.404126,495
1765877526.404137,495
1765877526.4041479,495
1765877526.404159,496
1765877526.40417,496
1765877526.404182,495
1765877526.404193,496
1765877526.4042041,495
1765877526.404215,495
1765877526.404226,495
1765877526.404237,495
1765877526.404248,495
1765877526.4042602,495
1765877526.4042711,495
1765877526.404282,495
1765877526.404293,496
1765877526.4043038,495
1765877526.404316,495
1765877526.404327,495
1765877526.404342,495
1765877526.404354,495
1765877526.404365,495
1765877526.404376,495
1765877526.4043882,495
1765877526.4043992,496
1765877526.4044101,495
1765877526.4044218,495
1765877526.404433,496
1765877526.404445,495
1765877526.404456,496
1765877526.404468,495
1765877526.404479,495
1765877526.404491,495
1765877526.404502,495
1765877526.4045131,495
1765877526.404525,496
1765877526.404536,496
1765877526.404547,495
1765877526.4045582,495
1765877526.40457,496
1765877526.404581,496
1765877526.404593,496
1765877526.404604,496
1765877526.404615,496
1765877526.4046268,497
1765877526.404638,497
1765877526.4046552,497
1765877526.4046662,497
1765877526.4046779,497
1765877526.4046888,497
1765877526.4046998,497
1765877526.404712,497
1765877526.404724,497
1765877526.404735,496
1765877526.404746,497
1765877526.404758,497
1765877526.404769,497
1765877526.4047801,495
1765877526.404792,496
1765877526.404804,496
1765877526.4048152,496
1765877526.4048262,496
1765877526.4048371,496
1765877526.404848,496
1765877526.40486,496
1765877526.404871,496
1765877526.404883,496
1765877526.4048939,496
1765877526.4049048,496
1765877526.404917,496
1765877526.404928,496
1765877526.404939,496
1765877526.4049542,496
1765877526.4049659,496
1765877526.404978,496
1765877526.404989,496
1765877526.405001,496
1765877526.405012,496
1765877526.4050229,496
1765877526.405034,496
1765877526.405045,496
1765877526.405057,496
1765877526.405068,496
1765877526.4050791,496
1765877526.40509,496
1765877526.405102,496
1765877526.405113,496
1765877526.4051251,496
1765877526.4051359,495
1765877526.4051468,496
1765877526.4051578,496
1765877526.40517,496
1765877526.405181,495
1765877526.405192,495
1765877526.4052029,495
1765877526.4052138,495
1765877526.405225,495
1765877526.405236,495
1765877526.405247,495
1765877526.40526,496
1765877526.405347,496
1765877526.4053602,496
1765877526.405372,496
1765877526.4053838,496
1765877526.405396,495
1765877526.405407,496
1765877526.405418,495
1765877526.40543,495
1765877526.405441,496
1765877526.405453,496
1765877526.4054642,495
1765877526.4054751,496
1765877526.405487,496
1765877526.405498,496
1765877526.40551,496
1765877526.405521,496
1765877526.405532,495
1765877526.405544,495
1765877526.405556,496
1765877526.405567,495
1765877526.40558,496
1765877526.405591,495
1765877526.4056032,496
1765877526.405615,495
1765877526.405626,495
1765877526.405638,496
1765877526.405649,496
1765877526.405664,495
1765877526.405675,496
1765877526.405686,496
1765877526.405698,495
1765877526.405709,496
1765877526.4057221,495
1765877526.405733,496
1765877526.4057448,496
1765877526.405756,496
1765877526.405768,495
1765877526.40578,495
1765877526.405791,495
1765877526.405803,495
1765877526.405814,496
1765877526.4058251,495
1765877526.405837,496
1765877526.405848,495
1765877526.405859,495
1765877526.4058712,495
1765877526.4058821,496
1765877526.4058938,496
1765877526.405905,495
1765877526.405916,496
1765877526.405928,496
1765877526.4059389,496
1765877526.405951,496
1765877526.405962,496
1765877526.405976,495
1765877526.405987,496
1765877526.4059992,495
1765877526.4060102,495
1765877526.4060218,496
1765877526.406034,495
1765877526.406045,496
1765877526.406056,496
1765877526.406068,495
1765877526.40608,495
1765877526.406091,496
1765877526.4061031,495
1765877526.406114,496
1765877526.406126,496
1765877526.406137,495
1765877526.4061491,496
1765877526.4061599,496
1765877526.4061718,495
1765877526.406183,495
1765877526.406194,495
1765877526.406206,495
1765877526.406216,496
1765877526.406226,495
1765877526.406237,495
1765877526.406247,496
1765877526.406257,496
1765877526.406267,496
1765877526.4062772,496
1765877526.406369,496
1765877526.40638,496
1765877526.4063911,495
1765877526.406401,495
1765877526.406411,495
1765877526.406422,495
1765877526.406432,495
1765877526.406442,495
1765877526.406452,496
1765877526.406462,496
1765877526.406472,496
1765877526.406482,495
1765877526.406493,496
1765877526.406503,496
1765877526.406513,495
1765877526.406523,495
1765877526.406533,495
1765877526.406544,495
1765877526.4065542,495
1765877526.406564,495
1765877526.406574,495
1765877526.406584,495
1765877526.406594,495
1765877526.406605,495
1765877526.406615,495
1765877526.406625,494
1765877526.406635,495
1765877526.406645,495
1765877526.406655,495
1765877526.4066648,495
1765877526.406676,495
1765877526.406686,495
1765877526.4066958,496
1765877526.4067059,496
1765877526.4067159,496
1765877526.4067268,495
1765877526.4067369,495
1765877526.4067469,495
1765877526.406757,495
1765877526.4067671,495
1765877526.4067771,495
1765877526.4067872,495
1765877526.4067981,495
1765877526.4068081,495
1765877526.4068182,495
1765877526.406828,495
1765877526.406838,495
1765877526.406848,495
1765877526.406858,495
1765877526.406872,494
1765877526.406882,494
1765877526.406893,495
1765877526.406903,494
1765877526.406913,496
1765877526.406924,495
1765877526.406935,495
1765877526.406945,496
1765877526.406955,495
1765877526.406966,495
1765877526.406976,495
1765877526.406986,496
1765877526.406996,495
1765877526.407007,496
1765877526.407017,495
1765877526.407027,495
1765877526.407038,495
1765877526.407048,495
1765877526.407058,495
1765877526.407069,495
1765877526.407079,495
1765877526.407089,495
1765877526.4070988,495
1765877526.407109,495
1765877526.407955,494
1765877526.4089909,495
1765877526.4100218,495
1765877526.410974,495
1765877526.41198,495
1765877526.412968,495
1765877526.414017,495
1765877526.415024,495
1765877526.41599,495
1765877526.4170299,495
1765877526.4179971,495
1765877526.4190102,495
1765877526.420011,495
1765877526.4210129,495
1765877526.4220212,495
1765877526.423014,495
1765877526.424001,495
1765877526.42503,495
1765877526.426006,496
1765877526.4270139,496
1765877526.428062,495
1765877526.429064,495
1765877526.4301062,495
1765877526.4310558,495
1765877526.432044,495
1765877526.433033,495
1765877526.4340339,495
1765877526.435039,495
1765877526.436064,494
1765877526.4370592,495
1765877526.4380548,495
1765877526.4390569,495
1765877526.440056,495
1765877526.441065,495
1765877526.4420538,495
1765877526.4430552,495
1765877526.444096,495
1765877526.445083,495
1765877526.446153,495
1765877526.447099,495
1765877526.448097,495
1765877526.449096,495
1765877526.4500968,495
1765877526.451078,495
1765877526.4521291,495
1765877526.4530969,495
1765877526.454091,495
1765877526.455117,495
1765877526.45612,495
1765877526.457112,495
1765877526.45809,495
1765877526.459106,494
1765877526.46012,496
1765877526.461108,495
1765877526.462112,495
1765877526.463136,495
1765877526.464112,495
1765877526.4651341,495
1765877526.466135,494
1765877526.467123,495
1765877526.468124,495
1765877526.469127,495
1765877526.470217,495
1765877526.471139,495
1765877526.472128,495
1765877526.473121,495
1765877526.474145,495
1765877526.475141,495
1765877526.476226,495
1765877526.47714,495
1765877526.478166,495
1765877526.479177,495
1765877526.48016,495
1765877526.48116,495
1765877526.482156,495
1765877526.4831629,494
1765877526.48418,495
1765877526.485167,495
1765877526.4861581,495
1765877526.4871879,495
1765877526.488213,495
1765877526.4891908,495
1765877526.490169,495
1765877526.49124,495
1765877526.492219,495
1765877526.493202,495
1765877526.494195,495
1765877526.495209,494
1765877526.4962292,496
1765877526.497205,495
1765877526.498224,495
1765877526.499258,496
1765877526.500216,495
1765877526.501227,495
1765877526.5022259,495
1765877526.503228,495
1765877526.504235,495
1765877526.5052228,495
1765877526.5062149,495
1765877526.507256,495
1765877526.50824,495
1765877526.509235,496
1765877526.510231,495
1765877526.511232,495
1765877526.512258,495
1765877526.51328,496
1765877526.514283,495
1765877526.515351,496
1765877526.516267,495
1765877526.517272,495
1765877526.518265,495
1765877526.519254,495
1765877526.520263,496
1765877526.521276,496
1765877526.5222762,496
1765877526.523273,496
1765877526.52429,495
1765877526.5252821,496
1765877526.526293,495
1765877526.527277,495
1765877526.5283232,494
1765877526.529301,494
1765877526.530305,495
1765877526.5312939,496
1765877526.5323,496
1765877526.5333061,496
1765877526.534327,495
1765877526.5353322,495
1765877526.536351,495
1765877526.537371,495
1765877526.538354,496
1765877526.539362,495
1765877526.540344,496
1765877526.541327,495
1765877526.54234,495
1765877526.543338,495
1765877526.5443342,495
1765877526.545368,495
1765877526.5463839,496
1765877526.547345,496
1765877526.5483599,496
1765877526.549373,496
1765877526.550375,497
1765877526.5514429,496
1765877526.5523698,496
1765877526.553401,497
1765877526.5543602,496
1765877526.55537,497
1765877526.5563672,497
1765877526.5573812,496
1765877526.558374,496
1765877526.559382,497
1765877526.560391,496
1765877526.561388,497
1765877526.5623932,497
1765877526.563402,496
1765877526.564381,495
1765877526.565402,497
1765877526.5664032,496
1765877526.5674,496
1765877526.568394,496
1765877526.5694,496
1765877526.570428,496
1765877526.571409,495
1765877526.5724108,496
1765877526.573417,495
1765877526.5744581,495
1765877526.575456,495
1765877526.576443,495
1765877526.57744,496
1765877526.578437,496
1765877526.5794728,495
1765877526.58047,495
1765877526.581465,495
1765877526.582499,495
1765877526.5834692,496
1765877526.584519,495
1765877526.585442,495
1765877526.586546,495
1765877526.587491,496
1765877526.588479,496
1765877526.589536,496
1765877526.590542,495
1765877526.591535,496
1765877526.592538,495
1765877526.593544,495
1765877526.594561,495
1765877526.595573,495
1765877526.596656,496
1765877526.5975611,496
1765877526.5985842,495
1765877526.599583,495
1765877526.600551,495
1765877526.601572,495
1765877526.602557,495
1765877526.6036339,495
1765877526.604627,495
1765877526.605574,495
1765877526.606563,495
1765877526.607578,495
1765877526.608572,496
1765877526.609596,496
1765877526.6105962,495
1765877526.611611,495
1765877526.612635,496
1765877526.613546,495
1765877526.614549,496
1765877526.615561,496
1765877526.616555,495
1765877526.6175559,496
1765877526.61856,496
1765877526.619584,496
1765877526.620586,495
1765877526.621562,495
1765877526.622566,496
1765877526.623604,495
1765877526.6245718,495
1765877526.62557,496
1765877526.6265879,496
1765877526.627577,495
1765877526.628649,496
1765877526.629625,495
1765877526.630593,495
1765877526.6315851,495
1765877526.632571,495
1765877526.633596,495
1765877526.6345952,495
1765877526.635595,496
1765877526.6365938,495
1765877526.637749,496
1765877526.6385999,496
1765877526.639597,496
1765877526.640596,496
1765877526.641612,495
1765877526.6426141,496
1765877526.643604,495
1765877526.6446102,496
1765877526.645629,495
1765877526.6466188,496
1765877526.647618,496
1765877526.648621,496
1765877526.649626,495
1765877526.6506188,495
1765877526.651639,496
1765877526.652631,496
1765877526.653644,495
1765877526.6547048,495
1765877526.655663,496
1765877526.656642,496
1765877526.657656,496
1765877526.658654,496
1765877526.659681,496
1765877526.660672,495
1765877526.661658,496
1765877526.662687,496
1765877526.663677,496
1765877526.6646929,496
1765877526.6657002,496
1765877526.666688,496
1765877526.6676722,496
1765877526.6686778,495
1765877526.669684,495
1765877526.670683,495
1765877526.6716878,496
1765877526.672711,496
1765877526.6737049,496
1765877526.674706,496
1765877526.675694,496
1765877526.676715,496
1765877526.6776981,496
1765877526.67874,495
1765877526.679719,495
1765877526.680717,494
1765877526.681725,496
1765877526.682724,496
1765877526.6837661,496
1765877526.684747,495
1765877526.6857312,495
1765877526.6867452,495
1765877526.6877508,495
1765877526.688734,495
1765877526.6897469,495
1765877526.690731,496
1765877526.6917498,496
1765877526.692745,495
1765877526.693753,495
1765877526.694763,495
1765877526.695758,496
1765877526.696759,495
1765877526.69776,495
1765877526.698754,496
1765877526.699768,496
1765877526.700767,496
1765877526.70177,496
1765877526.702771,496
1765877526.70381,495
1765877526.7048042,495
1765877526.705844,495
1765877526.706881,495
1765877526.7078762,495
1765877526.708815,496
1765877526.709868,496
1765877526.710798,497
1765877526.711812,496
1765877526.712821,496
1765877526.71381,496
1765877526.7148118,497
1765877526.715839,497
1765877526.716856,496
1765877526.717838,496
1765877526.7188249,496
1765877526.719842,496
1765877526.720868,496
1765877526.721856,495
1765877526.7228532,495
1765877526.723835,495
1765877526.724833,495
1765877526.725826,495
1765877526.726871,495
1765877526.72785,494
1765877526.728858,494
1765877526.7298539,495
1765877526.7308512,496
1765877526.731853,497
1765877526.732864,498
1765877526.7338529,498
1765877526.734876,500
1765877526.735856,498
1765877526.736866,498
1765877526.737886,500
1765877526.738883,500
1765877526.7398841,499
1765877526.740868,500
1765877526.741887,499
1765877526.742909,497
1765877526.743896,495
1765877526.744931,493
1765877526.745924,493
1765877526.746973,496
1765877526.747945,497
1765877526.7489831,496
1765877526.749938,496
1765877526.75091,493
1765877526.751916,492
1765877526.752906,495
1765877526.753946,495
1765877526.754921,495
1765877526.755918,496
1765877526.756939,495
1765877526.7579331,496
1765877526.758942,496
1765877526.759935,496
1765877526.76094,493
1765877526.761945,493
1765877526.763018,494
1765877526.763971,494
1765877526.764965,495
1765877526.765964,497
1765877526.766942,496
1765877526.767966,497
1765877526.768977,497
1765877526.770009,498
1765877526.770984,498
1765877526.7719822,497
1765877526.772974,496
1765877526.773967,495
1765877526.774986,495
1765877526.7759879,496
1765877526.7769861,497
1765877526.778006,496
1765877526.779022,498
1765877526.780004,500
1765877526.7809799,500
1765877526.781996,501
1765877526.7830038,499
1765877526.784009,499
1765877526.785012,497
1765877526.78604,496
1765877526.787036,497
1765877526.7880309,497
1765877526.7890298,495
1765877526.790026,498
1765877526.7910578,497
1765877526.792027,500
1765877526.793042,500
1765877526.7940211,502
1765877526.79504,500
1765877526.796053,498
1765877526.797029,495
1765877526.7980359,497
1765877526.799061,494
1765877526.8000598,494
1765877526.801043,495
1765877526.80207,498
1765877526.8030488,497
1765877526.8040938,497
1765877526.805092,495
1765877526.80608,496
1765877526.807073,496
1765877526.80806,489
1765877526.809066,490
1765877526.8100648,497
1765877526.8110762,498
1765877526.8121111,497
1765877526.813129,498
1765877526.81408,498
1765877526.815094,496
1765877526.816108,495
1765877526.817099,495
1765877526.818114,498
1765877526.8191118,501
1765877526.8201652,502
1765877526.821153,505
1765877526.82212,503
1765877526.8231318,495
1765877526.8241138,492
1765877526.825113,499
1765877526.826174,497
1765877526.827132,494
1765877526.828154,492
1765877526.829164,495
1765877526.830164,495
1765877526.83117,496
1765877526.832192,496
1765877526.833175,496
1765877526.83417,495
1765877526.835191,492
1765877526.8363688,493
1765877526.8372538,494
1765877526.8382568,495
1765877526.8392498,497
1765877526.840225,498
1765877526.841226,506
1765877526.842208,510
1765877526.843363,510
1765877526.8442419,513
1765877526.8453188,513
1765877526.846297,502
1765877526.847268,491
1765877526.8482509,489
1765877526.849237,489
1765877526.850236,492
1765877526.851259,495
1765877526.852281,498
1765877526.853452,497
1765877526.854302,496
1765877526.8552399,492
1765877526.856241,492
1765877526.857242,494
1765877526.8582668,497
1765877526.859244,502
1765877526.860238,510
1765877526.861262,513
1765877526.8622699,513
1765877526.863269,506
1765877526.864267,498
1765877526.865262,497
1765877526.866264,492
1765877526.86727,490
1765877526.868265,490
1765877526.869279,492
1765877526.870288,495
1765877526.8713238,499
1765877526.872285,502
1765877526.873298,503
1765877526.8743,496
1765877526.87533,501
1765877526.876328,500
1765877526.877292,498
1765877526.8783581,498
1765877526.879414,504
1765877526.8803232,511
1765877526.881342,514
1765877526.882302,509
1765877526.88329,498
1765877526.884288,494
1765877526.885302,492
1765877526.886397,487
1765877526.887341,488
1765877526.888343,487
1765877526.889345,491
1765877526.8903239,491
1765877526.891327,490
1765877526.892332,492
1765877526.893337,494
1765877526.894339,495
1765877526.895375,495
1765877526.896379,495
1765877526.897355,496
1765877526.898342,496
1765877526.899363,496
1765877526.900357,497
1765877526.9013681,496
1765877526.902365,496
1765877526.903379,498
1765877526.904404,496
1765877526.905374,494
1765877526.906376,496
1765877526.9073641,496
1765877526.9083898,497
1765877526.9094028,496
1765877526.910383,496
1765877526.911388,497
1765877526.912405,496
1765877526.913422,497
1765877526.9144268,497
1765877526.9154701,496
1765877526.9164228,498
1765877526.917403,498
1765877526.918404,499
1765877526.919415,500
1765877526.92044,500
1765877526.9214091,500
1765877526.9224262,502
1765877526.923438,498
1765877526.924433,494
1765877526.925441,495
1765877526.926424,497
1765877526.927435,497
1765877526.928436,498
1765877526.9294589,502
1765877526.930468,502
1765877526.9314501,504
1765877526.932437,507
1765877526.933455,496
1765877526.934457,492
1765877526.935453,503
1765877526.936467,510
1765877526.9374778,509
1765877526.938536,502
1765877526.939557,491
1765877526.9405599,487
1765877526.941561,489
1765877526.942571,490
1765877526.943624,492
1765877526.944543,493
1765877526.945544,494
1765877526.946549,494
1765877526.947545,494
1765877526.948544,495
1765877526.9495418,495
1765877526.950546,495
1765877526.951582,493
1765877526.952547,494
1765877526.953571,495
1765877526.954589,496
1765877526.955559,495
1765877526.956558,495
1765877526.9576,496
1765877526.9585721,496
1765877526.959584,496
1765877526.960566,497
1765877526.9615629,498
1765877526.962569,497
1765877526.9635699,496
1765877526.964556,494
1765877526.965562,495
1765877526.966588,494
1765877526.9675589,495
1765877526.968561,496
1765877526.969568,495
1765877526.970565,494
1765877526.971593,495
1765877526.9726279,498
1765877526.973577,500
1765877526.974571,501
1765877526.97557,501
1765877526.976584,495
1765877526.97758,494
1765877526.9785962,492
1765877526.979587,494
1765877526.980587,494
1765877526.981589,494
1765877526.982612,496
1765877526.983592,496
1765877526.984652,495
1765877526.9856188,498
1765877526.9866529,498
1765877526.987623,497
1765877526.9886,496
1765877526.989604,493
1765877526.9906108,494
1765877526.991643,496
1765877526.992616,496
1765877526.993626,496
1765877526.994654,497
1765877526.995666,497
1765877526.9966521,495
1765877526.997654,495
1765877526.998681,494
1765877526.9996521,495
1765877527.000643,496
1765877527.001647,499
1765877527.002667,499
1765877527.003735,501
1765877527.004676,503
1765877527.005663,506
1765877527.006697,508
1765877527.007682,505
1765877527.008716,494
1765877527.009722,487
1765877527.0107121,490
1765877527.011693,492
1765877527.012688,492
1765877527.0136719,491
1765877527.014703,493
1765877527.0157068,496
1765877527.016683,495
1765877527.0177028,494
1765877527.018708,493
1765877527.0197241,494
1765877527.0207229,494
1765877527.021705,495
1765877527.0227048,495
1765877527.023721,495
1765877527.024718,494
1765877527.0257359,498
1765877527.0267332,500
1765877527.027731,501
1765877527.0287302,504
1765877527.0297558,502
1765877527.030745,495
1765877527.0317252,494
1765877527.032753,494
1765877527.0337331,494
1765877527.034814,494
1765877527.035745,492
1765877527.036741,493
1765877527.03778,494
1765877527.03878,494
1765877527.039786,494
1765877527.040789,494
1765877527.041763,495
1765877527.042759,494
1765877527.043759,495
1765877527.04477,496
1765877527.0457962,497
1765877527.0467808,497
1765877527.047779,495
1765877527.048768,495
1765877527.0498,496
1765877527.050782,497
1765877527.0517828,502
1765877527.052781,505
1765877527.053795,508
1765877527.0548081,507
1765877527.055799,495
1765877527.0568252,484
1765877527.057856,494
1765877527.058804,495
1765877527.059802,491
1765877527.0608058,492
1765877527.0618298,492
1765877527.0628312,493
1765877527.063833,494
1765877527.064834,495
1765877527.0658371,495
1765877527.066817,495
1765877527.067848,494
1765877527.068838,494
1765877527.069846,494
1765877527.070834,494
1765877527.071842,494
1765877527.07284,495
1765877527.073846,496
1765877527.0748491,496
1765877527.075864,494
1765877527.07686,494
1765877527.0778508,493
1765877527.078866,495
1765877527.079867,495
1765877527.0808902,494
1765877527.081905,494
1765877527.082888,495
1765877527.08386,494
1765877527.084863,495
1765877527.085865,495
1765877527.086878,495
1765877527.087883,496
1765877527.088896,496
1765877527.08988,495
1765877527.0908911,495
1765877527.091892,495
1765877527.0929,494
1765877527.0939012,495
1765877527.094899,499
1765877527.095925,501
1765877527.096944,502
1765877527.097941,501
1765877527.0989451,496
1765877527.099916,492
1765877527.100915,497
1765877527.101942,499
1765877527.102925,498
1765877527.103932,498
1765877527.1049302,492
1765877527.1059358,489
1765877527.106949,493
1765877527.107946,495
1765877527.1089401,497
1765877527.109951,497
1765877527.110972,499
1765877527.1119459,499
1765877527.11295,498
1765877527.1139688,500
1765877527.1149719,498
1765877527.115974,496
1765877527.1170151,498
1765877527.117973,496
1765877527.1189902,490
1765877527.1199949,492
1765877527.121061,494
1765877527.121991,496
1765877527.122998,499
1765877527.124044,499
1765877527.124995,495
1765877527.126009,493
1765877527.126996,494
1765877527.127991,494
1765877527.129007,494
1765877527.130032,492
1765877527.131006,492
1765877527.132015,493
1765877527.133017,493
1765877527.134005,495
1765877527.135031,494
1765877527.136034,494
1765877527.137012,494
1765877527.138056,495
1765877527.1390321,495
1765877527.140039,495
1765877527.14105,495
1765877527.14205,494
1765877527.143061,494
1765877527.144053,494
1765877527.145061,494
1765877527.146055,495
1765877527.147058,495
1765877527.148053,495
1765877527.1490629,495
1765877527.1500669,495
1765877527.151061,496
1765877527.152062,495
1765877527.153072,495
1765877527.154067,495
1765877527.155073,496
1765877527.156074,496
1765877527.157092,496
1765877527.158092,496
1765877527.1590872,495
1765877527.160106,495
1765877527.161112,499
1765877527.162123,503
1765877527.163141,504
1765877527.164171,508
1765877527.1651552,508
1765877527.166232,500
1765877527.167168,495
1765877527.168152,493
1765877527.169143,491
1765877527.170151,489
1765877527.171158,495
1765877527.1721458,500
1765877527.173135,499
1765877527.174152,501
1765877527.1751502,497
1765877527.176148,494
1765877527.1771588,488
1765877527.1781309,491
1765877527.179168,492
1765877527.1801522,492
1765877527.181155,494
1765877527.182155,493
1765877527.183161,495
1765877527.1841578,495
1765877527.1851661,496
1765877527.186173,496
1765877527.1871932,493
1765877527.1881962,493
1765877527.189172,494
1765877527.1901708,493
1765877527.1912,494
1765877527.1922,494
1765877527.193194,494
1765877527.194201,495
1765877527.195214,495
1765877527.196216,495
1765877527.1972082,494
1765877527.198211,495
1765877527.199203,495
1765877527.200206,494
1765877527.20121,495
1765877527.2022378,494
1765877527.2032251,495
1765877527.204234,495
1765877527.205256,495
1765877527.206302,495
1765877527.207328,495
1765877527.208311,495
1765877527.209265,495
1765877527.2102451,495
1765877527.2112389,495
1765877527.212256,495
1765877527.213254,495
1765877527.2142599,495
1765877527.215243,495
1765877527.2162719,495
1765877527.2172642,496
1765877527.218273,495
1765877527.219257,495
1765877527.2202759,495
1765877527.2212758,495
1765877527.22228,495
1765877527.2232661,495
1765877527.224285,495
1765877527.22527,495
1765877527.226279,495
1765877527.227278,496
1765877527.2283049,496
1765877527.229307,499
1765877527.230293,500
1765877527.2312782,501
1765877527.232314,501
1765877527.233296,500
1765877527.234292,500
1765877527.235303,497
1765877527.2363038,497
1765877527.237312,495
1765877527.2383208,496
1765877527.239316,494
1765877527.240313,491
1765877527.241322,491
1765877527.242322,495
1765877527.2433338,496
1765877527.2443268,496
1765877527.245332,495
1765877527.246328,496
1765877527.247335,495
1765877527.248374,495
1765877527.249376,497
1765877527.2504,497
1765877527.251368,499
1765877527.252346,501
1765877527.2533581,500
1765877527.254379,495
1765877527.255355,495
1765877527.256364,495
1765877527.257377,494
1765877527.258361,496
1765877527.259356,496
1765877527.260383,494
1765877527.261368,496
1765877527.2623801,499
1765877527.2633731,503
1765877527.264395,504
1765877527.265391,504
1765877527.266397,498
1765877527.267387,490
1765877527.268385,491
1765877527.269402,493
1765877527.2704089,493
1765877527.2714171,494
1765877527.272413,495
1765877527.2734132,498
1765877527.274425,498
1765877527.2754061,495
1765877527.27642,495
1765877527.277424,492
1765877527.2784278,493
1765877527.279419,493
1765877527.28042,493
1765877527.2814422,494
1765877527.282441,495
1765877527.283443,495
1765877527.284448,495
1765877527.285446,495
1765877527.286454,494
1765877527.287461,494
1765877527.288455,494
1765877527.2894468,495
1765877527.290574,496
1765877527.291486,496
1765877527.292588,495
1765877527.293449,495
1765877527.294545,496
1765877527.295546,496
1765877527.296538,496
1765877527.2975528,496
1765877527.298539,496
1765877527.299553,495
1765877527.3005388,495
1765877527.3015501,494
1765877527.3025699,493
1765877527.3035488,494
1765877527.304544,495
1765877527.305557,496
1765877527.3065479,496
1765877527.307542,495
1765877527.308545,495
1765877527.3095412,495
1765877527.310551,496
1765877527.3115468,496
1765877527.312544,496
1765877527.313548,496
1765877527.314541,495
1765877527.315562,494
1765877527.3165529,493
1765877527.317548,494
1765877527.318558,496
1765877527.319556,495
1765877527.32055,495
1765877527.321553,495
1765877527.322548,496
1765877527.323581,496
1765877527.324571,496
1765877527.325557,497
1765877527.326554,499
1765877527.3275578,499
1765877527.3285818,494
1765877527.3295832,493
1765877527.33066,493
1765877527.331597,495
1765877527.332594,495
1765877527.3336,494
1765877527.334593,498
1765877527.335594,497
1765877527.3366022,500
1765877527.3375869,503
1765877527.338596,501
1765877527.3396091,498
1765877527.340584,498
1765877527.341604,492
1765877527.342607,489
1765877527.343599,494
1765877527.3446121,495
1765877527.345639,496
1765877527.3466291,500
1765877527.347629,499
1765877527.348624,493
1765877527.349619,495
1765877527.350622,494
1765877527.351614,490
1765877527.3526342,492
1765877527.3536599,494
1765877527.354628,495
1765877527.35565,493
1765877527.3566651,493
1765877527.357641,494
1765877527.358645,495
1765877527.359643,495
1765877527.36065,496
1765877527.3616672,495
1765877527.362664,495
1765877527.363673,497
1765877527.3646631,498
1765877527.365669,499
1765877527.36671,496
1765877527.367669,494
1765877527.368692,495
1765877527.369693,495
1765877527.370699,496
1765877527.37171,495
1765877527.372695,495
1765877527.373753,495
1765877527.374721,496
1765877527.3757162,493
1765877527.3767092,495
