timestamp,emg_value
1765877512.8829,497
1765877512.882913,496
1765877512.882922,495
1765877512.8829298,496
1765877512.8829372,494
1765877512.882946,495
1765877512.882953,496
1765877512.8829598,496
1765877512.882967,496
1765877512.882974,496
1765877512.882981,496
1765877512.8829892,496
1765877512.882996,495
1765877512.883003,495
1765877512.8830101,496
1765877512.883017,497
1765877512.883024,497
1765877512.883033,496
1765877512.88304,495
1765877512.8830469,495
1765877512.883053,494
1765877512.88306,495
1765877512.883067,494
1765877512.883074,493
1765877512.883081,494
1765877512.883095,495
1765877512.883105,495
1765877512.883112,496
1765877512.883119,495
1765877512.883126,495
1765877512.883133,496
1765877512.88314,495
1765877512.883147,495
1765877512.883156,496
1765877512.883163,497
1765877512.8831701,496
1765877512.883177,496
1765877512.8831842,497
1765877512.883191,496
1765877512.883198,496
1765877512.8832052,495
1765877512.883214,496
1765877512.883221,495
1765877512.8832278,495
1765877512.883235,496
1765877512.883242,496
1765877512.8832488,496
1765877512.883256,496
1765877512.8832629,495
1765877512.883271,495
1765877512.8832781,495
1765877512.883285,496
1765877512.883295,497
1765877512.883305,497
1765877512.8833122,497
1765877512.8833191,495
1765877512.883326,493
1765877512.8833332,494
1765877512.8833401,495
1765877512.883347,494
1765877512.8833542,495
1765877512.883361,495
1765877512.883368,495
1765877512.8833752,495
1765877512.883382,496
1765877512.8834188,495
1765877512.8834271,495
1765877512.8834329,496
1765877512.883441,497
1765877512.8834481,499
1765877512.883455,500
1765877512.8834612,503
1765877512.8834682,504
1765877512.883478,498
1765877512.8834848,496
1765877512.8834932,494
1765877512.883502,492
1765877512.883533,491
1765877512.883543,492
1765877512.883553,495
1765877512.88356,495
1765877512.883568,494
1765877512.883575,494
1765877512.8835819,494
1765877512.883589,494
1765877512.883596,495
1765877512.8836029,495
1765877512.88361,496
1765877512.883617,495
1765877512.8836238,495
1765877512.883631,496
1765877512.883638,495
1765877512.883646,496
1765877512.883657,496
1765877512.8836732,495
1765877512.88368,495
1765877512.883688,495
1765877512.8836951,495
1765877512.883702,495
1765877512.883709,495
1765877512.883716,495
1765877512.883723,495
1765877512.88373,495
1765877512.883737,495
1765877512.883744,495
1765877512.883758,495
1765877512.883765,495
1765877512.883772,496
1765877512.883779,495
1765877512.8838148,495
1765877512.883822,495
1765877512.8838289,495
1765877512.883837,495
1765877512.8838441,495
1765877512.883851,495
1765877512.883858,495
1765877512.883866,495
1765877512.883873,495
1765877512.88388,495
1765877512.8838882,495
1765877512.8838952,495
1765877512.8839018,494
1765877512.883911,494
1765877512.883918,494
1765877512.883926,496
1765877512.8839328,497
1765877512.88394,497
1765877512.883947,498
1765877512.8839538,498
1765877512.883977,498
1765877512.8839839,499
1765877512.883997,496
1765877512.884004,493
1765877512.884011,496
1765877512.884019,497
1765877512.884026,496
1765877512.884033,495
1765877512.8840399,494
1765877512.884047,494
1765877512.884054,494
1765877512.8840609,496
1765877512.884068,495
1765877512.884075,496
1765877512.8840818,495
1765877512.884089,495
1765877512.884096,494
1765877512.8841028,494
1765877512.88411,495
1765877512.884117,494
1765877512.8841238,494
1765877512.884131,495
1765877512.884139,495
1765877512.884146,495
1765877512.8841531,495
1765877512.88416,495
1765877512.884167,495
1765877512.884174,495
1765877512.8841841,496
1765877512.884192,496
1765877512.884199,495
1765877512.884206,495
1765877512.884213,495
1765877512.88422,495
1765877512.884227,495
1765877512.884235,496
1765877512.8842418,495
1765877512.884249,495
1765877512.884256,495
1765877512.8842628,495
1765877512.8842702,495
1765877512.884277,495
1765877512.884284,495
1765877512.8842912,495
1765877512.884301,495
1765877512.8843079,495
1765877512.8843148,495
1765877512.8843222,495
1765877512.8843288,495
1765877512.8843362,495
1765877512.8843431,496
1765877512.88435,496
1765877512.8843572,495
1765877512.8843641,496
1765877512.884375,497
1765877512.884383,497
1765877512.8843899,499
1765877512.884397,500
1765877512.884404,500
1765877512.8844109,498
1765877512.884419,501
1765877512.8844259,500
1765877512.8844328,499
1765877512.88444,498
1765877512.8844469,496
1765877512.8844538,491
1765877512.8844612,494
1765877512.884468,495
1765877512.884475,495
1765877512.8844821,495
1765877512.884498,495
1765877512.884505,496
1765877512.884516,495
1765877512.884523,493
1765877512.8845298,493
1765877512.8845382,495
1765877512.884545,495
1765877512.884552,496
1765877512.8845592,495
1765877512.884566,496
1765877512.884576,495
1765877512.884584,495
1765877512.884592,495
1765877512.884599,494
1765877512.884606,494
1765877512.884613,494
1765877512.88462,495
1765877512.8846269,494
1765877512.884634,495
1765877512.884641,495
1765877512.884649,495
1765877512.8846562,495
1765877512.884663,494
1765877512.88467,495
1765877512.8846772,495
1765877512.884684,495
1765877512.884691,495
1765877512.8846982,495
1765877512.884705,494
1765877512.884712,494
1765877512.8847191,494
1765877512.884725,495
1765877512.884732,496
1765877512.8847392,495
1765877512.884747,495
1765877512.884754,495
1765877512.884761,494
1765877512.884777,496
1765877512.884794,495
1765877512.884806,495
1765877512.8848178,496
1765877512.8848279,495
1765877512.8848379,495
1765877512.884845,495
1765877512.884852,495
1765877512.8848588,495
1765877512.884866,495
1765877512.884873,495
1765877512.8848798,495
1765877512.884887,495
1765877512.884894,495
1765877512.884901,495
1765877512.8849092,495
1765877512.884917,495
1765877512.884924,495
1765877512.884931,494
1765877512.884938,495
1765877512.884945,495
1765877512.884952,494
1765877512.884959,495
1765877512.884966,494
1765877512.884973,495
1765877512.884981,495
1765877512.884994,495
1765877512.885002,495
1765877512.8850088,495
1765877512.885016,496
1765877512.8850229,495
1765877512.8850298,496
1765877512.885037,496
1765877512.8850439,496
1765877512.8850508,495
1765877512.8850582,495
1765877512.885066,494
1765877512.885073,494
1765877512.88508,495
1765877512.885087,495
1765877512.885094,496
1765877512.885101,497
1765877512.885109,497
1765877512.885118,497
1765877512.8851259,496
1765877512.885133,493
1765877512.885141,495
1765877512.885149,495
1765877512.8851562,494
1765877512.885163,494
1765877512.88517,496
1765877512.8851771,495
1765877512.885189,496
1765877512.885198,495
1765877512.885205,494
1765877512.885212,495
1765877512.885219,495
1765877512.885225,495
1765877512.8852322,496
1765877512.885238,496
1765877512.885244,496
1765877512.885251,496
1765877512.885257,496
1765877512.885264,494
1765877512.88527,494
1765877512.885277,495
1765877512.885283,496
1765877512.885289,496
1765877512.885296,495
1765877512.885303,495
1765877512.885309,492
1765877512.8853161,493
1765877512.885322,494
1765877512.8853278,494
1765877512.885335,494
1765877512.885341,494
1765877512.885348,494
1765877512.885354,494
1765877512.885361,496
1765877512.8853729,495
1765877512.88538,494
1765877512.885386,494
1765877512.885393,496
1765877512.885399,496
1765877512.885406,495
1765877512.885412,494
1765877512.885418,495
1765877512.8854249,494
1765877512.885432,495
1765877512.885438,495
1765877512.885445,496
1765877512.885451,496
1765877512.8854568,496
1765877512.885464,497
1765877512.88547,498
1765877512.885476,497
1765877512.885483,497
1765877512.885489,496
1765877512.8854961,494
1765877512.8855019,491
1765877512.885509,493
1765877512.885515,494
1765877512.885522,495
1765877512.885528,495
1765877512.885535,495
1765877512.885545,494
1765877512.8855522,495
1765877512.885559,496
1765877512.885566,495
1765877512.8855722,495
1765877512.885579,495
1765877512.8855848,495
1765877512.885592,494
1765877512.885599,495
1765877512.885605,495
1765877512.885611,495
1765877512.885618,495
1765877512.8856242,494
1765877512.885631,494
1765877512.885637,495
1765877512.885644,496
1765877512.8856509,496
1765877512.885657,496
1765877512.885663,496
1765877512.88567,494
1765877512.8856761,494
1765877512.885683,494
1765877512.885689,494
1765877512.885696,495
1765877512.885702,496
1765877512.885708,496
1765877512.8857212,496
1765877512.88573,495
1765877512.885736,495
1765877512.8857431,494
1765877512.885749,494
1765877512.8857548,495
1765877512.885762,494
1765877512.885769,494
1765877512.885775,495
1765877512.885781,495
1765877512.885788,495
1765877512.885795,495
1765877512.885801,495
1765877512.8858082,494
1765877512.885814,495
1765877512.88582,494
1765877512.885827,495
1765877512.885833,495
1765877512.88584,495
1765877512.885846,494
1765877512.8858528,495
1765877512.885859,495
1765877512.885866,495
1765877512.8858721,495
1765877512.885878,495
1765877512.885885,496
1765877512.8858938,498
1765877512.8859031,499
1765877512.885909,499
1765877512.885916,498
1765877512.885922,496
1765877512.885928,494
1765877512.885935,492
1765877512.885942,494
1765877512.885949,494
1765877512.885955,494
1765877512.885962,494
1765877512.885968,494
1765877512.8859751,494
1765877512.8859808,493
1765877512.885987,494
1765877512.885994,494
1765877512.8860002,495
1765877512.886007,495
1765877512.886013,495
1765877512.8860202,495
1765877512.886026,494
1765877512.8860328,495
1765877512.886039,495
1765877512.886045,494
1765877512.8860521,495
1765877512.886058,495
1765877512.886065,495
1765877512.8860748,495
1765877512.8860831,495
1765877512.8860888,494
1765877512.8860958,494
1765877512.886102,495
1765877512.886108,495
1765877512.886115,495
1765877512.886121,496
1765877512.8861282,495
1765877512.886134,495
1765877512.8861408,495
1765877512.886147,495
1765877512.886154,495
1765877512.8861609,494
1765877512.886167,494
1765877512.886174,494
1765877512.8861802,494
1765877512.886187,495
1765877512.8861928,496
1765877512.8862,496
1765877512.886206,497
1765877512.886213,496
1765877512.886219,495
1765877512.886225,494
1765877512.8862321,495
1765877512.8862379,495
1765877512.886249,494
1765877512.886258,496
1765877512.886264,496
1765877512.886271,496
1765877512.8862772,495
1765877512.886284,496
1765877512.8862898,493
1765877512.886297,494
1765877512.886303,494
1765877512.8863091,495
1765877512.886316,495
1765877512.886322,495
1765877512.8863292,495
1765877512.886336,495
1765877512.8863418,495
1765877512.886348,495
1765877512.886355,495
1765877512.8863611,495
1765877512.886368,495
1765877512.886374,495
1765877512.8863811,496
1765877512.8863869,498
1765877512.886393,499
1765877512.8864,499
1765877512.886406,496
1765877512.886413,490
1765877512.886419,493
1765877512.886443,495
1765877512.8864498,496
1765877512.886456,496
1765877512.886463,495
1765877512.8864691,495
1765877512.886476,493
1765877512.886482,494
1765877512.886488,494
1765877512.8864949,494
1765877512.886501,494
1765877512.886508,495
1765877512.886514,495
1765877512.886521,495
1765877512.886527,495
1765877512.886534,496
1765877512.88654,496
1765877512.886548,496
1765877512.886555,494
1765877512.886562,495
1765877512.8865678,496
1765877512.886574,496
1765877512.886581,496
1765877512.886587,497
1765877512.886594,497
1765877512.8866,497
1765877512.8866072,496
1765877512.886622,493
1765877512.886629,493
1765877512.886636,493
1765877512.886642,494
1765877512.8866491,495
1765877512.886655,494
1765877512.886662,494
1765877512.886668,495
1765877512.886674,495
1765877512.886681,495
1765877512.886688,495
1765877512.886694,495
1765877512.886701,495
1765877512.8867068,496
1765877512.8867142,496
1765877512.88672,495
1765877512.886726,495
1765877512.886733,495
1765877512.88674,494
1765877512.8867462,494
1765877512.886752,494
1765877512.8867588,495
1765877512.8867662,495
1765877512.886772,495
1765877512.8867788,494
1765877512.886785,494
1765877512.886794,494
1765877512.886801,494
1765877512.8868082,494
1765877512.8868139,495
1765877512.886821,494
1765877512.886827,495
1765877512.886833,495
1765877512.88684,495
1765877512.886846,495
1765877512.8868532,495
1765877512.8868601,495
1765877512.8868659,496
1765877512.886873,496
1765877512.886879,496
1765877512.886886,497
1765877512.886892,498
1765877512.8868978,498
1765877512.8869052,497
1765877512.886911,497
1765877512.8869178,497
1765877512.886924,497
1765877512.886931,498
1765877512.8869371,498
1765877512.8869429,498
1765877512.8869498,495
1765877512.886956,492
1765877512.886965,494
1765877512.886973,494
1765877512.88698,496
1765877512.886986,496
1765877512.886992,495
1765877512.8869991,495
1765877512.8870049,496
1765877512.887011,495
1765877512.887018,495
1765877512.8870242,495
1765877512.887031,495
1765877512.887037,496
1765877512.8870442,497
1765877512.88705,500
1765877512.8870559,499
1765877512.887063,498
1765877512.887069,496
1765877512.8870752,495
1765877512.887082,493
1765877512.887088,494
1765877512.887095,494
1765877512.887101,493
1765877512.8871071,494
1765877512.887114,494
1765877512.887121,494
1765877512.887127,493
1765877512.887136,494
1765877512.887145,494
1765877512.887151,495
1765877512.887157,495
1765877512.8871639,495
1765877512.887172,495
1765877512.88718,495
1765877512.887188,495
1765877512.8871942,495
1765877512.887199,495
1765877512.8872051,494
1765877512.88721,495
1765877512.8872151,495
1765877512.88722,494
1765877512.8872252,495
1765877512.887232,495
1765877512.887239,495
1765877512.887245,495
1765877512.88725,495
1765877512.887255,496
1765877512.88726,496
1765877512.887265,495
1765877512.887271,494
1765877512.887276,495
1765877512.887281,495
1765877512.8872871,495
1765877512.887292,495
1765877512.8873,495
1765877512.887306,495
1765877512.887313,495
1765877512.88732,495
1765877512.887326,495
1765877512.887331,494
1765877512.887336,494
1765877512.887341,494
1765877512.887347,495
1765877512.887352,494
1765877512.887359,494
1765877512.887365,494
1765877512.887372,495
1765877512.8873768,495
1765877512.887382,496
1765877512.887388,497
1765877512.887393,498
1765877512.887398,498
1765877512.887403,497
1765877512.887409,492
1765877512.887414,495
1765877512.887419,495
1765877512.887425,494
1765877512.88743,495
1765877512.887436,495
1765877512.887441,496
1765877512.887446,495
1765877512.887455,497
1765877512.8874612,495
1765877512.887467,494
1765877512.8874722,494
1765877512.887478,494
1765877512.887483,494
1765877512.887488,494
1765877512.8874938,494
1765877512.887499,494
1765877512.8875039,494
1765877512.88751,494
1765877512.8875148,495
1765877512.887521,496
1765877512.8875258,497
1765877512.887531,497
1765877512.887536,497
1765877512.887542,495
1765877512.8875468,495
1765877512.887553,493
1765877512.887558,493
1765877512.887563,492
1765877512.887569,493
1765877512.887574,496
1765877512.887579,496
1765877512.887585,496
1765877512.88759,496
1765877512.887597,495
1765877512.887603,496
1765877512.887609,494
1765877512.887614,495
1765877512.887619,495
1765877512.887625,494
1765877512.88763,494
1765877512.887635,495
1765877512.8876412,495
1765877512.887646,494
1765877512.887651,494
1765877512.887657,495
1765877512.8876622,495
1765877512.887668,496
1765877512.8876748,496
1765877512.8876832,496
1765877512.8876889,494
1765877512.887695,493
1765877512.887701,493
1765877512.887709,494
1765877512.887716,495
1765877512.887723,495
1765877512.887729,495
1765877512.8877351,495
1765877512.8877409,495
1765877512.887747,494
1765877512.887753,495
1765877512.88776,495
1765877512.887767,495
1765877512.887773,494
1765877512.887779,494
1765877512.887785,495
1765877512.8877912,495
1765877512.8877969,495
1765877512.8878021,495
1765877512.887808,496
1765877512.8878138,496
1765877512.88782,496
1765877512.887826,496
1765877512.8878322,497
1765877512.887837,497
1765877512.8878431,496
1765877512.8878489,495
1765877512.887855,496
1765877512.887861,496
1765877512.887867,495
1765877512.887873,494
1765877512.887879,494
1765877512.8878841,494
1765877512.8878899,494
1765877512.887897,495
1765877512.887904,495
1765877512.887912,495
1765877512.887918,495
1765877512.887925,494
1765877512.887933,495
1765877512.887938,495
1765877512.887946,495
1765877512.8879528,495
1765877512.88796,495
1765877512.887965,495
1765877512.8879712,495
1765877512.887977,497
1765877512.887983,496
1765877512.887989,495
1765877512.8879948,494
1765877512.888001,494
1765877512.888006,494
1765877512.888012,495
1765877512.888018,495
1765877512.888024,497
1765877512.88803,498
1765877512.888036,498
1765877512.888043,496
1765877512.8880498,493
1765877512.8880582,492
1765877512.888064,493
1765877512.8880699,494
1765877512.888076,494
1765877512.888082,494
1765877512.888088,495
1765877512.888095,495
1765877512.888103,495
1765877512.888108,495
1765877512.888115,495
1765877512.888122,496
1765877512.888128,496
1765877512.888134,495
1765877512.888139,494
1765877512.888145,494
1765877512.8881521,494
1765877512.88816,494
1765877512.888166,494
1765877512.8881721,495
1765877512.8881779,495
1765877512.888184,495
1765877512.8881888,495
1765877512.888195,495
1765877512.888202,495
1765877512.8882089,495
1765877512.888215,495
1765877512.888221,495
1765877512.888227,495
1765877512.888233,495
1765877512.8882592,496
1765877512.888267,496
1765877512.888274,495
1765877512.8882802,494
1765877512.888289,495
1765877512.888298,495
1765877512.8883042,495
1765877512.8883111,495
1765877512.8883169,495
1765877512.888322,495
1765877512.8883278,495
1765877512.888333,495
1765877512.8883379,495
1765877512.888343,495
1765877512.8883488,494
1765877512.8883562,495
1765877512.888362,496
1765877512.8883681,495
1765877512.888373,495
1765877512.8883789,495
1765877512.888384,495
1765877512.8883898,494
1765877512.888396,494
1765877512.888403,496
1765877512.888408,496
1765877512.888414,496
1765877512.88842,496
1765877512.8884249,495
1765877512.88843,493
1765877512.888436,495
1765877512.8884459,495
1765877512.888453,494
1765877512.888458,495
1765877512.888463,494
1765877512.888468,494
1765877512.8884742,495
1765877512.888501,494
1765877512.888507,495
1765877512.888512,495
1765877512.8885179,495
1765877512.888523,495
1765877512.8885279,495
1765877512.888534,495
1765877512.8885388,495
1765877512.888545,495
1765877512.8885498,495
1765877512.888555,495
1765877512.888561,494
1765877512.888566,495
1765877512.888572,495
1765877512.888577,495
1765877512.888582,494
1765877512.888587,494
1765877512.888593,495
1765877512.888598,495
1765877512.888604,496
1765877512.888609,495
1765877512.888618,495
1765877512.888625,495
1765877512.888631,495
1765877512.8886359,494
1765877512.888643,494
1765877512.888649,494
1765877512.8886552,495
1765877512.88866,496
1765877512.8886662,496
1765877512.888672,497
1765877512.888679,497
1765877512.888684,497
1765877512.88869,497
1765877512.888696,496
1765877512.888702,495
1765877512.888708,495
1765877512.888714,495
1765877512.8887198,495
1765877512.888726,495
1765877512.888732,495
1765877512.8887382,495
1765877512.8887439,495
1765877512.88875,495
1765877512.888756,495
1765877512.888762,495
1765877512.888768,495
1765877512.888777,495
1765877512.888785,495
1765877512.888791,496
1765877512.888797,495
1765877512.888803,496
1765877512.888808,496
1765877512.888814,495
1765877512.88882,495
1765877512.8888261,495
1765877512.888832,495
1765877512.8888378,495
1765877512.888844,496
1765877512.88885,496
1765877512.8888562,496
1765877512.888862,495
1765877512.888868,494
1765877512.888874,495
1765877512.888886,495
1765877512.888892,494
1765877512.8888981,495
1765877512.888905,494
1765877512.888911,495
1765877512.888916,495
1765877512.8889222,496
1765877512.888928,495
1765877512.888934,495
1765877512.88894,495
1765877512.88895,495
1765877512.8889558,495
1765877512.888962,496
1765877512.888968,496
1765877512.8889742,495
1765877512.88898,494
1765877512.888986,494
1765877512.888992,495
1765877512.8889978,494
1765877512.889004,495
1765877512.88901,496
1765877512.8890162,495
1765877512.8890219,496
1765877512.889028,495
1765877512.889034,495
1765877512.8890398,495
1765877512.889046,495
1765877512.889052,495
1765877512.889059,495
1765877512.889067,495
1765877512.8890738,495
1765877512.889079,495
1765877512.8890848,495
1765877512.889091,496
1765877512.889098,496
1765877512.889104,497
1765877512.889111,497
1765877512.889119,496
1765877512.889125,496
1765877512.889131,496
1765877512.889138,496
1765877512.8891442,496
1765877512.88915,496
1765877512.889156,496
1765877512.889162,496
1765877512.8891678,497
1765877512.889174,496
1765877512.88918,496
1765877512.889187,496
1765877512.889193,495
1765877512.889199,496
1765877512.889205,495
1765877512.889211,496
1765877512.8892632,495
1765877512.889271,495
1765877512.889287,495
1765877512.889312,495
1765877512.889319,495
1765877512.8893251,496
1765877512.8893309,497
1765877512.889337,497
1765877512.889343,495
1765877512.8893492,495
1765877512.889358,495
1765877512.889365,494
1765877512.889371,495
1765877512.889376,495
1765877512.889382,495
1765877512.889388,495
1765877512.8893938,495
1765877512.8894,495
1765877512.889407,495
1765877512.889413,495
1765877512.889419,495
1765877512.8894248,495
1765877512.889445,495
1765877512.889455,495
1765877512.889462,495
1765877512.889469,495
1765877512.889475,495
1765877512.889481,495
1765877512.889487,495
1765877512.889494,495
1765877512.8895,495
1765877512.889506,496
1765877512.8895118,495
1765877512.889518,495
1765877512.889524,495
1765877512.8895302,495
1765877512.889539,496
1765877512.889546,496
1765877512.8895519,496
1765877512.889559,496
1765877512.889565,496
1765877512.8895712,495
1765877512.889577,496
1765877512.889583,495
1765877512.889589,495
1765877512.8895948,495
1765877512.889601,495
1765877512.889607,495
1765877512.889614,495
1765877512.88962,495
1765877512.889626,495
1765877512.889632,495
1765877512.889638,495
1765877512.8896441,495
1765877512.889651,494
1765877512.889657,495
1765877512.8896651,494
1765877512.8896708,495
1765877512.889678,495
1765877512.889685,496
1765877512.8896909,495
1765877512.889697,495
1765877512.8897028,495
1765877512.889712,495
1765877512.889719,494
1765877512.889725,495
1765877512.8897312,495
1765877512.889736,495
1765877512.8897421,495
1765877512.889749,495
1765877512.8897548,495
1765877512.88976,495
1765877512.889766,495
1765877512.889772,495
1765877512.889778,495
1765877512.889784,495
1765877512.88979,495
1765877512.889796,495
1765877512.889802,495
1765877512.889808,495
1765877512.889814,495
1765877512.889819,495
1765877512.889826,495
1765877512.8898308,495
1765877512.889837,495
1765877512.889842,495
1765877512.889847,495
1765877512.889853,495
1765877512.889859,495
1765877512.889868,495
1765877512.889876,496
1765877512.889884,495
1765877512.8898911,495
1765877512.8898969,496
1765877512.889903,495
1765877512.889909,495
1765877512.889915,494
1765877512.889921,494
1765877512.8899279,494
1765877512.889935,495
1765877512.889942,495
1765877512.88995,495
1765877512.8899572,495
1765877512.889964,495
1765877512.8899698,495
1765877512.889976,495
1765877512.889982,495
1765877512.8899891,495
1765877512.889996,495
1765877512.890003,495
1765877512.8900108,495
1765877512.890018,495
1765877512.890025,496
1765877512.890031,496
1765877512.890037,495
1765877512.8900428,494
1765877512.89005,494
1765877512.8900568,495
1765877512.8900638,494
1765877512.8900712,495
1765877512.890079,495
1765877512.890086,495
1765877512.890094,495
1765877512.8901,495
1765877512.8901062,495
1765877512.890112,495
1765877512.890118,495
1765877512.890124,495
1765877512.8901298,494
1765877512.890136,495
1765877512.890143,494
1765877512.890149,494
1765877512.890155,495
1765877512.8901608,495
1765877512.8901892,495
1765877512.890196,496
1765877512.890202,496
1765877512.890208,495
1765877512.8902311,495
1765877512.890238,496
1765877512.890244,495
1765877512.89025,495
1765877512.890256,495
1765877512.890264,495
1765877512.890271,494
1765877512.8902771,495
1765877512.890283,495
1765877512.8902888,495
1765877512.890295,495
1765877512.890301,495
1765877512.8903072,495
1765877512.890313,495
1765877512.890319,494
1765877512.89036,495
1765877512.89039,495
1765877512.8904572,494
1765877512.890465,494
1765877512.890471,494
1765877512.890477,495
1765877512.890483,495
1765877512.89049,495
1765877512.8904982,495
1765877512.890505,495
1765877512.890513,495
1765877512.89052,496
1765877512.890528,495
1765877512.8905349,496
1765877512.8905432,495
1765877512.89055,495
1765877512.8905568,495
1765877512.89057,495
1765877512.8905768,494
1765877512.890621,495
1765877512.890644,494
1765877512.890651,495
1765877512.890657,494
1765877512.890663,495
1765877512.890669,495
1765877512.8906748,495
1765877512.890681,495
1765877512.890687,495
1765877512.8906932,495
1765877512.890699,495
1765877512.8907058,495
1765877512.8907142,495
1765877512.890721,494
1765877512.890729,495
1765877512.8907368,496
1765877512.8907561,495
1765877512.890764,496
1765877512.8907719,495
1765877512.89078,495
1765877512.8907871,495
1765877512.890794,495
1765877512.890801,495
1765877512.890809,495
1765877512.890819,495
1765877512.890827,495
1765877512.8908339,495
1765877512.8908422,495
1765877512.890849,495
1765877512.890856,495
1765877512.8908632,495
1765877512.89087,495
1765877512.890877,495
1765877512.890883,495
1765877512.890889,495
1765877512.8908951,495
1765877512.890902,495
1765877512.890909,495
1765877512.890917,496
1765877512.890924,495
1765877512.891011,496
1765877512.891018,495
1765877512.8910239,495
1765877512.89103,495
1765877512.891042,495
1765877512.89105,494
1765877512.891058,495
1765877512.8910651,495
1765877512.891073,495
1765877512.89108,495
1765877512.8910878,495
1765877512.891096,495
1765877512.8911018,495
1765877512.891108,495
1765877512.891113,495
1765877512.891119,495
1765877512.891124,494
1765877512.891129,495
1765877512.891134,495
1765877512.89114,495
1765877512.891145,495
1765877512.8911512,495
1765877512.891157,495
1765877512.8911622,495
1765877512.891168,495
1765877512.8911731,495
1765877512.891179,495
1765877512.891184,495
1765877512.89119,494
1765877512.8911948,495
1765877512.891201,495
1765877512.8912058,495
1765877512.891212,495
1765877512.891218,495
1765877512.891225,495
1765877512.891231,495
1765877512.891236,495
1765877512.891243,495
1765877512.891249,495
1765877512.891254,495
1765877512.89126,495
1765877512.891265,495
1765877512.8912709,494
1765877512.8912761,495
1765877512.8912818,495
1765877512.891287,495
1765877512.8912919,495
1765877512.891298,495
1765877512.8913028,495
1765877512.891308,495
1765877512.8913128,495
1765877512.891319,495
1765877512.8913238,495
1765877512.891329,495
1765877512.8913338,494
1765877512.89134,495
1765877512.8913448,495
1765877512.89135,495
1765877512.8913548,495
1765877512.891361,494
1765877512.891366,495
1765877512.891371,495
1765877512.891376,495
1765877512.891385,495
1765877512.891393,495
1765877512.891399,495
1765877512.891405,495
1765877512.8914108,494
1765877512.891416,495
1765877512.891423,495
1765877512.89143,495
1765877512.891435,495
1765877512.891443,495
1765877512.8914502,495
1765877512.891458,495
1765877512.891465,495
1765877512.8914728,494
1765877512.89148,494
1765877512.891487,495
1765877512.891495,495
1765877512.891503,496
1765877512.891511,495
1765877512.8915179,496
1765877512.891526,495
1765877512.891534,495
1765877512.891541,495
1765877512.891548,495
1765877512.891555,495
1765877512.891562,495
1765877512.891567,495
1765877512.891576,495
1765877512.891582,495
1765877512.8915892,495
1765877512.891596,495
1765877512.891604,496
1765877512.8916118,496
1765877512.891619,495
1765877512.891626,495
1765877512.891634,495
1765877512.891642,495
1765877512.891648,495
1765877512.891653,495
1765877512.891659,495
1765877512.891665,494
1765877512.8916721,495
1765877512.891679,495
1765877512.891687,495
1765877512.891693,495
1765877512.8916988,495
1765877512.891705,496
1765877512.891711,495
1765877512.8917189,496
1765877512.891726,495
1765877512.891732,495
1765877512.8917382,495
1765877512.891744,495
1765877512.891752,495
1765877512.89176,495
1765877512.891767,495
1765877512.891775,496
1765877512.891784,495
1765877512.891793,496
1765877512.8918211,496
1765877512.8918269,495
1765877512.891833,495
1765877512.891839,496
1765877512.8918452,496
1765877512.89185,497
1765877512.891856,496
1765877512.891862,496
1765877512.8918679,496
1765877512.891874,496
1765877512.891881,496
1765877512.8918889,497
1765877512.891895,496
1765877512.891902,496
1765877512.891907,496
1765877512.891914,496
1765877512.8919199,496
1765877512.891926,495
1765877512.8919308,496
1765877512.891936,497
1765877512.891943,495
1765877512.891949,495
1765877512.891954,495
1765877512.891959,495
1765877512.891965,495
1765877512.8919702,495
1765877512.8919759,495
1765877512.891983,495
1765877512.89199,495
1765877512.8919969,495
1765877512.892004,496
1765877512.892011,496
1765877512.8920178,496
1765877512.892025,495
1765877512.892033,496
1765877512.89204,495
1765877512.8920472,495
1765877512.892054,495
1765877512.892062,495
1765877512.892069,494
1765877512.892075,495
1765877512.892083,496
1765877512.89209,495
1765877512.892096,495
1765877512.892102,495
1765877512.8921092,495
1765877512.892118,495
1765877512.8921258,495
1765877512.8921332,495
1765877512.892141,495
1765877512.8921459,495
1765877512.892152,495
1765877512.892159,495
1765877512.8921652,496
1765877512.892171,495
1765877512.8921778,495
1765877512.892185,496
1765877512.892192,496
1765877512.8921978,496
1765877512.892205,496
1765877512.892212,495
1765877512.8922188,495
1765877512.892226,495
1765877512.892234,495
1765877512.892241,496
1765877512.892247,495
1765877512.8922539,495
1765877512.8922591,495
1765877512.8922648,495
1765877512.892271,495
1765877512.892277,495
1765877512.892282,495
1765877512.892287,495
1765877512.8922958,495
1765877512.892302,495
1765877512.892308,495
1765877512.892315,495
1765877512.89232,495
1765877512.8923252,495
1765877512.8923311,495
1765877512.8923361,496
1765877512.892342,495
1765877512.892349,495
1765877512.892357,496
1765877512.892365,496
1765877512.892372,495
1765877512.89238,495
1765877512.8923872,496
1765877512.892395,495
1765877512.892402,495
1765877512.892409,495
1765877512.892415,495
1765877512.89242,495
1765877512.892426,495
1765877512.892432,496
1765877512.8924391,495
1765877512.892446,496
1765877512.892452,496
1765877512.892459,496
1765877512.8924701,496
1765877512.892478,496
1765877512.8924851,496
1765877512.892493,495
1765877512.8925009,495
1765877512.8925078,495
1765877512.8925152,496
1765877512.892523,496
1765877512.892529,495
1765877512.892535,496
1765877512.892541,495
1765877512.8925471,495
1765877512.8925529,495
1765877512.892559,495
1765877512.892565,495
1765877512.89257,495
1765877512.8925781,495
1765877512.892585,495
1765877512.892591,495
1765877512.892597,495
1765877512.892603,495
1765877512.8926091,496
1765877512.8926148,495
1765877512.892621,495
1765877512.892627,495
1765877512.8926332,495
1765877512.892642,496
1765877512.892648,495
1765877512.8926542,495
1765877512.892662,495
1765877512.892669,495
1765877512.892677,496
1765877512.892684,496
1765877512.892691,496
1765877512.892698,496
1765877512.892705,496
1765877512.892711,496
1765877512.8927171,495
1765877512.8927228,496
1765877512.892729,495
1765877512.892735,495
1765877512.8927412,495
1765877512.892747,495
1765877512.8927538,495
1765877512.89276,496
1765877512.892766,495
1765877512.8927722,495
1765877512.892777,495
1765877512.892782,495
1765877512.892788,495
1765877512.8927932,495
1765877512.892799,495
1765877512.8928058,495
1765877512.892812,495
1765877512.892818,495
1765877512.892823,495
1765877512.892829,495
1765877512.892834,496
1765877512.89284,495
1765877512.892847,495
1765877512.892853,495
1765877512.892859,495
1765877512.892865,495
1765877512.892871,496
1765877512.892877,495
1765877512.892883,495
1765877512.892889,495
1765877512.892896,495
1765877512.892902,496
1765877512.892908,495
1765877512.8929138,495
1765877512.89292,495
1765877512.892926,495
1765877512.8929331,495
1765877512.89294,494
1765877512.892946,495
1765877512.892954,496
1765877512.892962,495
1765877512.892971,495
1765877512.892979,495
1765877512.892985,495
1765877512.892991,496
1765877512.892997,495
1765877512.893003,494
1765877512.893009,494
1765877512.8930151,494
1765877512.893023,495
1765877512.89303,496
1765877512.893037,496
1765877512.893043,496
1765877512.8930502,495
1765877512.893055,495
1765877512.8930612,495
1765877512.893068,495
1765877512.8930728,495
1765877512.893079,495
1765877512.893085,495
1765877512.893091,495
1765877512.893097,495
1765877512.8931031,495
1765877512.893109,495
1765877512.8931148,495
1765877512.893122,496
1765877512.893128,496
1765877512.893134,496
1765877512.893143,496
1765877512.893149,495
1765877512.893155,496
1765877512.893161,495
1765877512.893167,495
1765877512.893173,495
1765877512.893179,495
1765877512.8931851,495
1765877512.8931909,495
1765877512.893198,495
1765877512.893204,495
1765877512.8932102,495
1765877512.893216,495
1765877512.8932219,495
1765877512.893228,496
1765877512.893234,494
1765877512.8932412,496
1765877512.893247,496
1765877512.893253,496
1765877512.893259,497
1765877512.8932638,496
1765877512.893271,495
1765877512.893277,495
1765877512.8932831,495
1765877512.8932889,495
1765877512.8932962,495
1765877512.893305,495
1765877512.893311,495
1765877512.893319,496
1765877512.893326,495
1765877512.893334,495
1765877512.8933399,496
1765877512.893346,495
1765877512.893352,495
1765877512.893357,496
1765877512.893364,495
1765877512.8933702,495
1765877512.893376,495
1765877512.8933818,495
1765877512.893389,496
1765877512.893396,494
1765877512.893402,495
1765877512.893408,495
1765877512.8934138,495
1765877512.89342,496
1765877512.893426,495
1765877512.893434,495
1765877512.893441,494
1765877512.893449,495
1765877512.893456,494
1765877512.893464,494
1765877512.893471,495
1765877512.893482,495
1765877512.893489,496
1765877512.893495,495
1765877512.8934999,496
1765877512.893506,495
1765877512.893512,495
1765877512.893518,496
1765877512.893525,494
1765877512.8935308,495
1765877512.893537,495
1765877512.893543,496
1765877512.893549,496
1765877512.893555,496
1765877512.8935611,495
1765877512.893567,496
1765877512.893573,496
1765877512.893579,496
1765877512.893585,496
1765877512.893591,496
1765877512.893597,495
1765877512.893603,495
1765877512.893609,495
1765877512.893615,496
1765877512.893621,496
1765877512.893627,495
1765877512.8936331,495
1765877512.893643,495
1765877512.8936498,495
1765877512.893656,495
1765877512.893663,495
1765877512.8936691,495
1765877512.893675,495
1765877512.8936808,497
1765877512.893687,496
1765877512.893693,496
1765877512.8937001,496
1765877512.893707,494
1765877512.893714,495
1765877512.893721,495
1765877512.893727,495
1765877512.893733,495
1765877512.893739,495
1765877512.893746,495
1765877512.893753,494
1765877512.89376,495
1765877512.8937669,495
1765877512.893774,495
1765877512.893781,496
1765877512.8937862,495
1765877512.893791,495
1765877512.8937962,496
1765877512.893801,495
1765877512.8938081,495
1765877512.893815,495
1765877512.8938198,495
1765877512.893825,495
1765877512.893831,495
1765877512.893836,496
1765877512.8939352,495
1765877512.893942,495
1765877512.8939478,495
1765877512.893955,495
1765877512.893961,495
1765877512.8939672,495
1765877512.8939729,495
1765877512.893978,495
1765877512.893985,494
1765877512.893991,495
1765877512.893997,495
1765877512.894003,495
1765877512.894009,496
1765877512.894015,495
1765877512.894021,494
1765877512.894027,494
1765877512.894033,494
1765877512.8940392,495
1765877512.8940449,495
1765877512.894051,495
1765877512.894059,495
1765877512.8940659,496
1765877512.894072,495
1765877512.894078,495
1765877512.8940842,495
1765877512.89409,495
1765877512.894096,495
1765877512.894102,495
1765877512.8941078,495
1765877512.894114,495
1765877512.894119,495
1765877512.894125,495
1765877512.894131,495
1765877512.8941371,495
1765877512.894144,495
1765877512.894151,495
1765877512.894156,495
1765877512.894162,495
1765877512.8941681,495
1765877512.8941739,496
1765877512.894179,496
1765877512.894185,497
1765877512.894191,497
1765877512.894197,497
1765877512.894202,497
1765877512.894208,496
1765877512.894214,496
1765877512.894224,495
1765877512.894231,494
1765877512.894238,495
1765877512.8942451,496
1765877512.894253,497
1765877512.89426,496
1765877512.8942668,497
1765877512.894273,494
1765877512.894279,495
1765877512.894285,495
1765877512.894291,495
1765877512.8942971,495
1765877512.894303,495
1765877512.894311,495
1765877512.894318,495
1765877512.894324,495
1765877512.89433,495
1765877512.894336,494
1765877512.894342,494
1765877512.8943481,495
1765877512.8943539,495
1765877512.89436,494
1765877512.894366,495
1765877512.894372,495
1765877512.894377,495
1765877512.8943832,495
1765877512.894392,495
1765877512.894398,495
1765877512.8944042,495
1765877512.89441,495
1765877512.8944159,495
1765877512.894474,496
1765877512.894486,495
1765877512.894492,495
1765877512.894498,495
1765877512.8945038,495
1765877512.8945112,495
1765877512.894518,495
1765877512.8945239,495
1765877512.89453,494
1765877512.894537,495
1765877512.894544,495
1765877512.894551,495
1765877512.894558,495
1765877512.894565,495
1765877512.894572,495
1765877512.894579,495
1765877512.8945851,495
1765877512.894591,495
1765877512.894596,495
1765877512.894602,495
1765877512.8946078,495
1765877512.8946161,495
1765877512.8946218,494
1765877512.894628,494
1765877512.894634,495
1765877512.8946402,495
1765877512.894645,495
1765877512.894651,495
1765877512.8946571,495
1765877512.8946629,495
1765877512.894668,495
1765877512.8946738,495
1765877512.89468,495
1765877512.894685,496
1765877512.89469,496
1765877512.894696,496
1765877512.894701,495
1765877512.894706,495
1765877512.894711,495
1765877512.894718,494
1765877512.8947241,494
1765877512.89473,495
1765877512.8947358,496
1765877512.894743,494
1765877512.894751,495
1765877512.894758,496
1765877512.8947651,495
1765877512.894772,495
1765877512.89478,496
1765877512.894785,496
1765877512.894791,497
1765877512.8947961,496
1765877512.894801,495
1765877512.894807,495
1765877512.8948119,495
1765877512.894817,494
1765877512.894822,494
1765877512.894828,494
1765877512.8948328,494
1765877512.894838,495
1765877512.8948438,495
1765877512.894849,495
1765877512.8948538,495
1765877512.894859,495
1765877512.8948648,495
1765877512.89487,495
1765877512.8948748,495
1765877512.89488,495
1765877512.8948858,495
1765877512.894891,495
1765877512.894897,494
1765877512.894905,494
1765877512.894912,494
1765877512.894919,495
1765877512.8949308,495
1765877512.8949382,496
1765877512.894944,495
1765877512.89495,495
1765877512.894956,495
1765877512.8949618,495
1765877512.894968,495
1765877512.894974,495
1765877512.8949802,495
1765877512.894986,495
1765877512.8949928,495
1765877512.895,496
1765877512.895007,496
1765877512.895015,495
1765877512.895021,496
1765877512.895027,495
1765877512.8950331,495
1765877512.895039,495
1765877512.895045,496
1765877512.895051,495
1765877512.8950558,495
1765877512.895062,494
1765877512.895068,494
1765877512.8950741,495
1765877512.895079,495
1765877512.895085,494
1765877512.895092,495
1765877512.8950999,495
1765877512.895107,495
1765877512.895113,496
1765877512.8951209,495
1765877512.895128,494
1765877512.895136,494
1765877512.8951428,494
1765877512.8951502,494
1765877512.895158,494
1765877512.895164,493
1765877512.895169,495
1765877512.895176,494
1765877512.895183,495
1765877512.8951879,496
1765877512.895193,496
1765877512.895199,496
1765877512.895204,495
1765877512.895209,496
1765877512.895215,496
1765877512.895222,495
1765877512.8952289,495
1765877512.895236,495
1765877512.895243,495
1765877512.895251,495
1765877512.8952582,495
1765877512.895265,496
1765877512.895274,495
1765877512.895282,496
1765877512.895287,496
1765877512.8952918,496
1765877512.895298,496
1765877512.895305,495
1765877512.8953118,496
1765877512.895319,497
1765877512.895327,497
1765877512.895334,496
1765877512.89534,494
1765877512.895346,494
1765877512.8953521,493
1765877512.8953578,495
1765877512.895364,495
1765877512.89537,495
1765877512.895375,496
1765877512.89538,495
1765877512.8953862,496
1765877512.895391,495
1765877512.895396,495
1765877512.895402,495
1765877512.895896,496
1765877512.895904,495
1765877512.895911,496
1765877512.8959181,496
1765877512.895926,496
1765877512.895935,496
1765877512.895943,496
1765877512.89595,495
1765877512.895956,496
1765877512.895963,496
1765877512.895971,495
1765877512.895978,495
1765877512.895985,495
1765877512.895993,495
1765877512.896,495
1765877512.8960068,495
1765877512.896014,496
1765877512.896021,496
1765877512.896029,496
1765877512.8960361,497
1765877512.896043,497
1765877512.896051,497
1765877512.896058,497
1765877512.896065,496
1765877512.896072,495
1765877512.8960772,496
1765877512.8960829,495
1765877512.8960881,495
1765877512.896096,494
1765877512.896102,494
1765877512.89611,495
1765877512.896119,495
1765877512.896128,496
1765877512.8961349,494
1765877512.896142,494
1765877512.896149,495
1765877512.896157,495
1765877512.8961642,496
1765877512.89617,496
1765877512.8961768,496
1765877512.896184,496
1765877512.89619,496
1765877512.8961978,496
1765877512.896205,494
1765877512.8962119,494
1765877512.89622,495
1765877512.896226,494
1765877512.896232,495
1765877512.896238,495
1765877512.896244,496
1765877512.89625,496
1765877512.896257,496
1765877512.8962638,497
1765877512.896272,496
1765877512.896279,495
1765877512.896286,495
1765877512.8962939,496
1765877512.896301,496
1765877512.896309,497
1765877512.896317,498
1765877512.8963242,497
1765877512.896331,497
1765877512.896338,496
1765877512.896346,496
1765877512.896353,495
1765877512.8963609,494
1765877512.896368,493
1765877512.896375,494
1765877512.8963819,494
1765877512.896389,495
1765877512.896397,495
1765877512.896404,495
1765877512.896411,495
1765877512.896419,495
1765877512.896426,496
1765877512.8964329,497
1765877512.896439,498
1765877512.896446,498
1765877512.8964522,497
1765877512.896457,497
1765877512.896462,495
1765877512.896468,495
1765877512.8964732,495
1765877512.896479,495
1765877512.8964858,494
1765877512.896496,495
1765877512.896503,495
1765877512.896511,493
1765877512.896518,493
1765877512.8965251,495
1765877512.896532,495
1765877512.89654,494
1765877512.8965461,494
1765877512.896553,495
1765877512.896559,495
1765877512.896567,495
1765877512.896574,496
1765877512.8965812,496
1765877512.896588,495
1765877512.896596,495
1765877512.8966029,495
1765877512.89661,496
1765877512.896617,496
1765877512.8966231,496
1765877512.896629,496
1765877512.896636,496
1765877512.8966432,497
1765877512.896651,496
1765877512.896658,497
1765877512.896665,497
1765877512.896673,496
1765877512.896681,495
1765877512.89669,495
1765877512.896696,494
1765877512.896703,495
1765877512.8967092,495
1765877512.896714,495
1765877512.8967192,495
1765877512.8967261,495
1765877512.8967319,495
1765877512.896739,496
1765877512.896746,497
1765877512.896754,496
1765877512.8967612,496
1765877512.896768,495
1765877512.896776,496
1765877512.896783,496
1765877512.896789,496
1765877512.896794,495
1765877512.8968,496
1765877512.896805,495
1765877512.89681,496
1765877512.896815,495
1765877512.89682,496
1765877512.896825,495
1765877512.896831,495
1765877512.896836,496
1765877512.896841,496
1765877512.896848,495
1765877512.896854,496
1765877512.89686,496
1765877512.8968651,496
1765877512.8968709,495
1765877512.896876,495
1765877512.8968818,495
1765877512.896889,495
1765877512.896896,494
1765877512.8969028,495
1765877512.8969102,495
1765877512.896916,495
1765877512.896922,496
1765877512.896928,496
1765877512.8969338,496
1765877512.896947,496
1765877512.896956,496
1765877512.8969622,496
1765877512.896968,496
1765877512.896974,496
1765877512.89698,496
1765877512.896986,496
1765877512.896992,497
1765877512.896999,497
1765877512.897005,497
1765877512.897011,497
1765877512.8970182,496
1765877512.897025,496
1765877512.8970308,497
1765877512.897036,497
1765877512.897042,496
1765877512.897048,496
1765877512.897054,495
1765877512.8970602,496
1765877512.897065,495
1765877512.8970711,495
1765877512.897076,495
1765877512.8970811,496
1765877512.8970869,496
1765877512.897092,495
1765877512.897099,496
1765877512.897105,496
1765877512.897113,496
1765877512.89712,496
1765877512.897127,495
1765877512.897134,495
1765877512.89714,495
1765877512.8971462,495
1765877512.897152,496
1765877512.8971589,496
1765877512.897166,496
1765877512.897173,495
1765877512.897181,496
1765877512.8971891,496
1765877512.897197,496
1765877512.897203,496
1765877512.8972092,496
1765877512.897215,495
1765877512.8972201,495
1765877512.897226,496
1765877512.897231,495
1765877512.8972359,496
1765877512.897242,496
1765877512.897248,496
1765877512.897253,496
1765877512.89726,495
1765877512.897266,495
1765877512.897275,496
1765877512.8972852,496
1765877512.897295,496
1765877512.8973062,495
1765877512.897315,495
1765877512.897323,495
1765877512.897332,496
1765877512.8973398,496
1765877512.8973482,496
1765877512.897357,496
1765877512.897365,496
1765877512.897373,496
1765877512.8973818,496
1765877512.897393,495
1765877512.8974028,496
1765877512.897411,495
1765877512.89742,496
1765877512.897428,496
1765877512.8974369,496
1765877512.8974452,495
1765877512.897454,496
1765877512.8974621,495
1765877512.897471,496
1765877512.89748,496
1765877512.8974879,496
1765877512.8974972,496
1765877512.897505,495
1765877512.8975139,496
1765877512.897522,495
1765877512.89753,496
1765877512.8975391,495
1765877512.897547,495
1765877512.8975549,495
1765877512.897563,495
1765877512.897572,495
1765877512.8975801,496
1765877512.897588,496
1765877512.8975968,496
1765877512.897606,495
1765877512.8976169,496
1765877512.8976269,496
1765877512.897635,496
1765877512.897644,496
1765877512.897652,496
1765877512.897661,496
1765877512.897669,496
1765877512.8976781,496
1765877512.897686,496
1765877512.897695,496
1765877512.897703,495
1765877512.8977122,496
1765877512.89772,497
1765877512.897729,496
1765877512.897737,495
1765877512.8977458,496
1765877512.8977542,496
1765877512.897763,495
1765877512.8977711,496
1765877512.89778,496
1765877512.8977878,496
1765877512.8977962,496
1765877512.897805,496
1765877512.897813,496
1765877512.897821,496
1765877512.8978298,496
1765877512.897838,495
1765877512.897849,496
1765877512.897859,496
1765877512.897867,496
1765877512.8978748,496
1765877512.897883,496
1765877512.897891,496
1765877512.897899,496
1765877512.897908,496
1765877512.8979158,496
1765877512.8979242,496
1765877512.897933,496
1765877512.8979409,496
1765877512.8980129,496
1765877512.898022,496
1765877512.89803,496
1765877512.898038,496
1765877512.898046,496
1765877512.898054,496
1765877512.8980632,496
1765877512.898071,496
1765877512.89808,496
1765877512.898088,496
1765877512.898096,496
1765877512.8981051,496
1765877512.898113,496
1765877512.898122,496
1765877512.898132,496
1765877512.898141,496
1765877512.898149,496
1765877512.8981571,495
1765877512.898166,495
1765877512.898174,496
1765877512.898182,495
1765877512.89819,496
1765877512.8981981,496
1765877512.898207,496
1765877512.8982148,495
1765877512.8982232,495
1765877512.898231,495
1765877512.89824,496
1765877512.898248,496
1765877512.8982558,495
1765877512.8982642,496
1765877512.898272,496
1765877512.8982809,496
1765877512.898289,496
1765877512.898297,495
1765877512.898305,496
1765877512.898314,495
1765877512.8983219,496
1765877512.8983302,495
1765877512.898339,496
1765877512.898347,495
1765877512.898358,496
1765877512.898367,495
1765877512.8983748,495
1765877512.8983839,496
1765877512.898392,496
1765877512.8984,495
1765877512.898409,495
1765877512.898417,495
1765877512.898426,496
1765877512.8984342,496
1765877512.898443,495
1765877512.8984509,495
1765877512.898459,495
1765877512.898468,495
1765877512.8984761,496
1765877512.898485,496
1765877512.8984928,496
1765877512.8985012,496
1765877512.89851,496
1765877512.898518,495
1765877512.898527,496
1765877512.898536,496
1765877512.898544,496
1765877512.8985522,495
1765877512.89856,495
1765877512.8985689,496
1765877512.898579,496
1765877512.898589,495
1765877512.898597,496
1765877512.898605,496
1765877512.898614,496
1765877512.898622,496
1765877512.89863,496
1765877512.8986392,496
1765877512.898647,495
1765877512.898655,496
1765877512.898664,495
1765877512.898672,495
1765877512.89868,495
1765877512.898688,496
1765877512.898697,495
1765877512.898705,496
1765877512.898714,496
1765877512.898722,496
1765877512.89873,496
1765877512.8987389,495
1765877512.898747,496
1765877512.898756,496
1765877512.8987641,495
1765877512.898772,496
1765877512.8987799,495
1765877512.8987892,496
1765877512.898797,495
1765877512.8988092,495
1765877512.898817,495
1765877512.898826,495
1765877512.898834,496
1765877512.898842,495
1765877512.8988512,496
1765877512.898859,496
1765877512.898867,496
1765877512.898876,495
1765877512.898884,496
1765877512.898892,495
1765877512.898901,495
1765877512.8989089,495
1765877512.8989172,495
1765877512.898925,495
1765877512.8989341,496
1765877512.898942,496
1765877512.8989508,496
1765877512.8989592,495
1765877512.898967,496
1765877512.898975,496
1765877512.898984,496
1765877512.898992,496
1765877512.8990002,495
1765877512.899009,496
1765877512.8990169,496
1765877512.899028,495
1765877512.899037,495
1765877512.8990452,496
1765877512.899054,495
1765877512.899062,495
1765877512.89907,496
1765877512.8990788,496
1765877512.8990872,496
1765877512.899096,495
1765877512.899104,495
1765877512.899112,495
1765877512.8991208,495
1765877512.8991292,495
1765877512.899137,495
1765877512.899146,495
1765877512.899154,496
1765877512.899162,496
1765877512.8991702,496
1765877512.899179,495
1765877512.8991868,496
1765877512.899196,495
1765877512.899204,496
1765877512.8992121,495
1765877512.899221,496
1765877512.8992288,496
1765877512.8992372,495
1765877512.899245,496
1765877512.8992572,495
1765877512.899266,496
1765877512.8992739,496
1765877512.899282,495
1765877512.89929,496
1765877512.899298,496
1765877512.899307,495
1765877512.8993149,495
1765877512.899323,495
1765877512.899331,495
1765877512.89934,495
1765877512.899348,496
1765877512.899356,496
1765877512.8993652,496
1765877512.899373,495
1765877512.899381,495
1765877512.89939,496
1765877512.8993979,495
1765877512.8994071,496
1765877512.899415,496
1765877512.899423,496
1765877512.899432,495
1765877512.89944,496
1765877512.899449,496
1765877512.899457,496
1765877512.8994648,496
1765877512.8995042,495
1765877512.8995142,496
1765877512.899522,496
1765877512.89953,495
1765877512.899539,495
1765877512.8995469,495
1765877512.899555,496
1765877512.899563,496
1765877512.899571,496
1765877512.89958,495
1765877512.899588,495
1765877512.899596,496
1765877512.899606,495
1765877512.8996139,495
1765877512.899622,496
1765877512.89963,495
1765877512.899638,495
1765877512.899646,495
1765877512.8996549,495
1765877512.8996632,495
1765877512.899671,495
1765877512.899679,495
1765877512.8996868,496
1765877512.8996952,495
1765877512.899703,495
1765877512.899712,496
1765877512.899722,495
1765877512.899731,496
1765877512.89974,495
1765877512.899748,495
1765877512.899756,496
1765877512.899764,495
1765877512.899772,496
1765877512.89978,495
1765877512.899789,496
1765877512.899797,496
1765877512.8998048,496
1765877512.8998132,496
1765877512.899822,496
1765877512.89983,496
1765877512.899838,496
1765877512.8998458,497
1765877512.8998542,497
1765877512.899863,497
1765877512.8998709,497
1765877512.899879,497
1765877512.899888,497
1765877512.8998961,497
1765877512.899904,497
1765877512.8999119,497
1765877512.899921,496
1765877512.899929,496
1765877512.899937,496
1765877512.8999481,496
1765877512.899956,496
1765877512.8999639,496
1765877512.8999722,496
1765877512.899981,496
1765877512.899989,496
1765877512.899997,496
1765877512.900005,496
1765877512.9000142,495
1765877512.900022,496
1765877512.90003,496
1765877512.900038,497
1765877512.900046,496
1765877512.900054,496
1765877512.9000618,496
1765877512.90007,496
1765877512.900079,496
1765877512.900087,496
1765877512.900095,496
1765877512.9001029,495
1765877512.9001112,496
1765877512.90012,496
1765877512.900128,496
1765877512.900136,496
1765877512.900144,495
1765877512.9001532,495
1765877512.9001632,495
1765877512.900172,496
1765877512.9001799,495
1765877512.9001899,496
1765877512.900198,496
1765877512.900206,496
1765877512.9002151,496
1765877512.900223,496
1765877512.900231,496
1765877512.900239,496
1765877512.900248,496
1765877512.900256,496
1765877512.900264,495
1765877512.9002721,496
1765877512.90028,495
1765877512.900289,496
1765877512.900297,496
1765877512.9003048,496
1765877512.9003131,496
1765877512.900321,496
1765877512.90033,496
1765877512.900338,496
1765877512.900346,496
1765877512.9003541,495
1765877512.900362,496
1765877512.9003708,496
1765877512.900379,496
1765877512.90039,496
1765877512.9003992,496
1765877512.900407,496
1765877512.900415,496
1765877512.9004228,496
1765877512.9004312,495
1765877512.900439,495
1765877512.900448,495
1765877512.900456,496
1765877512.900464,496
1765877512.900473,496
1765877512.900481,496
1765877512.9004889,495
1765877512.900497,496
1765877512.900505,495
1765877512.9005141,495
1765877512.900522,496
1765877512.9005299,496
1765877512.9005382,496
1765877512.900546,497
1765877512.900554,496
1765877512.9005618,496
1765877512.9005702,496
1765877512.900579,496
1765877512.900587,495
1765877512.900595,496
1765877512.900606,497
1765877512.900616,496
1765877512.9006238,496
1765877512.9006321,496
1765877512.90064,496
1765877512.9006479,496
1765877512.9006562,496
1765877512.900664,495
1765877512.900673,496
1765877512.900681,496
1765877512.900689,496
1765877512.9006982,496
1765877512.900706,496
1765877512.900714,496
1765877512.900722,496
1765877512.9007308,496
1765877512.900739,496
1765877512.900747,496
1765877512.900756,496
1765877512.900764,496
1765877512.900772,496
1765877512.90078,496
1765877512.900788,496
1765877512.900797,496
1765877512.9008052,495
1765877512.900813,496
1765877512.900821,496
1765877512.900832,496
1765877512.900841,496
1765877512.9008489,495
1765877512.900857,495
1765877512.900866,496
1765877512.900874,496
1765877512.900882,495
1765877512.90089,496
1765877512.900898,496
1765877512.900907,496
1765877512.900915,496
1765877512.9009228,496
1765877512.9009311,496
1765877512.90094,496
1765877512.900948,496
1765877512.900956,496
1765877512.9009652,496
1765877512.900973,496
1765877512.900981,496
1765877512.9009888,496
1765877512.9009972,496
1765877512.901005,496
1765877512.901014,496
1765877512.901022,496
1765877512.9010298,496
1765877512.9010391,496
1765877512.9010491,496
1765877512.9010592,496
1765877512.901067,496
1765877512.901075,496
1765877512.901084,496
1765877512.901092,495
1765877512.9011,496
1765877512.901108,496
1765877512.901116,496
1765877512.901124,496
1765877512.901132,495
1765877512.901141,496
1765877512.901149,495
1765877512.9011571,495
1765877512.901166,495
1765877512.901174,496
1765877512.901182,496
1765877512.9011898,495
1765877512.901199,496
1765877512.901207,496
1765877512.901215,496
1765877512.901223,496
1765877512.901241,496
1765877512.901265,496
1765877512.901273,496
1765877512.901282,496
1765877512.90129,495
1765877512.90133,495
1765877512.901338,496
1765877512.9013472,496
1765877512.901355,496
1765877512.901363,496
1765877512.901372,496
1765877512.90138,495
1765877512.901388,495
1765877512.901396,496
1765877512.901404,496
1765877512.901412,496
1765877512.901543,496
1765877512.9015522,495
1765877512.901561,495
1765877512.9015691,495
1765877512.901577,496
1765877512.9015849,496
1765877512.9015942,496
1765877512.901602,496
1765877512.90161,496
1765877512.901618,496
1765877512.901688,496
1765877512.9017441,496
1765877512.9017532,495
1765877512.901762,496
1765877512.901807,495
1765877512.901818,495
1765877512.901827,496
1765877512.901835,495
1765877512.9018428,495
1765877512.901852,495
1765877512.90186,495
1765877512.901868,495
1765877512.901877,496
1765877512.901885,496
1765877512.9018931,496
1765877512.9019022,495
1765877512.90191,496
1765877512.901918,496
1765877512.9019258,495
1765877512.901943,495
1765877512.901951,495
1765877512.90196,495
1765877512.9019678,495
1765877512.901982,495
1765877512.90199,495
1765877512.901999,495
1765877512.902007,495
1765877512.902016,496
1765877512.902024,496
1765877512.902032,496
1765877512.9020412,495
1765877512.9020538,496
1765877512.9020622,496
1765877512.90207,496
1765877512.9020858,496
1765877512.9020941,496
1765877512.902103,496
1765877512.902111,496
1765877512.902119,495
1765877512.902127,496
1765877512.9021351,495
1765877512.902143,496
1765877512.9021509,496
1765877512.9021592,495
1765877512.902168,495
1765877512.902176,495
1765877512.902229,496
1765877512.902238,495
1765877512.902246,495
1765877512.902254,495
1765877512.902263,495
1765877512.902271,496
1765877512.9022799,496
1765877512.902288,496
1765877512.902296,495
1765877512.9023051,495
1765877512.902313,495
1765877512.902324,495
1765877512.902334,495
1765877512.9023418,495
1765877512.9023511,495
1765877512.902359,495
1765877512.9023669,495
1765877512.902375,496
1765877512.902384,496
1765877512.9023921,496
1765877512.9024,496
1765877512.902408,496
1765877512.902417,496
1765877512.902425,495
1765877512.902433,496
1765877512.902441,496
1765877512.9024498,495
1765877512.9024582,496
1765877512.902466,496
1765877512.902474,495
1765877512.902483,495
1765877512.9024909,495
1765877512.902499,495
1765877512.902507,495
1765877512.902516,495
1765877512.902524,495
1765877512.902533,496
1765877512.9025438,495
1765877512.902554,495
1765877512.9025621,495
1765877512.902571,494
1765877512.9025788,495
1765877512.902587,495
1765877512.902596,495
1765877512.902604,495
1765877512.902612,495
1765877512.9026198,495
1765877512.9026282,495
1765877512.902636,495
1765877512.902644,495
1765877512.9026518,496
1765877512.902661,495
1765877512.902669,495
1765877512.902677,495
1765877512.902685,495
1765877512.902693,495
1765877512.9027011,495
1765877512.902709,496
1765877512.902719,495
1765877512.902727,495
1765877512.902735,495
1765877512.902743,495
1765877512.902752,495
1765877512.90276,496
1765877512.902772,495
1765877512.9027798,495
1765877512.9027882,496
1765877512.902796,495
1765877512.902805,495
1765877512.902813,495
1765877512.9028218,495
1765877512.9028301,495
1765877512.902838,495
1765877512.9028459,496
1765877512.902854,495
1765877512.902863,496
1765877512.9028711,496
1765877512.902879,495
1765877512.9028869,495
1765877512.9028952,495
1765877512.902904,495
1765877512.902912,496
1765877512.90292,495
1765877512.9029279,495
1765877512.9029372,495
1765877512.902945,495
1765877512.902953,495
1765877512.9029608,495
1765877512.9029691,495
1765877512.902978,495
1765877512.9029891,495
1765877512.903,495
1765877512.903008,495
1765877512.9030159,496
1765877512.903025,495
1765877512.903033,495
1765877512.9030411,495
1765877512.903049,495
1765877512.9030578,494
1765877512.9030662,494
1765877512.903075,495
1765877512.903083,495
1765877512.903091,496
1765877512.9030988,496
1765877512.9031081,496
1765877512.903116,496
1765877512.9031239,495
1765877512.903132,495
1765877512.903141,495
1765877512.9031491,496
1765877512.903157,496
1765877512.9031649,495
1765877512.9031732,495
1765877512.903181,495
1765877512.903189,496
1765877512.903198,496
1765877512.9032059,496
1765877512.9032168,496
1765877512.9032252,495
1765877512.903234,496
1765877512.9032419,497
1765877512.90325,497
1765877512.9032588,496
1765877512.9032671,497
1765877512.903275,496
1765877512.9032829,496
1765877512.903292,497
1765877512.9033,497
1765877512.903308,497
1765877512.903316,496
1765877512.9033248,496
1765877512.9033332,496
1765877512.903342,495
1765877512.90335,495
1765877512.903359,495
1765877512.9033668,496
1765877512.9033751,496
1765877512.903383,496
1765877512.903391,496
1765877512.9034,496
1765877512.903408,496
1765877512.9034162,495
1765877512.903424,496
1765877512.9034398,496
1765877512.90345,496
1765877512.903458,495
1765877512.903467,496
1765877512.903475,496
1765877512.903483,496
1765877512.903491,495
1765877512.9034991,495
1765877512.903507,495
1765877512.9035158,496
1765877512.9035242,495
1765877512.903532,495
1765877512.90354,496
1765877512.903548,495
1765877512.903556,496
1765877512.9035652,495
1765877512.903573,495
1765877512.903581,495
1765877512.903589,495
1765877512.903597,495
1765877512.903605,495
1765877512.9036129,495
1765877512.903622,495
1765877512.90363,495
1765877512.9036381,496
1765877512.903646,495
1765877512.903657,495
1765877512.903666,495
1765877512.9036748,496
1765877512.9036832,496
1765877512.903691,495
1765877512.903699,495
1765877512.9037068,496
1765877512.9037151,495
1765877512.903724,495
1765877512.903732,495
1765877512.90374,495
1765877512.903748,495
1765877512.903757,496
1765877512.903765,495
1765877512.9037728,495
1765877512.903782,495
1765877512.90379,495
1765877512.903799,495
1765877512.903807,495
1765877512.903815,495
1765877512.9038231,495
1765877512.903831,495
1765877512.9038389,495
1765877512.903848,495
1765877512.903856,496
1765877512.9038641,496
1765877512.903872,495
1765877512.903884,495
1765877512.903892,495
1765877512.9039,496
1765877512.9039092,495
1765877512.903917,495
1765877512.903925,495
1765877512.903934,495
1765877512.9039419,495
1765877512.90395,495
1765877512.903958,495
1765877512.903966,495
1765877512.9039738,495
1765877512.903983,495
1765877512.903991,495
1765877512.903999,495
1765877512.904007,495
1765877512.9040158,495
1765877512.9040241,495
1765877512.904032,495
1765877512.904055,495
1765877512.904064,495
1765877512.904073,495
1765877512.9040809,495
1765877512.904089,495
1765877512.904097,495
1765877512.904106,495
1765877512.904116,495
1765877512.904126,496
1765877512.9041338,495
1765877512.9041421,495
1765877512.90415,495
1765877512.9041579,495
1765877512.904166,495
1765877512.904174,495
1765877512.904182,495
1765877512.90419,495
1765877512.904198,494
1765877512.904206,495
1765877512.904214,496
1765877512.904268,495
1765877512.904278,495
1765877512.9042869,496
1765877512.904295,495
1765877512.904303,495
1765877512.9043121,495
1765877512.904325,495
1765877512.904333,495
1765877512.904341,495
1765877512.90435,495
1765877512.904358,496
1765877512.904366,495
1765877512.9043741,495
1765877512.904385,495
1765877512.904394,495
1765877512.904403,495
1765877512.9044108,494
1765877512.9044192,495
1765877512.904427,495
1765877512.904435,495
1765877512.904444,495
1765877512.904452,495
1765877512.90446,495
1765877512.904468,495
1765877512.904477,496
1765877512.9044852,495
1765877512.904494,496
1765877512.904502,496
1765877512.9045079,496
1765877512.904514,496
1765877512.904521,495
1765877512.9045272,495
1765877512.904532,495
1765877512.9045382,495
1765877512.904543,495
1765877512.9045482,496
1765877512.904554,495
1765877512.9045591,495
1765877512.904565,495
1765877512.90457,495
1765877512.904577,495
1765877512.904583,495
1765877512.904588,495
1765877512.904594,495
1765877512.904599,495
1765877512.904604,496
1765877512.9046102,495
1765877512.904615,495
1765877512.90462,496
1765877512.904626,496
1765877512.9046311,495
1765877512.904636,496
1765877512.904642,495
1765877512.9046469,495
1765877512.904652,495
1765877512.9046578,495
1765877512.904663,496
1765877512.904669,496
1765877512.904674,496
1765877512.9046788,496
1765877512.904685,495
1765877512.90469,495
1765877512.904695,496
1765877512.904701,496
1765877512.904706,495
1765877512.904711,496
1765877512.904717,496
1765877512.904724,496
1765877512.90473,495
1765877512.904736,495
1765877512.904741,495
1765877512.904746,496
1765877512.904752,495
1765877512.904757,495
1765877512.904762,495
1765877512.904768,496
1765877512.9047732,496
1765877512.904779,495
1765877512.904785,494
1765877512.90479,495
1765877512.904796,495
1765877512.9048011,495
1765877512.904806,496
1765877512.904812,495
1765877512.904819,495
1765877512.9048262,496
1765877512.904833,495
1765877512.904841,496
1765877512.9048479,496
1765877512.904856,495
1765877512.9048629,495
1765877512.904871,495
1765877512.9048781,496
1765877512.904887,495
1765877512.904896,495
1765877512.904903,495
1765877512.904911,496
1765877512.904918,495
1765877512.904926,495
1765877512.9049332,495
1765877512.904941,495
1765877512.904948,495
1765877512.904953,496
1765877512.904958,495
1765877512.9049642,496
1765877512.9049711,496
1765877512.904979,495
1765877512.9049861,496
1765877512.90502,495
1765877512.905096,496
1765877512.905102,496
1765877512.905108,495
1765877512.9051142,496
1765877512.905121,495
1765877512.905129,495
1765877512.905136,495
1765877512.905143,495
1765877512.90515,495
1765877512.9051578,496
1765877512.905165,495
1765877512.905175,496
1765877512.905216,495
1765877512.905223,495
1765877512.905229,495
1765877512.905235,496
1765877512.905241,496
1765877512.905249,496
1765877512.9052548,496
1765877512.905261,496
1765877512.905267,496
1765877512.9052732,495
1765877512.905279,495
1765877512.9052851,496
1765877512.905291,496
1765877512.9052968,495
1765877512.905303,496
1765877512.905309,496
1765877512.9053152,495
1765877512.905321,496
1765877512.905328,495
1765877512.905334,496
1765877512.90534,496
1765877512.905345,496
1765877512.905351,495
1765877512.9053571,495
1765877512.905364,495
1765877512.905371,496
1765877512.905378,496
1765877512.9053838,495
1765877512.90539,495
1765877512.905396,496
1765877512.9054022,495
1765877512.905408,496
1765877512.9054139,496
1765877512.90542,496
1765877512.905427,496
1765877512.9054348,495
1765877512.905442,496
1765877512.9054499,496
1765877512.905462,495
1765877512.905469,496
1765877512.905477,496
1765877512.905483,496
1765877512.905489,496
1765877512.905495,495
1765877512.905501,496
1765877512.905508,496
1765877512.9055161,495
1765877512.905523,496
1765877512.905531,496
1765877512.905538,495
1765877512.905546,496
1765877512.9055529,496
1765877512.90556,496
1765877512.905567,496
1765877512.9055731,496
1765877512.905579,495
1765877512.905586,496
1765877512.9055932,495
1765877512.905601,495
1765877512.905608,495
1765877512.9056158,496
1765877512.905623,495
1765877512.905631,495
1765877512.905638,496
1765877512.905646,495
1765877512.905653,496
1765877512.90566,496
1765877512.905667,495
1765877512.9056718,495
1765877512.905677,496
1765877512.905683,495
1765877512.9056902,496
1765877512.905698,496
1765877512.905705,495
1765877512.9057121,495
1765877512.905719,496
1765877512.905726,495
1765877512.9057338,495
1765877512.9057431,495
1765877512.9057522,494
1765877512.9057589,496
1765877512.9057658,496
1765877512.9057732,496
1765877512.905779,496
1765877512.905785,495
1765877512.905791,495
1765877512.905797,495
1765877512.905802,495
1765877512.905807,496
1765877512.905813,496
1765877512.9058182,496
1765877512.905823,496
1765877512.9058292,496
1765877512.905834,496
1765877512.9058392,495
1765877512.905845,496
1765877512.9058502,496
1765877512.905857,495
1765877512.90588,495
1765877512.905886,495
1765877512.9058921,495
1765877512.905898,496
1765877512.905904,496
1765877512.905911,496
1765877512.905916,496
1765877512.9059231,495
1765877512.90593,495
1765877512.9059358,496
1765877512.905941,495
1765877512.905948,495
1765877512.905955,496
1765877512.905961,495
1765877512.905967,496
1765877512.905973,496
1765877512.9059799,495
1765877512.905986,496
1765877512.905993,496
1765877512.905998,497
1765877512.906003,497
1765877512.906008,497
1765877512.906014,497
1765877512.906021,496
1765877512.906028,496
1765877512.906035,497
1765877512.9060428,497
1765877512.90605,496
1765877512.906056,497
1765877512.9060621,497
1765877512.906068,497
1765877512.906074,497
1765877512.906081,496
1765877512.906091,496
1765877512.9061,496
1765877512.906106,496
1765877512.906111,496
1765877512.906116,497
1765877512.906122,497
1765877512.9061272,496
1765877512.906132,496
1765877512.9061592,495
1765877512.906166,495
1765877512.9061718,496
1765877512.906177,496
1765877512.906183,495
1765877512.906188,495
1765877512.906195,495
1765877512.9062028,496
1765877512.90621,496
1765877512.9062169,496
1765877512.906223,495
1765877512.906229,496
1765877512.906234,496
1765877512.90624,496
1765877512.906246,496
1765877512.906253,496
1765877512.906261,495
1765877512.906268,496
1765877512.906275,495
1765877512.906284,495
1765877512.906293,495
1765877512.9062998,495
1765877512.906307,495
1765877512.906313,496
1765877512.9063182,496
1765877512.906324,496
1765877512.90633,496
1765877512.906336,495
1765877512.9063418,495
1765877512.906347,495
1765877512.906353,495
1765877512.906359,496
1765877512.906365,496
1765877512.906371,495
1765877512.906377,495
1765877512.906382,496
1765877512.906388,496
1765877512.906394,496
1765877512.9064,495
1765877512.906406,496
1765877512.9064121,496
1765877512.9064178,496
1765877512.906423,496
1765877512.9064279,495
1765877512.906433,496
1765877512.9064379,495
1765877512.9064581,496
1765877512.906463,496
1765877512.906469,496
1765877512.9064739,496
1765877512.90648,496
1765877512.906486,495
1765877512.906492,496
1765877512.906497,496
1765877512.906503,496
1765877512.906508,496
1765877512.906513,496
1765877512.906518,495
1765877512.906523,496
1765877512.906528,495
1765877512.906533,495
1765877512.906538,495
1765877512.9065442,496
1765877512.906549,496
1765877512.9065542,496
1765877512.906559,495
1765877512.906564,495
1765877512.906569,496
1765877512.906574,496
1765877512.906579,495
1765877512.906584,496
1765877512.90659,495
1765877512.9065962,496
1765877512.906603,495
1765877512.9066088,496
1765877512.906614,495
1765877512.9066188,495
1765877512.906624,495
1765877512.906629,495
1765877512.906634,495
1765877512.906639,496
1765877512.9066439,496
1765877512.906649,495
1765877512.906654,495
1765877512.90666,495
1765877512.906666,496
1765877512.906671,496
1765877512.906677,495
1765877512.906682,495
1765877512.906688,495
1765877512.906694,495
1765877512.906699,496
1765877512.906705,495
1765877512.906711,495
1765877512.9067159,496
1765877512.906722,496
1765877512.906728,495
1765877512.906733,495
1765877512.906739,496
1765877512.9067469,496
1765877512.906753,495
1765877512.906759,495
1765877512.906765,495
1765877512.90677,496
1765877512.906776,495
1765877512.906781,495
1765877512.906786,495
1765877512.906791,496
1765877512.9067972,495
1765877512.906802,495
1765877512.906807,495
1765877512.906812,496
1765877512.906817,495
1765877512.9068239,495
1765877512.90683,495
1765877512.906837,495
1765877512.9068449,495
1765877512.906852,496
1765877512.906859,496
1765877512.9068658,496
1765877512.906873,495
1765877512.906881,496
1765877512.9068868,496
1765877512.906894,496
1765877512.906899,495
1765877512.9069068,496
1765877512.906914,496
1765877512.906921,496
1765877512.906927,495
1765877512.906933,495
1765877512.906938,496
1765877512.906943,496
1765877512.906948,495
1765877512.9069529,496
1765877512.906958,496
1765877512.906964,495
1765877512.90697,495
1765877512.906976,495
1765877512.906983,496
1765877512.90699,496
1765877512.906998,495
1765877512.9070048,495
1765877512.907011,496
1765877512.907017,496
1765877512.9070232,496
1765877512.907029,495
1765877512.9070349,495
1765877512.90704,496
1765877512.9070458,495
1765877512.907051,496
1765877512.907056,496
1765877512.907061,496
1765877512.9070709,495
1765877512.9070761,496
1765877512.907082,496
1765877512.907087,496
1765877512.9070919,496
1765877512.907097,496
1765877512.9071019,496
1765877512.907108,496
1765877512.907113,495
1765877512.907118,495
1765877512.9071229,496
1765877512.907128,496
1765877512.907134,496
1765877512.90714,495
1765877512.907145,495
1765877512.9071512,496
1765877512.907157,496
1765877512.9071622,495
1765877512.907168,496
1765877512.9071739,495
1765877512.90718,496
1765877512.9071848,495
1765877512.907191,495
1765877512.907197,495
1765877512.907203,496
1765877512.907208,496
1765877512.9072158,496
1765877512.907223,496
1765877512.907228,496
1765877512.9072351,495
1765877512.907242,496
1765877512.907249,496
1765877512.907255,496
1765877512.90726,495
1765877512.907268,496
1765877512.907274,495
1765877512.90728,496
1765877512.907286,495
1765877512.907292,496
1765877512.907298,495
1765877512.907305,495
1765877512.9073129,495
1765877512.90732,495
1765877512.907326,496
1765877512.9073322,496
1765877512.907339,496
1765877512.907346,496
1765877512.907354,495
1765877512.907359,495
1765877512.907365,496
1765877512.907371,496
1765877512.907377,496
1765877512.907382,495
1765877512.907389,496
1765877512.907406,496
1765877512.907412,496
1765877512.907417,497
1765877512.907423,496
1765877512.907431,495
1765877512.9074419,496
1765877512.907449,496
1765877512.907455,496
1765877512.9074612,496
1765877512.907468,496
1765877512.907475,496
1765877512.9074812,495
1765877512.907487,496
1765877512.907493,496
1765877512.907499,495
1765877512.907504,496
1765877512.90751,495
1765877512.907516,496
1765877512.907522,496
1765877512.907528,496
1765877512.9075341,495
1765877512.907541,495
1765877512.907548,496
1765877512.907553,496
1765877512.907586,495
1765877512.9075918,496
1765877512.9076,496
1765877512.907607,496
1765877512.907614,496
1765877512.9076211,496
1765877512.907628,496
1765877512.907636,495
1765877512.9076421,495
1765877512.90765,496
1765877512.907657,496
1765877512.9076638,496
1765877512.9076722,496
1765877512.907677,496
1765877512.907687,496
1765877512.907694,495
1765877512.9077172,495
1765877512.907723,496
1765877512.907729,496
1765877512.907735,496
1765877512.9077408,496
1765877512.907748,496
1765877512.907755,495
1765877512.9077609,496
1765877512.907768,496
1765877512.907774,496
1765877512.9077811,496
1765877512.907787,495
1765877512.907794,496
1765877512.9078012,495
1765877512.907808,495
1765877512.90782,496
1765877512.907831,496
1765877512.9078422,496
1765877512.9078531,496
1765877512.907864,496
1765877512.907875,496
1765877512.907886,496
1765877512.907897,496
1765877512.9079082,496
1765877512.90792,496
1765877512.9079309,496
1765877512.9079418,496
1765877512.9079528,496
1765877512.907965,495
1765877512.907976,496
1765877512.9079869,496
1765877512.908013,495
1765877512.908025,496
1765877512.9080372,496
1765877512.9080489,496
1765877512.908061,496
1765877512.908072,495
1765877512.908083,496
1765877512.908095,496
1765877512.908109,496
1765877512.908122,496
1765877512.908133,496
1765877512.908145,496
1765877512.9081569,495
1765877512.9081678,495
1765877512.90818,496
1765877512.908191,496
1765877512.9082031,496
1765877512.908214,496
1765877512.908226,496
1765877512.908237,495
1765877512.9082491,496
1765877512.90826,496
1765877512.908271,496
1765877512.908283,496
1765877512.908295,496
1765877512.908301,496
1765877512.9083068,495
1765877512.908313,496
1765877512.908319,496
1765877512.9083252,496
1765877512.90833,496
1765877512.9083369,496
1765877512.908345,496
1765877512.908352,496
1765877512.90836,496
1765877512.9083729,496
1765877512.908381,495
1765877512.9083872,496
1765877512.908392,496
1765877512.9083982,496
1765877512.908403,496
1765877512.9084082,497
1765877512.908414,496
1765877512.9084191,497
1765877512.9084249,498
1765877512.90843,497
1765877512.908436,497
1765877512.908441,497
1765877512.908447,496
1765877512.908452,497
1765877512.908457,497
1765877512.9084642,496
1765877512.908469,496
1765877512.908475,497
1765877512.90848,496
1765877512.908486,496
1765877512.908491,496
1765877512.908496,496
1765877512.908502,497
1765877512.9085069,496
1765877512.908513,496
1765877512.90852,496
1765877512.9085262,495
1765877512.908531,496
1765877512.908536,496
1765877512.908542,496
1765877512.9085472,496
1765877512.908553,495
1765877512.9085581,495
1765877512.908563,496
1765877512.908569,496
1765877512.9085739,496
1765877512.908579,496
1765877512.908585,496
1765877512.90859,496
1765877512.908596,496
1765877512.908601,496
1765877512.908607,496
1765877512.908612,496
1765877512.908618,496
1765877512.9086232,496
1765877512.908629,496
1765877512.9086342,496
1765877512.908639,496
1765877512.9086452,496
1765877512.90865,495
1765877512.9086552,495
1765877512.908663,495
1765877512.908669,496
1765877512.908674,496
1765877512.90868,496
1765877512.908685,496
1765877512.908691,496
1765877512.9086971,496
1765877512.908702,496
1765877512.9087071,495
1765877512.9087129,495
1765877512.908718,496
1765877512.908724,495
1765877512.908729,496
1765877512.908735,495
1765877512.90874,496
1765877512.908745,495
1765877512.908751,495
1765877512.908756,495
1765877512.9087622,495
1765877512.908767,495
1765877512.9087732,495
1765877512.908778,495
1765877512.9087832,495
1765877512.908789,495
1765877512.9087942,495
1765877512.9088,496
1765877512.9088058,496
1765877512.9088142,496
1765877512.908821,495
1765877512.9088268,496
1765877512.908833,495
1765877512.908839,495
1765877512.908845,496
1765877512.908851,495
1765877512.908857,495
1765877512.908863,496
1765877512.908869,495
1765877512.908876,495
1765877512.908882,495
1765877512.908888,496
1765877512.908894,496
1765877512.9089,495
1765877512.908905,495
1765877512.908913,496
1765877512.9089248,495
1765877512.908937,496
1765877512.908948,495
1765877512.908959,495
1765877512.908971,495
1765877512.908983,495
1765877512.908994,495
1765877512.909006,495
1765877512.909018,495
1765877512.909029,496
1765877512.909044,495
1765877512.909056,495
1765877512.909067,495
1765877512.9090781,495
1765877512.90909,496
1765877512.909101,495
1765877512.909112,495
1765877512.9091232,495
1765877512.9091341,495
1765877512.909146,496
1765877512.909157,496
1765877512.909169,495
1765877512.90918,495
1765877512.909191,495
1765877512.9092019,495
1765877512.909214,496
1765877512.909225,495
1765877512.909236,495
1765877512.909247,495
1765877512.909259,495
1765877512.90927,495
1765877512.909281,496
1765877512.9092932,496
1765877512.9093041,495
1765877512.909315,495
1765877512.909326,496
1765877512.909339,495
1765877512.9093518,495
1765877512.909363,495
1765877512.909374,495
1765877512.909386,495
1765877512.909397,495
1765877512.909408,495
1765877512.909419,496
1765877512.909431,496
1765877512.909442,495
1765877512.909454,496
1765877512.909465,495
1765877512.909478,496
1765877512.909489,496
1765877512.9095008,496
1765877512.909512,496
1765877512.909524,496
1765877512.909535,495
1765877512.909546,495
1765877512.909557,495
1765877512.909569,495
1765877512.90958,495
1765877512.909591,495
1765877512.9096022,495
1765877512.909614,495
1765877512.909625,495
1765877512.9096372,495
1765877512.909651,495
1765877512.909663,495
1765877512.909674,496
1765877512.909685,495
1765877512.909696,495
1765877512.909708,495
1765877512.909719,496
1765877512.90973,495
1765877512.9097412,495
1765877512.9097521,495
1765877512.909764,495
1765877512.909775,495
1765877512.909787,495
1765877512.909798,495
1765877512.9098098,495
1765877512.909821,495
1765877512.909832,495
1765877512.909844,495
1765877512.909855,495
1765877512.909866,495
1765877512.909877,495
1765877512.909888,495
1765877512.9099,495
1765877512.9099112,495
1765877512.9099221,495
1765877512.909933,495
1765877512.909947,495
1765877512.9099588,495
1765877512.909971,496
1765877512.9100878,495
1765877512.9101,496
1765877512.910166,495
1765877512.910177,495
1765877512.9101892,495
1765877512.9102,495
1765877512.910211,495
1765877512.910222,495
1765877512.9102342,496
1765877512.9102452,495
1765877512.9102569,495
1765877512.9102678,496
1765877512.9102788,495
1765877512.91029,495
1765877512.910302,495
1765877512.910313,495
1765877512.9103239,495
1765877512.910335,495
1765877512.910346,495
1765877512.910358,495
1765877512.910369,495
1765877512.9103801,495
1765877512.910392,495
1765877512.9104068,495
1765877512.910418,495
1765877512.9104278,495
1765877512.9104378,495
1765877512.9104488,495
1765877512.9104588,495
1765877512.910469,495
1765877512.910479,495
1765877512.910489,495
1765877512.9104981,495
1765877512.910508,495
1765877512.9105191,495
1765877512.9105291,495
1765877512.910539,496
1765877512.910549,495
1765877512.910559,496
1765877512.910569,495
1765877512.910579,496
1765877512.910589,494
1765877512.910599,495
1765877512.910609,495
1765877512.91062,495
1765877512.91063,496
1765877512.9106402,495
1765877512.91065,495
1765877512.91066,495
1765877512.91067,495
1765877512.9106848,495
1765877512.910696,495
1765877512.9107058,495
1765877512.9107158,496
1765877512.910727,495
1765877512.9107368,495
1765877512.9107468,495
1765877512.910757,495
1765877512.910767,495
1765877512.910778,495
1765877512.910788,494
1765877512.910798,496
1765877512.910809,495
1765877512.910819,495
1765877512.910829,495
1765877512.91084,495
1765877512.91085,494
1765877512.91086,495
1765877512.91087,496
1765877512.910881,495
1765877512.910891,496
1765877512.910901,495
1765877512.910911,495
1765877512.910922,495
1765877512.910932,495
1765877512.9109418,495
1765877512.910954,495
1765877512.910966,496
1765877512.910976,495
1765877512.910986,494
1765877512.910997,494
1765877512.911008,495
1765877512.911018,495
1765877512.911028,495
1765877512.911036,495
1765877512.9110432,495
1765877512.911051,495
1765877512.911058,495
1765877512.911065,495
1765877512.911072,495
1765877512.91108,495
1765877512.911087,495
1765877512.9110951,495
1765877512.911102,495
1765877512.91111,494
1765877512.911117,494
1765877512.911124,495
1765877512.9111319,495
1765877512.911139,495
1765877512.911147,495
1765877512.911154,495
1765877512.9111621,495
1765877512.911171,494
1765877512.91118,495
1765877512.911187,495
1765877512.9111948,495
1765877512.911202,496
1765877512.91121,495
1765877512.911217,495
1765877512.9112241,495
1765877512.911232,495
1765877512.911239,495
1765877512.911247,495
1765877512.911254,495
1765877512.9112608,495
1765877512.9112692,494
1765877512.911276,495
1765877512.911283,494
1765877512.9112902,495
1765877512.911297,495
1765877512.911305,495
1765877512.9113119,495
1765877512.911319,495
1765877512.911326,495
1765877512.9113338,495
1765877512.911341,495
1765877512.9113479,495
1765877512.9113548,495
1765877512.911362,495
1765877512.911371,495
1765877512.9113789,495
1765877512.911386,495
1765877512.911393,495
1765877512.9113998,495
1765877512.911407,495
1765877512.911414,495
1765877512.911422,495
1765877512.9114292,495
1765877512.911436,494
1765877512.911443,495
1765877512.9114501,495
1765877512.911457,495
1765877512.91148,494
1765877512.9114869,495
1765877512.9114938,495
1765877512.9115021,494
1765877512.911509,494
1765877512.911516,494
1765877512.911523,494
1765877512.91153,494
1765877512.911538,495
1765877512.911545,495
1765877512.911552,495
1765877512.9115589,495
1765877512.911566,495
1765877512.911575,495
1765877512.911584,495
1765877512.9115908,495
1765877512.911598,495
1765877512.911606,495
1765877512.911613,495
1765877512.9116201,495
1765877512.911627,495
1765877512.911634,495
1765877512.9116411,495
1765877512.911648,496
1765877512.911655,496
1765877512.911663,496
1765877512.91167,496
1765877512.911677,496
1765877512.911684,496
1765877512.911691,496
1765877512.9116979,496
1765877512.911705,496
1765877512.911712,496
1765877512.9117188,496
1765877512.9117272,496
1765877512.911734,496
1765877512.911741,496
1765877512.9117482,495
1765877512.911755,495
1765877512.911762,495
1765877512.911772,495
1765877512.91178,495
1765877512.911787,495
1765877512.911794,495
1765877512.911801,495
1765877512.911808,494
1765877512.911815,495
1765877512.911822,494
1765877512.911829,495
1765877512.911836,495
1765877512.911843,495
1765877512.91185,495
1765877512.911857,495
1765877512.911864,495
1765877512.911871,495
1765877512.9118779,495
1765877512.911885,495
1765877512.911893,495
1765877512.9118998,495
1765877512.911907,495
1765877512.9119139,494
1765877512.9119208,495
1765877512.9119282,495
1765877512.911935,495
1765877512.911942,495
1765877512.91195,495
1765877512.911958,495
1765877512.911967,495
1765877512.911974,495
1765877512.911981,494
1765877512.911988,495
1765877512.911995,495
1765877512.912002,495
1765877512.912009,496
1765877512.912016,495
1765877512.912023,495
1765877512.912031,495
1765877512.9120378,494
1765877512.912045,494
1765877512.912052,495
1765877512.9120588,495
1765877512.912066,495
1765877512.912073,495
1765877512.9120798,495
1765877512.912087,494
1765877512.9120939,495
1765877512.912101,494
1765877512.912108,495
1765877512.9121149,495
1765877512.912123,495
1765877512.91213,495
1765877512.912137,495
1765877512.912144,494
1765877512.912153,495
1765877512.912161,495
1765877512.912168,495
1765877512.9121752,495
1765877512.912182,495
1765877512.912189,495
1765877512.912197,495
1765877512.912204,495
1765877512.912211,495
1765877512.912218,495
1765877512.912225,495
1765877512.912232,495
1765877512.912239,495
1765877512.912246,495
1765877512.912253,494
1765877512.91226,494
1765877512.912267,494
1765877512.9122748,495
1765877512.9122822,495
1765877512.9122891,495
1765877512.9122958,495
1765877512.9123242,495
1765877512.912331,495
1765877512.912338,495
1765877512.9123452,495
1765877512.912352,495
1765877512.912361,495
1765877512.912369,495
1765877512.912377,495
1765877512.912384,495
1765877512.912391,495
1765877512.912398,495
1765877512.912405,496
1765877512.912412,495
1765877512.912419,495
1765877512.912427,495
1765877512.912433,496
1765877512.912441,496
1765877512.912448,496
1765877512.9124548,495
1765877512.912462,494
1765877512.912469,494
1765877512.9124758,494
1765877512.912483,495
1765877512.91249,494
1765877512.9124968,494
1765877512.912504,494
1765877512.9125109,494
1765877512.9125178,494
1765877512.912525,495
1765877512.9125319,495
1765877512.9125388,494
1765877512.9125462,495
1765877512.912559,495
1765877512.912566,494
1765877512.9125729,494
1765877512.91258,495
1765877512.912587,495
1765877512.9125938,495
1765877512.912601,495
1765877512.912608,495
1765877512.9126148,494
1765877512.912622,495
1765877512.912629,495
1765877512.9126358,494
1765877512.9126441,494
1765877512.9126499,494
1765877512.912658,494
1765877512.9126651,495
1765877512.912672,495
1765877512.912679,494
1765877512.912686,495
1765877512.912693,494
1765877512.9127,495
1765877512.912707,494
1765877512.912714,494
1765877512.912721,494
1765877512.912729,494
1765877512.912736,495
1765877512.912748,495
1765877512.912755,495
1765877512.9127622,494
1765877512.912769,495
1765877512.912776,495
1765877512.9127831,494
1765877512.91279,495
1765877512.912797,495
1765877512.9128041,495
1765877512.912811,495
1765877512.912819,495
1765877512.912826,495
1765877512.912833,494
1765877512.91284,494
1765877512.912847,495
1765877512.912854,494
1765877512.912862,494
1765877512.9128692,494
1765877512.9128761,494
1765877512.912883,495
1765877512.9128902,495
1765877512.912898,495
1765877512.912905,495
1765877512.912912,495
1765877512.912926,495
1765877512.912933,494
1765877512.9129431,495
1765877512.91295,495
1765877512.912958,495
1765877512.912965,494
1765877512.9129732,495
1765877512.91298,495
1765877512.912988,494
1765877512.912995,494
1765877512.913002,495
1765877512.91301,495
1765877512.913017,495
1765877512.913024,495
1765877512.9130309,495
1765877512.9130392,495
1765877512.9130461,495
1765877512.913053,495
1765877512.9130602,495
1765877512.913068,495
1765877512.913075,495
1765877512.9130821,495
1765877512.91309,495
1765877512.913097,495
1765877512.9131038,495
1765877512.9131122,495
1765877512.913119,495
1765877512.913126,495
1765877512.9131331,495
1765877512.9131432,494
1765877512.913151,495
1765877512.913159,495
1765877512.913166,495
1765877512.913174,495
1765877512.9131808,495
1765877512.913188,495
1765877512.913195,495
1765877512.913203,495
1765877512.9132102,495
1765877512.913217,494
1765877512.913224,495
1765877512.9132311,495
1765877512.913239,495
1765877512.913246,495
1765877512.913253,494
1765877512.91326,495
1765877512.913267,494
1765877512.9132748,495
1765877512.9132822,495
1765877512.913289,495
1765877512.913296,495
1765877512.9133031,495
1765877512.913311,495
1765877512.913318,495
1765877512.913325,495
1765877512.913332,495
1765877512.913341,495
1765877512.9133499,495
1765877512.913357,495
1765877512.913364,495
1765877512.9133718,495
1765877512.913379,495
1765877512.9133859,495
1765877512.913394,495
1765877512.9134011,495
1765877512.913408,495
1765877512.913415,495
1765877512.913423,495
1765877512.91343,495
1765877512.913437,494
1765877512.913444,495
1765877512.913451,495
1765877512.913459,495
1765877512.9134662,494
1765877512.9134731,495
1765877512.91348,495
1765877512.9134872,495
1765877512.913495,495
1765877512.913502,495
1765877512.9135091,496
1765877512.913516,495
1765877512.913523,495
1765877512.9135308,495
1765877512.9135401,495
1765877512.913548,495
1765877512.913555,495
1765877512.9135628,495
1765877512.9135702,495
1765877512.9135768,495
1765877512.9135842,495
1765877512.9135911,495
1765877512.913598,495
1765877512.913606,495
1765877512.913613,495
1765877512.91362,495
1765877512.913627,495
1765877512.913634,495
1765877512.913642,495
1765877512.9136488,495
1765877512.913656,495
1765877512.913663,495
1765877512.9136698,495
1765877512.9136782,495
1765877512.913685,495
1765877512.913692,495
1765877512.9137,495
1765877512.913707,495
1765877512.913714,494
1765877512.913721,495
1765877512.913731,495
1765877512.913739,495
1765877512.9137459,495
1765877512.913753,495
1765877512.91376,495
1765877512.9137669,495
1765877512.913774,495
1765877512.913781,495
1765877512.913789,496
1765877512.913795,496
1765877512.913802,496
1765877512.91381,496
1765877512.9138172,495
1765877512.913823,495
1765877512.913831,495
1765877512.9138381,496
1765877512.913845,495
1765877512.913852,495
1765877512.9138591,494
1765877512.913866,495
1765877512.913873,495
1765877512.91388,495
1765877512.913888,495
1765877512.913895,495
1765877512.913902,495
1765877512.913909,495
1765877512.9139159,495
1765877512.913926,495
1765877512.913933,495
1765877512.91394,495
1765877512.9139469,495
1765877512.913954,495
1765877512.913961,495
1765877512.913968,495
1765877512.913975,495
1765877512.9139829,495
1765877512.9139898,495
1765877512.9139972,495
1765877512.9140038,495
1765877512.91401,495
1765877512.9140182,496
1765877512.914025,495
1765877512.9140322,495
1765877512.9140391,495
1765877512.914046,495
1765877512.9140532,495
1765877512.91406,495
1765877512.914067,495
1765877512.9140742,495
1765877512.914081,495
1765877512.914088,495
1765877512.9140952,495
1765877512.914102,495
1765877512.914111,495
1765877512.9148932,495
1765877512.914902,496
1765877512.914909,495
1765877512.9149172,495
1765877512.9149241,495
1765877512.914931,495
1765877512.9149382,495
1765877512.9149451,496
1765877512.914952,495
1765877512.91496,496
1765877512.914967,495
1765877512.914974,495
1765877512.915148,495
1765877512.915159,495
1765877512.91517,495
1765877512.91518,495
1765877512.91519,495
1765877512.9151978,495
1765877512.915206,495
1765877512.915213,495
1765877512.91522,495
1765877512.915227,496
1765877512.915234,496
1765877512.915241,496
1765877512.9152482,497
1765877512.915257,496
1765877512.915265,497
1765877512.915272,496
1765877512.9152792,496
1765877512.915287,496
1765877512.915295,497
1765877512.9153018,496
1765877512.915309,496
1765877512.9153159,496
1765877512.9153228,497
1765877512.91533,495
1765877512.9153368,496
1765877512.9153438,496
1765877512.9153512,495
1765877512.915358,495
1765877512.915366,495
1765877512.915373,496
1765877512.91538,495
1765877512.915387,495
1765877512.915394,495
1765877512.915401,495
1765877512.915408,495
1765877512.915415,495
1765877512.915422,495
1765877512.9154298,495
1765877512.915437,496
1765877512.915483,496
1765877512.915492,495
1765877512.9155,496
1765877512.9155068,496
1765877512.9155142,496
1765877512.915521,495
1765877512.9155278,495
1765877512.9155352,495
1765877512.9155421,496
1765877512.915549,496
1765877512.9155562,495
1765877512.915563,496
1765877512.91557,495
1765877512.9155781,495
1765877512.915585,495
1765877512.915591,495
1765877512.915599,495
1765877512.915606,495
1765877512.915613,495
1765877512.91562,495
1765877512.915627,496
1765877512.915634,495
1765877512.915641,495
1765877512.915648,495
1765877512.915655,495
1765877512.915662,495
1765877512.9156742,495
1765877512.9156811,495
1765877512.91569,495
1765877512.9156978,496
1765877512.9157052,496
1765877512.915712,495
1765877512.9157188,495
1765877512.9157271,495
1765877512.915734,495
1765877512.91574,496
1765877512.9157472,496
1765877512.915754,496
1765877512.915761,496
1765877512.9157681,495
1765877512.915775,495
1765877512.915802,495
1765877512.915809,495
1765877512.9158158,494
1765877512.9158232,494
1765877512.91583,494
1765877512.9158368,495
1765877512.9158442,495
1765877512.915851,496
1765877512.915859,495
1765877512.9158661,495
1765877512.915873,495
1765877512.91588,495
1765877512.915887,495
1765877512.915909,495
1765877512.9159172,495
1765877512.915924,496
1765877512.915931,495
1765877512.9159381,495
1765877512.915945,496
1765877512.9159522,495
1765877512.91596,496
1765877512.915967,496
1765877512.915974,495
1765877512.915981,496
1765877512.915988,495
1765877512.915995,495
1765877512.916003,495
1765877512.91601,496
1765877512.9160168,495
1765877512.916024,495
1765877512.916031,495
1765877512.9160378,496
1765877512.916045,495
1765877512.916053,495
1765877512.91606,496
1765877512.9160671,496
1765877512.916074,496
1765877512.916081,495
1765877512.916089,495
1765877512.91611,495
1765877512.91613,495
1765877512.916141,495
1765877512.916151,495
1765877512.916161,495
1765877512.916171,496
1765877512.916181,496
1765877512.9161909,495
1765877512.916202,495
1765877512.916212,495
1765877512.9162219,495
1765877512.9162319,496
1765877512.916242,495
1765877512.916252,495
1765877512.916262,495
1765877512.9162722,495
1765877512.9162822,496
1765877512.9162931,495
1765877512.9163032,495
1765877512.9163132,495
1765877512.9163232,495
1765877512.916333,496
1765877512.916343,495
1765877512.916353,495
1765877512.916364,496
1765877512.916374,495
1765877512.916384,496
1765877512.916397,496
1765877512.916407,495
1765877512.9164171,495
1765877512.916427,495
1765877512.916437,496
1765877512.916447,495
1765877512.916457,496
1765877512.916467,496
1765877512.916477,495
1765877512.916487,495
1765877512.916497,496
1765877512.9165068,495
1765877512.916517,496
1765877512.916527,495
1765877512.916537,495
1765877512.916548,496
1765877512.916558,495
1765877512.916568,496
1765877512.916578,495
1765877512.916588,495
1765877512.916598,495
1765877512.916608,495
1765877512.9166179,496
1765877512.916628,495
1765877512.916638,495
1765877512.916648,495
1765877512.91666,495
1765877512.916672,495
1765877512.916682,496
1765877512.916692,495
1765877512.916702,496
1765877512.916712,495
1765877512.9167218,495
1765877512.9167309,496
1765877512.9167411,496
1765877512.9167511,496
1765877512.9167612,495
1765877512.9167712,495
1765877512.916781,495
1765877512.916791,495
1765877512.916801,495
1765877512.916811,495
1765877512.916821,495
1765877512.916831,495
1765877512.916841,495
1765877512.916851,496
1765877512.9168608,495
1765877512.9168708,495
1765877512.9168808,496
1765877512.9168909,496
1765877512.916901,496
1765877512.9169111,495
1765877512.9169211,496
1765877512.9169338,495
1765877512.9169438,495
1765877512.916955,495
1765877512.916965,495
1765877512.916975,495
1765877512.916985,494
1765877512.916995,494
1765877512.917005,495
1765877512.917015,494
1765877512.917025,495
1765877512.917035,495
1765877512.9170449,495
1765877512.917055,496
1765877512.917065,495
1765877512.917075,495
1765877512.917085,495
1765877512.917096,495
1765877512.917106,495
1765877512.917116,495
1765877512.917126,495
1765877512.917136,495
1765877512.9171462,495
1765877512.917156,495
1765877512.917166,495
1765877512.917176,495
1765877512.917186,495
1765877512.9171999,495
1765877512.9172108,496
1765877512.917221,496
1765877512.917231,495
1765877512.917241,495
1765877512.917251,495
1765877512.9172611,495
1765877512.9172711,495
1765877512.917281,495
1765877512.917291,496
1765877512.917301,495
1765877512.917311,495
1765877512.917321,495
1765877512.917331,495
1765877512.917341,495
1765877512.917351,495
1765877512.9173608,495
1765877512.917398,496
1765877512.917409,495
1765877512.917421,495
1765877512.917431,495
1765877512.9174411,495
1765877512.917451,496
1765877512.917461,495
1765877512.917471,496
1765877512.917481,496
1765877512.917493,496
1765877512.917504,495
1765877512.917514,495
1765877512.9175239,495
1765877512.9175339,495
1765877512.917544,495
1765877512.917554,495
1765877512.917564,495
1765877512.917574,495
1765877512.917591,495
1765877512.917601,496
1765877512.917612,496
1765877512.917623,495
1765877512.917632,495
1765877512.917643,495
1765877512.917653,495
1765877512.9176629,495
1765877512.9176729,495
1765877512.917684,495
1765877512.9176939,495
1765877512.9177039,496
1765877512.9177139,495
1765877512.917724,495
1765877512.917734,495
1765877512.9177442,495
1765877512.9177542,495
1765877512.9177659,495
1765877512.917778,495
1765877512.9177878,495
1765877512.9177978,496
1765877512.917808,495
1765877512.917818,495
1765877512.917828,495
1765877512.917838,495
1765877512.917848,495
1765877512.917859,495
1765877512.917869,495
1765877512.917879,495
1765877512.917889,496
1765877512.917899,495
1765877512.917909,496
1765877512.917919,495
1765877512.917929,495
1765877512.917939,495
1765877512.917949,495
1765877512.91796,495
1765877512.91797,495
1765877512.91798,495
1765877512.91799,495
1765877512.9180002,495
1765877512.91801,495
1765877512.91802,495
1765877512.91803,495
1765877512.918043,496
1765877512.9180532,495
1765877512.9180632,495
1765877512.9180732,495
1765877512.9180832,495
1765877512.918093,495
1765877512.918103,495
1765877512.918112,495
1765877512.9181209,495
1765877512.91813,495
1765877512.918139,495
1765877512.918148,495
1765877512.918158,495
1765877512.918167,495
1765877512.918176,495
1765877512.918185,495
1765877512.9181938,495
1765877512.9182029,496
1765877512.9182122,495
1765877512.9182222,495
1765877512.918231,495
1765877512.91824,495
1765877512.918249,495
1765877512.918258,495
1765877512.9182668,495
1765877512.918276,495
1765877512.918287,495
1765877512.918298,494
1765877512.918307,496
1765877512.9183161,495
1765877512.918325,495
1765877512.9183412,496
1765877512.91835,495
1765877512.918358,495
1765877512.918367,495
1765877512.918377,494
1765877512.918386,495
1765877512.9183948,495
1765877512.918404,495
1765877512.9184132,496
1765877512.918422,495
1765877512.918431,495
1765877512.9184399,495
1765877512.918449,495
1765877512.9184582,495
1765877512.918467,495
1765877512.918476,495
1765877512.918485,494
1765877512.918494,494
1765877512.9185028,495
1765877512.918512,495
1765877512.9185212,496
1765877512.9185321,495
1765877512.9185421,496
1765877512.918551,495
1765877512.918559,495
1765877512.918568,495
1765877512.918577,495
1765877512.918587,495
1765877512.918596,494
1765877512.918605,495
1765877512.918614,495
1765877512.918623,496
1765877512.918632,495
1765877512.9186409,495
1765877512.9186502,495
1765877512.918659,496
1765877512.918668,497
1765877512.918678,497
1765877512.9186869,497
1765877512.918696,496
1765877512.918705,496
1765877512.918714,496
1765877512.918723,496
1765877512.918732,495
1765877512.918741,495
1765877512.918751,496
1765877512.9187598,495
1765877512.918769,496
1765877512.9187799,496
1765877512.9187899,496
1765877512.9187992,495
1765877512.918808,495
1765877512.918817,495
1765877512.9188259,495
1765877512.918835,496
1765877512.918844,496
1765877512.918853,496
1765877512.918863,495
1765877512.918872,495
1765877512.918881,495
1765877512.91889,496
1765877512.918899,495
1765877512.9189079,495
1765877512.9189172,495
1765877512.918926,496
1765877512.918936,495
1765877512.918945,495
1765877512.918954,495
1765877512.918963,495
1765877512.918972,495
1765877512.918981,495
1765877512.9189901,495
1765877512.918999,495
1765877512.919008,495
1765877512.919019,496
1765877512.919029,495
1765877512.919039,495
1765877512.9190478,496
1765877512.919057,495
1765877512.9190662,495
1765877512.919075,495
1765877512.919084,495
1765877512.919093,495
1765877512.919103,496
1765877512.919112,495
1765877512.9191208,495
1765877512.91913,496
1765877512.9191391,497
1765877512.919148,496
1765877512.919157,495
1765877512.9191658,494
1765877512.919175,494
1765877512.919184,495
1765877512.9191942,495
1765877512.919203,494
1765877512.919212,495
1765877512.919221,495
1765877512.91923,495
1765877512.9192388,495
1765877512.9192479,495
1765877512.9192572,496
1765877512.919271,496
1765877512.91928,495
1765877512.919289,495
1765877512.919298,495
1765877512.919307,496
1765877512.919316,495
1765877512.9193249,495
1765877512.919335,496
1765877512.9193442,496
1765877512.919353,495
1765877512.919362,495
1765877512.919369,496
1765877512.919376,495
1765877512.919383,495
1765877512.919391,495
1765877512.9193978,495
1765877512.919405,496
1765877512.919412,494
1765877512.9194188,495
1765877512.919426,495
1765877512.919434,496
1765877512.919441,495
1765877512.9194481,495
1765877512.919455,495
1765877512.919463,495
1765877512.91947,495
1765877512.9194791,495
1765877512.919488,496
1765877512.9194949,495
1765877512.919502,495
1765877512.919509,495
1765877512.9195158,495
1765877512.9195242,495
1765877512.919531,495
1765877512.919538,496
1765877512.9195452,496
1765877512.919552,496
1765877512.91956,497
1765877512.919567,497
1765877512.919574,497
1765877512.919581,496
1765877512.919588,495
1765877512.919596,494
1765877512.9196029,494
1765877512.91961,494
1765877512.919617,495
1765877512.9196239,495
1765877512.919631,496
1765877512.919639,495
1765877512.919646,495
1765877512.9196532,495
1765877512.91966,495
1765877512.919669,495
1765877512.919677,495
1765877512.9196842,495
1765877512.919691,495
1765877512.919698,495
1765877512.919706,496
1765877512.919713,495
1765877512.91972,495
1765877512.919727,496
1765877512.919734,495
1765877512.919741,495
1765877512.919748,496
1765877512.919756,496
1765877512.9197628,495
1765877512.91977,496
1765877512.919777,494
1765877512.9197838,495
1765877512.9197922,495
1765877512.919799,494
1765877512.919806,495
1765877512.9198132,495
1765877512.91982,495
1765877512.919827,495
1765877512.9198349,495
1765877512.919842,495
1765877512.919849,495
1765877512.919858,496
1765877512.9198751,495
1765877512.919883,495
1765877512.9198909,495
1765877512.919898,495
1765877512.919905,495
1765877512.9199119,495
1765877512.919919,495
1765877512.919926,495
1765877512.9199328,495
1765877512.9199412,496
1765877512.919948,495
1765877512.919955,496
1765877512.9199622,495
1765877512.919969,495
1765877512.919976,495
1765877512.9199831,495
1765877512.91999,496
1765877512.919997,495
1765877512.920005,496
1765877512.920012,495
1765877512.920019,496
1765877512.920026,495
1765877512.920033,496
1765877512.92004,496
1765877512.920047,496
1765877512.920054,496
1765877512.920063,496
1765877512.920071,495
1765877512.920078,496
1765877512.920085,495
1765877512.9200919,495
1765877512.9201002,495
1765877512.9201071,495
1765877512.9201138,495
1765877512.9201212,495
1765877512.920128,495
1765877512.920135,496
1765877512.9201422,496
1765877512.92015,495
1765877512.920157,496
1765877512.920164,495
1765877512.920171,496
1765877512.920178,496
1765877512.920185,495
1765877512.920192,495
1765877512.920199,496
1765877512.920206,496
1765877512.920214,496
1765877512.9202209,496
1765877512.920228,496
1765877512.920235,496
1765877512.9202418,496
1765877512.920249,496
1765877512.920258,496
1765877512.920266,496
1765877512.9202728,496
1765877512.92028,496
1765877512.920287,495
1765877512.9202938,495
1765877512.920301,495
1765877512.920309,495
1765877512.920316,496
1765877512.9203231,495
1765877512.92033,495
1765877512.920337,496
1765877512.920344,495
1765877512.920352,496
1765877512.920359,495
1765877512.920366,496
1765877512.920373,495
1765877512.9203799,496
1765877512.920387,495
1765877512.920394,496
1765877512.9204009,495
1765877512.9204092,496
1765877512.9204311,495
1765877512.920438,496
1765877512.920445,496
1765877512.920452,496
1765877512.92046,495
1765877512.92047,496
1765877512.9204779,496
1765877512.920485,496
1765877512.920492,496
1765877512.9204988,496
1765877512.920506,496
1765877512.920513,496
1765877512.920521,496
1765877512.920528,495
1765877512.920535,495
1765877512.920542,496
1765877512.9205492,495
1765877512.920557,495
1765877512.920564,495
1765877512.9205709,495
1765877512.920578,496
1765877512.920585,496
1765877512.9205918,496
1765877512.9206011,495
1765877512.920608,496
1765877512.920615,496
1765877512.920622,496
1765877512.920629,496
1765877512.920636,496
1765877512.920643,496
1765877512.920651,495
1765877512.920663,495
1765877512.92067,496
1765877512.9206772,496
1765877512.920684,496
1765877512.920691,496
1765877512.920699,496
1765877512.920706,496
1765877512.920713,495
1765877512.9207199,496
1765877512.920727,496
1765877512.920734,496
1765877512.920741,496
1765877512.920748,496
1765877512.920755,495
1765877512.920762,496
1765877512.920769,496
1765877512.9207768,496
1765877512.9207838,496
1765877512.9207911,496
1765877512.920798,496
1765877512.9208052,496
1765877512.9208121,495
1765877512.92082,495
1765877512.920827,495
1765877512.920834,496
1765877512.920841,496
1765877512.92085,495
1765877512.9208581,496
1765877512.920865,495
1765877512.920872,496
1765877512.9208791,496
1765877512.920886,495
1765877512.920893,495
1765877512.9209,496
1765877512.920908,495
1765877512.920915,495
1765877512.920922,496
1765877512.920929,495
1765877512.9209359,495
1765877512.9209442,496
1765877512.9209511,495
1765877512.920958,496
1765877512.9209652,496
1765877512.920972,495
1765877512.920979,496
1765877512.9209862,496
1765877512.920993,496
1765877512.921001,496
1765877512.921008,496
1765877512.921015,496
1765877512.921022,496
1765877512.921029,496
1765877512.921036,496
1765877512.921045,496
1765877512.921054,496
1765877512.921061,496
1765877512.921068,496
1765877512.9210749,496
1765877512.921082,496
1765877512.921089,496
1765877512.9210958,495
1765877512.921103,495
1765877512.921111,495
1765877512.921118,495
1765877512.9211252,496
1765877512.921132,496
1765877512.921139,495
1765877512.9211462,495
1765877512.921153,495
1765877512.92116,495
1765877512.9211671,495
1765877512.921175,496
1765877512.921182,496
1765877512.921189,496
1765877512.921196,496
1765877512.921203,496
1765877512.92121,495
1765877512.921217,496
1765877512.921225,496
1765877512.9212348,496
1765877512.921244,495
1765877512.921251,495
1765877512.921258,496
1765877512.921265,495
1765877512.921272,496
1765877512.921279,495
1765877512.9212868,496
1765877512.921294,496
1765877512.921301,496
1765877512.9213078,496
1765877512.921315,495
1765877512.9213219,495
1765877512.9213288,496
1765877512.9213362,496
1765877512.921344,496
1765877512.921351,496
1765877512.921358,497
1765877512.921365,497
1765877512.921372,497
1765877512.921379,496
1765877512.921386,497
1765877512.9213939,497
1765877512.921401,496
1765877512.921408,496
1765877512.9214149,497
1765877512.921424,496
1765877512.921433,497
1765877512.92144,496
1765877512.921448,497
1765877512.9214551,496
1765877512.921462,495
1765877512.921469,496
1765877512.9214761,496
1765877512.921483,496
1765877512.92149,496
1765877512.921498,496
1765877512.921505,496
1765877512.921512,496
1765877512.921519,495
1765877512.921526,496
1765877512.921534,495
1765877512.9215412,496
1765877512.9215481,495
1765877512.921555,495
1765877512.9215622,496
1765877512.92157,496
1765877512.921577,495
1765877512.9215841,495
1765877512.921591,495
1765877512.921598,495
1765877512.9216058,496
1765877512.921613,495
1765877512.921621,496
1765877512.92163,495
1765877512.921637,496
1765877512.921644,495
1765877512.921651,496
1765877512.921658,495
1765877512.9216661,496
1765877512.921673,495
1765877512.92168,495
1765877512.9216871,496
1765877512.921695,496
1765877512.921702,496
1765877512.921709,496
1765877512.921716,496
1765877512.921723,495
1765877512.92173,495
1765877512.921758,496
1765877512.9217658,495
1765877512.921773,496
1765877512.9217799,495
1765877512.9217868,495
1765877512.921794,495
1765877512.921802,495
1765877512.921809,495
1765877512.921816,496
1765877512.921823,496
1765877512.92183,495
1765877512.9218402,495
1765877512.921848,495
1765877512.921896,496
1765877512.921906,496
1765877512.921914,495
1765877512.921921,495
1765877512.921928,496
1765877512.9219358,495
1765877512.921943,495
1765877512.9219499,496
1765877512.921957,496
1765877512.921964,496
1765877512.9219708,495
1765877512.921978,495
1765877512.921985,496
1765877512.9219918,496
1765877512.922,496
1765877512.922007,496
1765877512.922014,496
1765877512.9220212,495
1765877512.922028,495
1765877512.922035,495
1765877512.9220428,496
1765877512.92205,496
1765877512.922057,495
1765877512.9220638,495
1765877512.9220731,495
1765877512.922081,495
1765877512.922088,496
1765877512.922095,496
1765877512.922102,496
1765877512.922109,496
1765877512.9221172,495
1765877512.9221241,494
1765877512.922131,495
1765877512.9221382,495
1765877512.9221451,496
1765877512.922152,496
1765877512.9221592,496
1765877512.922167,496
1765877512.922174,495
1765877512.9221811,496
1765877512.922188,495
1765877512.922195,496
1765877512.922202,496
1765877512.922209,496
1765877512.922216,496
1765877512.922223,496
1765877512.92223,495
1765877512.922237,495
1765877512.922244,495
1765877512.922251,495
1765877512.922258,495
1765877512.922267,495
1765877512.922275,496
1765877512.922282,496
1765877512.922289,496
1765877512.922296,495
1765877512.922303,496
1765877512.9223099,495
1765877512.922317,495
1765877512.922324,496
1765877512.9223309,495
1765877512.922338,495
1765877512.922345,495
1765877512.922357,496
1765877512.922364,495
1765877512.9223711,495
1765877512.922378,496
1765877512.922385,496
1765877512.9223921,496
1765877512.922399,496
1765877512.922406,496
1765877512.922413,496
1765877512.92242,495
1765877512.922428,496
1765877512.922435,495
1765877512.922442,495
1765877512.9224489,496
1765877512.922462,496
1765877512.922508,496
1765877512.922515,495
1765877512.922522,496
1765877512.92253,496
1765877512.9225368,496
1765877512.9225442,496
1765877512.9225512,496
1765877512.922558,495
1765877512.9225652,496
1765877512.9225721,495
1765877512.922579,496
1765877512.9225862,496
1765877512.922593,496
1765877512.9226,496
1765877512.9226072,496
1765877512.922614,496
1765877512.922622,496
1765877512.922629,495
1765877512.922636,495
1765877512.922643,496
1765877512.92265,495
1765877512.922657,495
1765877512.922664,495
1765877512.922671,495
1765877512.922678,495
1765877512.922687,495
1765877512.922695,496
1765877512.922702,496
1765877512.922709,496
1765877512.922716,496
1765877512.922723,496
1765877512.92273,495
1765877512.922737,495
1765877512.922744,495
1765877512.922751,496
1765877512.9227579,496
1765877512.922765,495
1765877512.922772,496
1765877512.9227788,495
1765877512.922786,495
1765877512.922793,495
1765877512.9228,496
1765877512.922807,496
1765877512.922815,495
1765877512.922822,496
1765877512.9228292,495
1765877512.922836,496
1765877512.922843,495
1765877512.9228501,495
1765877512.922857,495
1765877512.9228642,496
1765877512.922871,496
1765877512.922879,496
1765877512.922888,496
1765877512.9228952,496
1765877512.922902,496
1765877512.922909,496
1765877512.9229162,496
1765877512.922923,495
1765877512.92293,495
1765877512.9229372,496
1765877512.922944,497
1765877512.922951,497
1765877512.9229581,496
1765877512.922966,496
1765877512.922975,495
1765877512.922983,495
1765877512.9229922,496
1765877512.923001,495
1765877512.92301,496
1765877512.923019,496
1765877512.923028,496
1765877512.9230368,496
1765877512.9230459,496
1765877512.9230552,495
1765877512.923064,495
1765877512.923072,496
1765877512.923081,496
1765877512.92309,496
1765877512.923098,496
1765877512.923105,496
1765877512.923112,496
1765877512.92312,495
1765877512.923127,496
1765877512.9231339,496
1765877512.923141,495
1765877512.923148,496
1765877512.9231548,496
1765877512.923163,496
1765877512.92317,495
1765877512.923177,495
1765877512.9231842,496
1765877512.923191,495
1765877512.923198,496
1765877512.9232051,495
1765877512.923212,495
1765877512.923219,495
1765877512.923226,496
1765877512.923233,496
1765877512.92324,496
1765877512.923247,496
1765877512.923255,496
1765877512.923262,495
1765877512.923269,496
1765877512.923276,496
1765877512.923284,496
1765877512.923292,495
1765877512.923299,496
1765877512.923307,494
1765877512.9233139,495
1765877512.923321,495
1765877512.923328,496
1765877512.9233348,496
1765877512.923342,496
1765877512.923349,496
1765877512.9233558,496
1765877512.923363,495
1765877512.92337,496
1765877512.9233768,495
1765877512.923384,496
1765877512.9233909,496
1765877512.9233978,495
1765877512.9234061,496
1765877512.923413,496
1765877512.92342,496
1765877512.923427,495
1765877512.923434,496
1765877512.923441,496
1765877512.923448,495
1765877512.923455,495
1765877512.923462,496
1765877512.923469,496
1765877512.9234781,496
1765877512.923486,496
1765877512.9234931,496
1765877512.9235,496
1765877512.923507,495
1765877512.9235141,496
1765877512.923521,496
1765877512.923528,496
1765877512.923551,496
1765877512.923579,495
1765877512.923587,496
1765877512.923594,496
1765877512.923601,496
1765877512.923608,496
1765877512.923616,496
1765877512.9236228,496
1765877512.92363,496
1765877512.923637,496
1765877512.9236438,495
1765877512.923651,496
1765877512.923658,495
1765877512.9236648,495
1765877512.923672,495
1765877512.9236789,495
1765877512.9236858,496
1765877512.923693,495
1765877512.923702,496
1765877512.923711,497
1765877512.923718,496
1765877512.923727,496
1765877512.923734,496
1765877512.923742,496
1765877512.9237492,496
1765877512.9237561,495
1765877512.923763,496
1765877512.9237702,496
1765877512.923777,496
1765877512.923784,496
1765877512.9237912,496
1765877512.923799,495
1765877512.923806,496
1765877512.923813,496
1765877512.92382,496
1765877512.923828,498
1765877512.9238348,497
1765877512.923842,496
1765877512.9238489,495
1765877512.9238558,496
1765877512.923863,496
1765877512.9238698,496
1765877512.923877,496
1765877512.923885,496
1765877512.923892,496
1765877512.923903,496
1765877512.92391,496
1765877512.923917,496
1765877512.923926,496
1765877512.923933,496
1765877512.9239402,496
1765877512.923947,496
1765877512.923954,496
1765877512.9239612,496
1765877512.923969,496
1765877512.923976,496
1765877512.923983,496
1765877512.923991,496
1765877512.923999,495
1765877512.924007,495
1765877512.9240162,496
1765877512.924024,496
1765877512.924032,497
1765877512.9240398,498
1765877512.924048,497
1765877512.924057,497
1765877512.924065,496
1765877512.924073,497
1765877512.9240808,497
1765877512.9240892,497
1765877512.924098,496
1765877512.9241102,497
1765877512.924119,497
1765877512.9241269,496
1765877512.924135,497
1765877512.924143,496
1765877512.924151,496
1765877512.924159,497
1765877512.9241679,496
1765877512.924176,496
1765877512.924184,496
1765877512.924194,496
1765877512.924202,496
1765877512.9242098,496
1765877512.9242182,496
1765877512.924227,496
1765877512.924235,496
1765877512.924243,496
1765877512.9242508,496
1765877512.9242601,496
1765877512.924268,496
1765877512.9242759,496
1765877512.924285,496
1765877512.924293,496
1765877512.9243011,497
1765877512.924309,496
1765877512.924317,495
1765877512.924327,495
1765877512.924337,495
1765877512.924345,496
1765877512.924375,496
1765877512.924384,496
1765877512.924392,496
1765877512.9244,496
1765877512.924408,496
1765877512.924417,496
1765877512.924425,496
1765877512.924433,496
1765877512.924441,496
1765877512.9244502,496
1765877512.924458,496
1765877512.924466,496
1765877512.924474,496
1765877512.924482,496
1765877512.92449,496
1765877512.9244978,496
1765877512.924507,495
1765877512.924515,496
1765877512.924523,495
1765877512.924531,496
1765877512.9245389,496
1765877512.924547,496
1765877512.924555,496
1765877512.924563,495
1765877512.924575,496
1765877512.924584,497
1765877512.924592,497
1765877512.9246001,496
1765877512.924608,496
1765877512.9246159,495
1765877512.924624,496
1765877512.924632,496
1765877512.92464,495
1765877512.924648,496
1765877512.9246569,496
1765877512.924665,496
1765877512.924673,495
1765877512.924681,495
1765877512.9246888,497
1765877512.9247072,495
1765877512.924716,495
1765877512.9247239,495
1765877512.924733,496
1765877512.924741,496
1765877512.9247491,495
1765877512.924758,497
1765877512.924766,496
1765877512.924774,496
1765877512.924783,496
1765877512.924791,496
1765877512.924801,496
1765877512.9248111,496
1765877512.924819,496
1765877512.9248269,496
1765877512.9248362,496
1765877512.924844,495
1765877512.924852,496
1765877512.92486,496
1765877512.924869,496
1765877512.9248772,496
1765877512.924885,496
1765877512.924893,496
1765877512.924902,496
1765877512.92491,496
1765877512.924918,496
1765877512.924927,496
1765877512.9249349,496
1765877512.9249432,497
1765877512.924951,497
1765877512.92496,496
1765877512.924968,496
1765877512.924976,496
1765877512.924984,496
1765877512.924993,496
1765877512.925001,496
1765877512.925009,496
1765877512.9250188,496
1765877512.925028,496
1765877512.925036,496
1765877512.925044,497
1765877512.925053,496
1765877512.9250612,496
1765877512.925069,496
1765877512.925078,496
1765877512.925086,496
1765877512.925094,496
1765877512.925102,496
1765877512.92511,496
1765877512.925118,497
1765877512.925127,496
1765877512.9251351,496
1765877512.925143,496
1765877512.9251509,496
1765877512.92516,496
1765877512.925168,497
1765877512.9251761,496
1765877512.925184,497
1765877512.925193,496
1765877512.925201,496
1765877512.925209,496
1765877512.925218,497
1765877512.925226,496
1765877512.9252338,496
1765877512.9252439,496
1765877512.925258,496
1765877512.925266,496
1765877512.9252741,496
1765877512.925283,496
1765877512.925291,496
1765877512.925299,496
1765877512.9253068,496
1765877512.9253151,496
1765877512.925324,497
1765877512.925332,496
1765877512.92534,496
1765877512.925348,496
1765877512.925357,496
1765877512.925365,496
1765877512.9253728,497
1765877512.9253812,496
1765877512.92539,496
1765877512.925398,497
1765877512.925406,496
1765877512.9254138,496
1765877512.9254231,496
1765877512.925431,497
1765877512.925439,496
1765877512.925447,496
1765877512.925455,497
1765877512.925466,496
1765877512.9254751,496
1765877512.925483,496
1765877512.925492,496
1765877512.9255,496
1765877512.925508,496
1765877512.9255161,496
1765877512.925524,495
1765877512.9255328,496
1765877512.9255412,496
1765877512.925549,497
1765877512.925558,497
1765877512.925566,496
1765877512.9255738,497
1765877512.9255822,496
1765877512.92559,496
1765877512.925598,496
1765877512.9256058,497
1765877512.925615,496
1765877512.925623,496
1765877512.925631,496
1765877512.9256399,496
1765877512.925648,496
1765877512.925656,496
1765877512.925664,496
1765877512.925672,496
1765877512.9256818,496
1765877512.925691,496
1765877512.925699,496
1765877512.925707,496
1765877512.925716,496
1765877512.9257238,496
1765877512.9257321,497
1765877512.92574,497
1765877512.92575,497
1765877512.925758,496
1765877512.925766,496
1765877512.925775,496
1765877512.9257832,497
1765877512.925791,496
1765877512.9257998,496
1765877512.9258082,496
1765877512.925816,496
1765877512.925824,496
1765877512.925832,496
1765877512.92584,496
1765877512.9258492,496
1765877512.925857,496
1765877512.925865,496
1765877512.9258728,496
1765877512.9258811,496
1765877512.925889,496
1765877512.925898,496
1765877512.9259079,496
1765877512.925917,495
1765877512.925925,496
1765877512.925934,496
1765877512.925942,497
1765877512.92595,496
1765877512.925958,496
1765877512.9259672,497
1765877512.925975,496
1765877512.925983,496
1765877512.9259908,496
1765877512.9259992,496
1765877512.926007,496
1765877512.926016,496
1765877512.926024,497
1765877512.9260318,496
1765877512.9260402,496
1765877512.926048,496
1765877512.926056,497
1765877512.926064,496
1765877512.9260721,496
1765877512.926081,496
1765877512.926089,496
1765877512.926097,496
1765877512.926105,496
1765877512.9261131,496
1765877512.926121,496
1765877512.926132,496
1765877512.926141,496
1765877512.9261491,496
1765877512.926157,496
1765877512.926165,495
1765877512.926173,496
1765877512.9261818,496
1765877512.9261901,496
1765877512.926198,496
1765877512.9262059,496
1765877512.926214,496
1765877512.926222,496
1765877512.92623,496
1765877512.926239,496
1765877512.926247,496
1765877512.926255,496
1765877512.926263,496
1765877512.926271,496
1765877512.9262788,496
1765877512.9262872,496
1765877512.926296,496
1765877512.926304,496
1765877512.926312,496
1765877512.92632,496
1765877512.9263282,496
1765877512.926336,496
1765877512.926346,496
1765877512.926356,496
1765877512.926364,496
1765877512.926372,496
1765877512.92638,496
1765877512.926389,496
1765877512.9263968,497
1765877512.9264052,496
1765877512.926413,496
1765877512.926421,497
1765877512.926429,496
1765877512.9264371,495
1765877512.926445,496
1765877512.9264529,496
1765877512.926461,496
1765877512.926469,497
1765877512.9264781,497
1765877512.926486,497
1765877512.926494,496
1765877512.926502,496
1765877512.926516,496
1765877512.926524,496
1765877512.926532,496
1765877512.926544,496
1765877512.926552,496
1765877512.926561,497
1765877512.926569,497
1765877512.926579,496
1765877512.9265878,496
1765877512.9265962,496
1765877512.926604,496
1765877512.926613,496
1765877512.926621,496
1765877512.926629,496
1765877512.9266372,496
1765877512.926645,496
1765877512.926653,496
1765877512.926661,497
1765877512.92667,496
1765877512.926678,496
