timestamp,emg_value
1765877519.8971388,495
1765877519.897155,495
1765877519.897166,493
1765877519.8971741,493
1765877519.897183,493
1765877519.8971908,494
1765877519.8971992,495
1765877519.897208,494
1765877519.897216,494
1765877519.897224,494
1765877519.897233,494
1765877519.897241,495
1765877519.897249,495
1765877519.8972569,494
1765877519.897265,494
1765877519.897273,493
1765877519.897281,494
1765877519.8972921,496
1765877519.8973,495
1765877519.8973079,496
1765877519.897316,496
1765877519.897324,495
1765877519.897332,495
1765877519.8973398,495
1765877519.8973482,495
1765877519.897364,496
1765877519.897376,496
1765877519.897384,496
1765877519.897392,496
1765877519.8974001,495
1765877519.897408,494
1765877519.8974159,497
1765877519.897424,497
1765877519.897434,495
1765877519.897442,494
1765877519.89745,495
1765877519.8974578,494
1765877519.8974662,492
1765877519.897474,493
1765877519.897482,492
1765877519.89749,492
1765877519.8974998,493
1765877519.8975081,493
1765877519.897516,494
1765877519.8975239,494
1765877519.897532,493
1765877519.89754,494
1765877519.8975492,494
1765877519.897557,494
1765877519.897565,495
1765877519.8975732,495
1765877519.897581,495
1765877519.897591,495
1765877519.897602,494
1765877519.89761,495
1765877519.8976178,495
1765877519.8976262,495
1765877519.897634,496
1765877519.897642,497
1765877519.89765,495
1765877519.89766,494
1765877519.8976681,493
1765877519.897676,494
1765877519.897685,494
1765877519.897693,493
1765877519.897718,496
1765877519.897726,497
1765877519.897734,497
1765877519.897742,497
1765877519.89775,495
1765877519.897758,493
1765877519.8977659,493
1765877519.897774,494
1765877519.897784,494
1765877519.897792,494
1765877519.897801,494
1765877519.8978088,493
1765877519.897844,494
1765877519.897855,494
1765877519.897865,495
1765877519.897873,495
1765877519.897881,494
1765877519.8978891,495
1765877519.897897,498
1765877519.8979049,497
1765877519.897913,497
1765877519.897921,494
1765877519.897929,494
1765877519.8979368,495
1765877519.8979452,498
1765877519.897953,500
1765877519.897961,500
1765877519.897969,495
1765877519.8979871,490
1765877519.898001,491
1765877519.898009,492
1765877519.898017,492
1765877519.898025,493
1765877519.898033,494
1765877519.898041,494
1765877519.898049,495
1765877519.898057,495
1765877519.8980658,494
1765877519.8980742,493
1765877519.898082,493
1765877519.8980942,493
1765877519.8981051,493
1765877519.898113,494
1765877519.8981209,494
1765877519.898153,493
1765877519.898161,495
1765877519.898169,496
1765877519.898177,495
1765877519.898185,495
1765877519.898193,496
1765877519.898201,494
1765877519.898209,493
1765877519.898217,495
1765877519.8982248,494
1765877519.8982332,493
1765877519.898241,494
1765877519.89825,493
1765877519.898258,493
1765877519.898266,493
1765877519.898274,494
1765877519.898282,495
1765877519.89829,495
1765877519.898298,495
1765877519.8983061,494
1765877519.898335,496
1765877519.8983428,495
1765877519.8983512,494
1765877519.8983622,494
1765877519.8983731,494
1765877519.898381,494
1765877519.898389,494
1765877519.898397,494
1765877519.898405,493
1765877519.898413,494
1765877519.898421,495
1765877519.898429,495
1765877519.898438,496
1765877519.898446,496
1765877519.898454,495
1765877519.898462,495
1765877519.89847,498
1765877519.898479,500
1765877519.898487,503
1765877519.898495,502
1765877519.8985028,498
1765877519.8985112,495
1765877519.898519,496
1765877519.898528,495
1765877519.898536,496
1765877519.898544,495
1765877519.8985522,492
1765877519.89856,493
1765877519.898568,494
1765877519.8985758,492
1765877519.898587,493
1765877519.8985999,494
1765877519.8986082,494
1765877519.898616,494
1765877519.898624,494
1765877519.898632,493
1765877519.89864,494
1765877519.898648,494
1765877519.898656,495
1765877519.898664,494
1765877519.8986728,495
1765877519.8986812,495
1765877519.898689,494
1765877519.898697,495
1765877519.8987148,495
1765877519.8987231,495
1765877519.898731,495
1765877519.89874,494
1765877519.898748,494
1765877519.898756,494
1765877519.8987641,495
1765877519.898772,496
1765877519.8987799,494
1765877519.8987892,493
1765877519.898797,494
1765877519.898805,495
1765877519.898813,495
1765877519.898824,494
1765877519.898839,494
1765877519.898853,493
1765877519.898863,494
1765877519.898873,496
1765877519.8988822,497
1765877519.89889,498
1765877519.898898,500
1765877519.8989062,503
1765877519.898914,499
1765877519.898922,495
1765877519.8989298,495
1765877519.8989382,491
1765877519.898946,489
1765877519.898954,490
1765877519.898962,492
1765877519.8989701,493
1765877519.898978,493
1765877519.898986,493
1765877519.898995,493
1765877519.899002,493
1765877519.8990111,493
1765877519.899019,495
1765877519.8990269,495
1765877519.899035,495
1765877519.899043,496
1765877519.899051,497
1765877519.899062,495
1765877519.899072,492
1765877519.899081,493
1765877519.8990889,493
1765877519.8990972,493
1765877519.899105,495
1765877519.899113,496
1765877519.8991208,495
1765877519.8991292,495
1765877519.899137,496
1765877519.899145,494
1765877519.899153,495
1765877519.899162,495
1765877519.8991702,493
1765877519.899178,492
1765877519.899186,494
1765877519.899194,493
1765877519.899202,494
1765877519.89921,494
1765877519.8992178,493
1765877519.8992388,494
1765877519.8992472,494
1765877519.899255,494
1765877519.899263,494
1765877519.899271,494
1765877519.899279,494
1765877519.899287,494
1765877519.899298,494
1765877519.899307,495
1765877519.899318,496
1765877519.8993258,497
1765877519.899334,497
1765877519.899342,498
1765877519.89935,497
1765877519.899358,497
1765877519.899366,498
1765877519.8993752,498
1765877519.899383,495
1765877519.899391,495
1765877519.8993988,495
1765877519.8994071,496
1765877519.899415,497
1765877519.899423,498
1765877519.899431,494
1765877519.899439,491
1765877519.899447,489
1765877519.899455,493
1765877519.899463,492
1765877519.899471,492
1765877519.8994792,492
1765877519.899487,494
1765877519.899495,493
1765877519.8995042,493
1765877519.899512,493
1765877519.899523,493
1765877519.8995311,494
1765877519.899543,494
1765877519.899551,494
1765877519.899559,494
1765877519.8995671,496
1765877519.899575,494
1765877519.8995829,496
1765877519.899592,495
1765877519.8995998,495
1765877519.8996081,494
1765877519.899616,494
1765877519.8996239,494
1765877519.8996322,495
1765877519.89964,495
1765877519.899648,495
1765877519.8996558,496
1765877519.8996649,495
1765877519.899673,493
1765877519.899681,494
1765877519.899689,494
1765877519.8996968,493
1765877519.8997052,494
1765877519.899713,493
1765877519.899721,492
1765877519.899729,493
1765877519.8997371,494
1765877519.899745,494
1765877519.899756,494
1765877519.899767,494
1765877519.899775,495
1765877519.899783,495
1765877519.899791,495
1765877519.899799,495
1765877519.899807,494
1765877519.8998148,493
1765877519.8998232,494
1765877519.899831,495
1765877519.899839,494
1765877519.899847,495
1765877519.8998551,494
1765877519.899863,495
1765877519.899879,495
1765877519.899887,495
1765877519.899895,494
1765877519.899903,494
1765877519.899911,494
1765877519.899919,494
1765877519.8999271,496
1765877519.899935,496
1765877519.8999429,494
1765877519.8999512,495
1765877519.899961,495
1765877519.899969,495
1765877519.899977,496
1765877519.899988,496
1765877519.899999,493
1765877519.900008,495
1765877519.900016,494
1765877519.9000242,493
1765877519.900032,494
1765877519.90004,495
1765877519.9000478,497
1765877519.9000561,498
1765877519.900064,496
1765877519.9000719,499
1765877519.9000802,499
1765877519.900088,495
1765877519.900096,493
1765877519.900104,494
1765877519.900112,493
1765877519.90012,491
1765877519.900128,493
1765877519.900136,494
1765877519.900144,495
1765877519.900152,497
1765877519.900161,496
1765877519.900169,495
1765877519.9001758,491
1765877519.9001842,492
1765877519.900192,494
1765877519.9002,494
1765877519.9002109,495
1765877519.900223,495
1765877519.900231,495
1765877519.900239,494
1765877519.900247,493
1765877519.900255,493
1765877519.9002628,494
1765877519.9002721,495
1765877519.90028,495
1765877519.900288,494
1765877519.900296,494
1765877519.9003038,495
1765877519.900312,494
1765877519.90032,495
1765877519.900328,495
1765877519.900336,495
1765877519.9003441,494
1765877519.900352,494
1765877519.9003599,494
1765877519.900368,494
1765877519.900376,494
1765877519.900384,494
1765877519.9003918,494
1765877519.9004002,496
1765877519.900408,498
1765877519.900416,500
1765877519.900424,500
1765877519.900435,498
1765877519.900447,493
1765877519.900455,495
1765877519.900463,494
1765877519.900471,495
1765877519.900479,493
1765877519.900487,493
1765877519.900495,494
1765877519.9005032,494
1765877519.900512,494
1765877519.9005198,493
1765877519.9005282,494
1765877519.900536,495
1765877519.900544,494
1765877519.900552,494
1765877519.90056,493
1765877519.900568,493
1765877519.900576,493
1765877519.900584,494
1765877519.900592,495
1765877519.9006,495
1765877519.900608,495
1765877519.900616,496
1765877519.9006238,497
1765877519.9006321,497
1765877519.900647,498
1765877519.9006562,497
1765877519.900667,494
1765877519.9006789,491
1765877519.9006872,492
1765877519.900695,494
1765877519.900703,497
1765877519.9007108,499
1765877519.9007201,501
1765877519.900728,500
1765877519.900736,495
1765877519.900744,489
1765877519.9007518,488
1765877519.9007611,492
1765877519.900769,494
1765877519.9007769,494
1765877519.900785,494
1765877519.900793,495
1765877519.900801,495
1765877519.900809,496
1765877519.900817,495
1765877519.900825,495
1765877519.9008331,492
1765877519.900841,493
1765877519.9008489,494
1765877519.900857,494
1765877519.900866,494
1765877519.900874,494
1765877519.900882,495
1765877519.900893,494
1765877519.900903,494
1765877519.900914,494
1765877519.900922,494
1765877519.9009302,494
1765877519.900938,494
1765877519.900946,494
1765877519.900954,495
1765877519.900962,494
1765877519.900973,494
1765877519.900983,496
1765877519.900991,496
1765877519.9009988,498
1765877519.9010072,501
1765877519.901015,501
1765877519.901024,497
1765877519.901032,494
1765877519.90104,495
1765877519.901048,496
1765877519.901056,493
1765877519.901064,492
1765877519.9010718,492
1765877519.9010801,493
1765877519.901088,493
1765877519.901097,493
1765877519.901105,494
1765877519.901113,494
1765877519.9011252,494
1765877519.901133,493
1765877519.901145,494
1765877519.901154,494
1765877519.901162,495
1765877519.90117,496
1765877519.9011788,496
1765877519.9011881,496
1765877519.901196,496
1765877519.9012039,495
1765877519.901212,495
1765877519.90122,494
1765877519.901228,495
1765877519.901237,495
1765877519.9012449,495
1765877519.901254,496
1765877519.901262,499
1765877519.90127,499
1765877519.901278,497
1765877519.901286,495
1765877519.901294,497
1765877519.9013078,495
1765877519.9013162,491
1765877519.901324,491
1765877519.901332,494
1765877519.90134,493
1765877519.901349,493
1765877519.9013572,493
1765877519.901367,494
1765877519.901376,494
1765877519.9013839,495
1765877519.901393,495
1765877519.901401,495
1765877519.901409,495
1765877519.901417,496
1765877519.901425,495
1765877519.901433,495
1765877519.901441,495
1765877519.901449,495
1765877519.9014568,496
1765877519.9014661,498
1765877519.901474,499
1765877519.9014819,499
1765877519.90149,500
1765877519.901498,499
1765877519.901506,497
1765877519.901514,494
1765877519.901522,495
1765877519.90153,494
1765877519.9015381,492
1765877519.901546,492
1765877519.9015539,494
1765877519.9015622,494
1765877519.901571,494
1765877519.90158,495
1765877519.901589,495
1765877519.901597,494
1765877519.9016058,495
1765877519.9016142,495
1765877519.901622,495
1765877519.90163,494
1765877519.9016378,495
1765877519.9016461,495
1765877519.901654,495
1765877519.9016619,496
1765877519.90167,496
1765877519.901679,497
1765877519.9016871,498
1765877519.901695,497
1765877519.901703,497
1765877519.901711,496
1765877519.901719,495
1765877519.901727,495
1765877519.9017348,496
1765877519.9017432,495
1765877519.901751,491
1765877519.901759,491
1765877519.901767,495
1765877519.9017751,495
1765877519.901783,494
1765877519.901792,495
1765877519.901802,494
1765877519.901811,494
1765877519.901819,495
1765877519.901827,495
1765877519.901835,495
1765877519.9018428,494
1765877519.901851,493
1765877519.901859,494
1765877519.901867,495
1765877519.901875,495
1765877519.901883,495
1765877519.901891,496
1765877519.9019,497
1765877519.901908,496
1765877519.9019158,495
1765877519.9019241,494
1765877519.901932,494
1765877519.9019399,494
1765877519.901948,494
1765877519.901956,494
1765877519.9019651,495
1765877519.901973,495
1765877519.9019809,495
1765877519.9019892,496
1765877519.901997,496
1765877519.902005,495
1765877519.902015,494
1765877519.902025,496
1765877519.9020329,498
1765877519.9020412,498
1765877519.902049,499
1765877519.902057,501
1765877519.9020648,499
1765877519.9020731,493
1765877519.902081,493
1765877519.9020889,491
1765877519.902097,492
1765877519.902105,492
1765877519.902113,493
1765877519.902121,493
1765877519.902129,494
1765877519.902138,494
1765877519.902146,494
1765877519.902154,494
1765877519.9021618,494
1765877519.9021702,495
1765877519.902178,494
1765877519.902186,496
1765877519.902195,496
1765877519.9022028,496
1765877519.9022112,493
1765877519.902219,493
1765877519.902227,494
1765877519.902237,493
1765877519.902246,495
1765877519.902255,495
1765877519.902263,497
1765877519.902272,497
1765877519.902279,497
1765877519.902288,495
1765877519.902296,494
1765877519.902304,493
1765877519.902312,493
1765877519.9023201,494
1765877519.902328,496
1765877519.902336,495
1765877519.902345,494
1765877519.9023528,496
1765877519.9023612,496
1765877519.902369,497
1765877519.902377,496
1765877519.902385,498
1765877519.902393,499
1765877519.902401,495
1765877519.90241,492
1765877519.902418,492
1765877519.902426,493
1765877519.902434,493
1765877519.902442,494
1765877519.902452,495
1765877519.9024608,494
1765877519.9024692,495
1765877519.902477,495
1765877519.902485,494
1765877519.902493,494
1765877519.902501,495
1765877519.902509,495
1765877519.902517,494
1765877519.902525,494
1765877519.9025338,495
1765877519.902542,494
1765877519.90255,495
1765877519.9025578,495
1765877519.902566,495
1765877519.902574,495
1765877519.902582,495
1765877519.90259,494
1765877519.902598,495
1765877519.902606,494
1765877519.902614,495
1765877519.902623,497
1765877519.9026308,499
1765877519.9026392,498
1765877519.902647,497
1765877519.902655,498
1765877519.902663,497
1765877519.902673,498
1765877519.902682,494
1765877519.9026911,490
1765877519.902699,490
1765877519.9027069,492
1765877519.902715,494
1765877519.902723,494
1765877519.902731,494
1765877519.902739,494
1765877519.902747,495
1765877519.902755,495
1765877519.902764,495
1765877519.902772,494
1765877519.9027798,494
1765877519.9027882,495
1765877519.902796,494
1765877519.902804,494
1765877519.902812,496
1765877519.90282,495
1765877519.902828,493
1765877519.902836,493
1765877519.902844,493
1765877519.902852,493
1765877519.90286,495
1765877519.902868,496
1765877519.902876,495
1765877519.902886,495
1765877519.9028952,495
1765877519.902903,495
1765877519.902911,494
1765877519.9029188,493
1765877519.9029272,495
1765877519.902935,496
1765877519.902943,495
1765877519.902951,495
1765877519.90296,496
1765877519.9029682,495
1765877519.902976,495
1765877519.902984,494
1765877519.9029918,493
1765877519.903,494
1765877519.903008,494
1765877519.9030159,495
1765877519.9030242,495
1765877519.903033,494
1765877519.9030411,495
1765877519.903049,496
1765877519.9030569,495
1765877519.9030662,493
1765877519.903075,494
1765877519.903083,496
1765877519.903091,495
1765877519.9031,495
1765877519.9031098,495
1765877519.903119,495
1765877519.903127,495
1765877519.903135,494
1765877519.903143,495
1765877519.903151,494
1765877519.9031591,495
1765877519.903167,495
1765877519.9031749,495
1765877519.9031832,496
1765877519.903191,496
1765877519.903199,498
1765877519.9032068,495
1765877519.9032152,495
1765877519.903223,497
1765877519.903231,496
1765877519.903239,495
1765877519.903247,494
1765877519.9032562,493
1765877519.903264,494
1765877519.903272,495
1765877519.90328,495
1765877519.9032881,495
1765877519.903296,495
1765877519.9033039,496
1765877519.903312,494
1765877519.9033222,494
1765877519.903332,495
1765877519.90334,495
1765877519.903348,495
1765877519.9033558,495
1765877519.9033642,495
1765877519.903372,495
1765877519.90338,497
1765877519.9033878,499
1765877519.9033961,501
1765877519.903404,501
1765877519.903413,496
1765877519.903421,490
1765877519.903429,492
1765877519.9034371,493
1765877519.903445,493
1765877519.9034529,493
1765877519.903462,494
1765877519.90347,494
1765877519.903478,493
1765877519.903486,494
1765877519.903494,495
1765877519.903502,495
1765877519.90351,494
1765877519.903519,494
1765877519.903527,495
1765877519.9035351,494
1765877519.903546,495
1765877519.903556,495
1765877519.903564,495
1765877519.903572,495
1765877519.90358,495
1765877519.903588,495
1765877519.903596,494
1765877519.903604,496
1765877519.9036129,495
1765877519.9036212,495
1765877519.90363,496
1765877519.9036381,496
1765877519.903647,495
1765877519.9036548,494
1765877519.9036632,494
1765877519.903671,494
1765877519.903679,494
1765877519.903687,494
1765877519.903695,494
1765877519.9037042,494
1765877519.903712,494
1765877519.90372,495
1765877519.9037282,495
1765877519.903741,495
1765877519.90376,495
1765877519.903779,495
1765877519.903798,495
1765877519.9038222,496
1765877519.903841,497
1765877519.9038599,496
1765877519.903879,495
1765877519.903898,495
1765877519.903918,494
1765877519.903936,495
1765877519.903956,495
1765877519.903975,497
1765877519.903994,499
1765877519.904012,499
1765877519.904031,495
1765877519.9040499,494
1765877519.904068,494
1765877519.904087,493
1765877519.904105,493
1765877519.904124,494
1765877519.904143,494
1765877519.904162,495
1765877519.904181,496
1765877519.904199,497
1765877519.9042182,496
1765877519.904236,495
1765877519.904255,493
1765877519.9042728,492
1765877519.904292,493
1765877519.904315,493
1765877519.904334,494
1765877519.9043531,494
1765877519.904372,494
1765877519.9043899,494
1765877519.9044092,494
1765877519.904428,494
1765877519.904447,494
1765877519.904466,495
1765877519.904484,495
1765877519.904503,496
1765877519.904522,496
1765877519.9045398,495
1765877519.9045591,494
1765877519.904577,494
1765877519.9045959,495
1765877519.904614,495
1765877519.904633,495
1765877519.904651,494
1765877519.90467,494
1765877519.9046881,493
1765877519.904707,494
1765877519.904726,495
1765877519.904744,495
1765877519.904763,495
1765877519.904781,496
1765877519.904803,495
1765877519.904821,496
1765877519.90484,496
1765877519.904858,497
1765877519.904877,495
1765877519.904896,494
1765877519.904914,495
1765877519.904932,495
1765877519.904951,495
1765877519.904969,495
1765877519.9049869,495
1765877519.905005,494
1765877519.9050229,495
1765877519.905042,495
1765877519.90506,495
1765877519.905078,496
1765877519.905097,496
1765877519.905115,495
1765877519.905134,495
1765877519.905152,496
1765877519.90517,495
1765877519.905189,495
1765877519.9052072,495
1765877519.905225,495
1765877519.905243,494
1765877519.905262,494
1765877519.9052851,495
1765877519.905304,495
1765877519.905322,495
1765877519.90534,495
1765877519.905359,495
1765877519.905377,495
1765877519.905395,495
1765877519.9054139,495
1765877519.905432,496
1765877519.9054499,495
1765877519.905469,495
1765877519.905487,495
1765877519.905505,494
1765877519.905524,494
1765877519.905542,494
1765877519.905561,494
1765877519.905579,495
1765877519.905598,495
1765877519.9056158,495
1765877519.9056342,496
1765877519.905652,495
1765877519.905671,495
1765877519.905689,494
1765877519.9057071,494
1765877519.905725,494
1765877519.9057431,494
1765877519.905767,495
1765877519.905786,495
1765877519.905804,495
1765877519.905822,495
1765877519.9058409,495
1765877519.905859,495
1765877519.9058769,494
1765877519.905896,494
1765877519.905914,494
1765877519.9059331,495
1765877519.905951,495
1765877519.9059699,495
1765877519.905988,495
1765877519.906007,495
1765877519.906025,494
1765877519.9060428,494
1765877519.9060621,494
1765877519.90608,495
1765877519.906098,493
1765877519.906116,493
1765877519.906135,493
1765877519.906153,494
1765877519.9061708,495
1765877519.906189,495
1765877519.906207,494
1765877519.906225,495
1765877519.90625,494
1765877519.9062688,494
1765877519.9062872,494
1765877519.906305,495
1765877519.906324,495
1765877519.9063418,495
1765877519.9063601,495
1765877519.906379,494
1765877519.9063969,495
1765877519.9064162,495
1765877519.906434,495
1765877519.906452,494
1765877519.906471,494
1765877519.9064891,495
1765877519.906507,495
1765877519.906525,495
1765877519.9065442,495
1765877519.906562,496
1765877519.90658,495
1765877519.9065988,494
1765877519.9066172,494
1765877519.906635,494
1765877519.906653,494
1765877519.9066722,494
1765877519.9066901,495
1765877519.906709,495
1765877519.906732,494
1765877519.906811,494
1765877519.906829,495
1765877519.906844,494
1765877519.906857,494
1765877519.9068742,495
1765877519.9068868,496
1765877519.9069,496
1765877519.906912,495
1765877519.906925,494
1765877519.906938,494
1765877519.906951,494
1765877519.906964,495
1765877519.906976,494
1765877519.9069939,494
1765877519.907007,494
1765877519.90702,494
1765877519.907032,494
1765877519.9070442,494
1765877519.9070568,494
1765877519.907069,494
1765877519.907082,494
1765877519.907094,495
1765877519.9071062,495
1765877519.907119,495
1765877519.907131,495
1765877519.907156,494
1765877519.907169,494
1765877519.907181,494
1765877519.9071932,494
1765877519.907205,494
1765877519.9072168,495
1765877519.907229,494
1765877519.9072409,494
1765877519.907254,494
1765877519.907267,494
1765877519.907279,494
1765877519.907298,494
1765877519.9073112,494
1765877519.9073439,494
1765877519.9074078,495
1765877519.907423,495
1765877519.907437,495
1765877519.9074502,495
1765877519.907462,495
1765877519.9074738,495
1765877519.907486,495
1765877519.907499,494
1765877519.907511,494
1765877519.9075232,495
1765877519.9075358,494
1765877519.907549,494
1765877519.907565,494
1765877519.9075782,495
1765877519.90759,495
1765877519.907603,494
1765877519.907615,494
1765877519.907627,493
1765877519.907639,492
1765877519.9076512,492
1765877519.907663,493
1765877519.9076748,494
1765877519.907687,495
1765877519.9076989,496
1765877519.907711,495
1765877519.9077241,495
1765877519.907736,494
1765877519.907748,495
1765877519.9077601,495
1765877519.9077718,495
1765877519.907784,495
1765877519.907796,494
1765877519.907809,495
1765877519.907821,495
1765877519.9078321,494
1765877519.907844,493
1765877519.907856,494
1765877519.907868,493
1765877519.907883,494
1765877519.907895,495
1765877519.907907,495
1765877519.9079192,495
1765877519.9079309,496
1765877519.907943,495
1765877519.907955,494
1765877519.907968,495
1765877519.907979,494
1765877519.908006,495
1765877519.908022,495
1765877519.908034,495
1765877519.908046,494
1765877519.908059,494
1765877519.9080708,494
1765877519.908117,495
1765877519.9081368,495
1765877519.90815,494
1765877519.908162,494
1765877519.908174,494
1765877519.9081862,494
1765877519.9081988,494
1765877519.908254,495
1765877519.9082692,495
1765877519.908282,495
1765877519.908295,494
1765877519.908324,494
1765877519.9083369,495
1765877519.908349,495
1765877519.908362,495
1765877519.908375,496
1765877519.9083872,495
1765877519.908399,495
1765877519.908412,494
1765877519.908424,494
1765877519.908436,495
1765877519.908449,495
1765877519.908461,495
1765877519.908473,496
1765877519.9084852,494
1765877519.9084978,495
1765877519.9085178,494
1765877519.908531,494
1765877519.9085429,495
1765877519.908555,494
1765877519.9085681,493
1765877519.90858,494
1765877519.908633,494
1765877519.9086561,495
1765877519.90867,495
1765877519.908683,495
1765877519.908695,495
1765877519.908711,495
1765877519.9087229,495
1765877519.908735,494
1765877519.9087481,495
1765877519.90876,494
1765877519.9087732,494
1765877519.9087849,494
1765877519.908801,495
1765877519.9088142,495
1765877519.908826,495
1765877519.90887,494
1765877519.908892,494
1765877519.908907,494
1765877519.90892,494
1765877519.9089332,494
1765877519.908946,495
1765877519.908959,494
1765877519.908972,493
1765877519.9089851,494
1765877519.908997,495
1765877519.909009,495
1765877519.9090219,495
1765877519.909034,495
1765877519.909046,495
1765877519.909059,494
1765877519.9090712,495
1765877519.9090948,495
1765877519.909173,496
1765877519.909194,496
1765877519.9092102,495
1765877519.909227,495
1765877519.9092429,493
1765877519.909259,493
1765877519.909274,494
1765877519.90929,494
1765877519.909305,495
1765877519.909321,495
1765877519.909336,495
1765877519.909354,495
1765877519.909369,495
1765877519.909385,494
1765877519.9094,495
1765877519.909415,496
1765877519.909431,495
1765877519.909446,496
1765877519.909462,494
1765877519.909479,494
1765877519.909495,493
1765877519.90951,494
1765877519.909526,494
1765877519.9095411,495
1765877519.909557,496
1765877519.909579,495
1765877519.9095948,495
1765877519.90961,495
1765877519.909626,494
1765877519.909641,494
1765877519.909657,494
1765877519.909672,495
1765877519.909688,495
1765877519.909703,495
1765877519.909719,494
1765877519.9097338,493
1765877519.90975,494
1765877519.909765,494
1765877519.909781,494
1765877519.9097972,494
1765877519.909813,495
1765877519.9098291,494
1765877519.909844,495
1765877519.9098601,494
1765877519.9098759,495
1765877519.9098911,494
1765877519.9099069,494
1765877519.909923,494
1765877519.909941,494
1765877519.9099572,494
1765877519.909974,494
1765877519.909992,495
1765877519.9100091,495
1765877519.910024,494
1765877519.9100401,493
1765877519.9100559,494
1765877519.910072,494
1765877519.9100869,494
1765877519.910103,494
1765877519.9101188,494
1765877519.910134,494
1765877519.9101498,494
1765877519.910165,494
1765877519.910181,494
1765877519.910196,495
1765877519.910212,494
1765877519.910227,495
1765877519.910243,494
1765877519.910259,494
1765877519.910274,494
1765877519.91029,495
1765877519.910305,494
1765877519.910321,494
1765877519.910337,495
1765877519.9103518,495
1765877519.910368,495
1765877519.910383,495
1765877519.910401,494
1765877519.910418,493
1765877519.910434,493
1765877519.9104488,494
1765877519.910465,494
1765877519.9104798,494
1765877519.910496,495
1765877519.910511,494
1765877519.910527,496
1765877519.910542,496
1765877519.910558,496
1765877519.910573,495
1765877519.910589,495
1765877519.910605,496
1765877519.91062,496
1765877519.910636,496
1765877519.910651,496
1765877519.910666,496
1765877519.9106822,496
1765877519.910697,496
1765877519.9107132,496
1765877519.910728,495
1765877519.910744,495
1765877519.910759,495
1765877519.910775,494
1765877519.910791,494
1765877519.910809,494
1765877519.910826,494
1765877519.9108422,494
1765877519.910857,495
1765877519.9108758,495
1765877519.910893,495
1765877519.910911,494
1765877519.910926,495
1765877519.9109418,495
1765877519.910958,495
1765877519.9109728,495
1765877519.910989,495
1765877519.9110038,495
1765877519.91102,495
1765877519.911036,494
1765877519.911051,495
1765877519.9110668,494
1765877519.911083,494
1765877519.911094,494
1765877519.911102,494
1765877519.9111109,493
1765877519.9111192,494
1765877519.911127,494
1765877519.911135,495
1765877519.9111428,495
1765877519.9111521,496
1765877519.9111612,496
1765877519.911171,496
1765877519.911179,496
1765877519.911188,495
1765877519.911196,494
1765877519.911204,495
1765877519.911212,495
1765877519.911221,497
1765877519.911229,496
1765877519.911237,495
1765877519.911245,494
1765877519.911254,493
1765877519.911262,494
1765877519.91127,495
1765877519.911278,495
1765877519.911287,496
1765877519.911295,497
1765877519.9113028,496
1765877519.9113111,495
1765877519.91132,495
1765877519.911328,495
1765877519.911336,495
1765877519.911344,495
1765877519.911353,495
1765877519.911361,496
1765877519.9113688,496
1765877519.911378,495
1765877519.911388,494
1765877519.9113972,494
1765877519.911406,494
1765877519.911414,495
1765877519.911422,495
1765877519.91143,494
1765877519.9114392,494
1765877519.911447,496
1765877519.911455,494
1765877519.911463,494
1765877519.9114711,494
1765877519.91148,495
1765877519.911488,496
1765877519.911496,495
1765877519.9115038,495
1765877519.9115121,495
1765877519.911521,496
1765877519.911529,496
1765877519.911537,495
1765877519.911545,495
1765877519.911554,496
1765877519.911562,496
1765877519.9115698,495
1765877519.911582,494
1765877519.911598,493
1765877519.911614,494
1765877519.911633,494
1765877519.9116511,493
1765877519.9116669,494
1765877519.9116821,494
1765877519.911735,494
1765877519.911755,494
1765877519.911772,493
1765877519.911886,493
1765877519.9119291,493
1765877519.9119449,495
1765877519.911961,495
1765877519.911999,495
1765877519.912013,495
1765877519.912063,495
1765877519.9120781,495
1765877519.912161,496
1765877519.912182,496
1765877519.912195,496
1765877519.9122078,494
1765877519.912221,494
1765877519.912234,495
1765877519.912247,495
1765877519.91226,493
1765877519.912272,494
1765877519.9122849,494
1765877519.912297,495
1765877519.912309,495
1765877519.912408,496
1765877519.912456,495
1765877519.9124732,495
1765877519.912489,495
1765877519.912504,494
1765877519.91252,494
1765877519.912535,495
1765877519.912551,496
1765877519.9125812,497
1765877519.912632,497
1765877519.9126651,497
1765877519.9126809,496
1765877519.912698,495
1765877519.912713,493
1765877519.912744,493
1765877519.912761,494
1765877519.912776,495
1765877519.912792,495
1765877519.912808,494
1765877519.912823,494
1765877519.912838,494
1765877519.912854,495
1765877519.9128692,494
1765877519.912884,494
1765877519.9129002,493
1765877519.912915,494
1765877519.912935,495
1765877519.91295,495
1765877519.912965,495
1765877519.91301,496
1765877519.913045,496
1765877519.9130602,495
1765877519.913072,494
1765877519.913086,494
1765877519.913098,495
1765877519.913111,495
1765877519.913124,495
1765877519.913137,495
1765877519.9131498,495
1765877519.913163,494
1765877519.913176,494
1765877519.9131892,494
1765877519.9132018,494
1765877519.913214,494
1765877519.913227,494
1765877519.91324,495
1765877519.913253,495
1765877519.913266,495
1765877519.9132779,495
1765877519.913291,496
1765877519.913304,495
1765877519.9133172,496
1765877519.9133341,495
1765877519.9133482,495
1765877519.9133599,495
1765877519.913373,495
1765877519.9133859,495
1765877519.913399,495
1765877519.9134111,496
1765877519.9134238,495
1765877519.913437,494
1765877519.91345,494
1765877519.913462,494
1765877519.913475,494
1765877519.913488,494
1765877519.913501,495
1765877519.913514,495
1765877519.913527,495
1765877519.9135401,495
1765877519.913553,496
1765877519.9135659,495
1765877519.913579,495
1765877519.913592,495
1765877519.913604,495
1765877519.913617,495
1765877519.913631,495
1765877519.9136431,494
1765877519.913656,494
1765877519.9136739,495
1765877519.913687,495
1765877519.9137,494
1765877519.913713,495
1765877519.913744,494
1765877519.913758,494
1765877519.913771,495
1765877519.913784,495
1765877519.9137962,494
1765877519.9138088,494
1765877519.913822,495
1765877519.913835,494
1765877519.9138482,494
1765877519.913861,494
1765877519.913874,495
1765877519.913887,494
1765877519.913899,495
1765877519.913912,495
1765877519.9139252,494
1765877519.9139369,494
1765877519.91395,494
1765877519.913963,494
1765877519.913975,495
1765877519.913988,495
1765877519.914001,494
1765877519.9140139,494
1765877519.914027,495
1765877519.914036,495
1765877519.914046,494
1765877519.914054,495
1765877519.914062,495
1765877519.9140701,494
1765877519.914078,495
1765877519.9140868,495
1765877519.9140952,495
1765877519.914103,494
1765877519.914111,494
1765877519.914119,494
1765877519.914127,495
1765877519.914198,495
1765877519.914228,495
1765877519.914248,495
1765877519.9142568,495
1765877519.9142652,496
1765877519.914274,495
1765877519.914319,495
1765877519.914329,494
1765877519.914338,495
1765877519.914346,494
1765877519.9143538,494
1765877519.914363,494
1765877519.914371,494
1765877519.9143791,495
1765877519.91439,494
1765877519.914399,495
1765877519.914407,495
1765877519.9144151,495
1765877519.914423,495
1765877519.914432,494
1765877519.91444,494
1765877519.9144478,495
1765877519.9144561,495
1765877519.914464,495
1765877519.9144719,495
1765877519.9144802,495
1765877519.914488,494
1765877519.914496,495
1765877519.914504,495
1765877519.914512,494
1765877519.91452,494
1765877519.914528,494
1765877519.914536,495
1765877519.914544,495
1765877519.914552,494
1765877519.91456,495
1765877519.914568,495
1765877519.914578,494
1765877519.9145868,495
1765877519.9145951,495
1765877519.9146082,495
1765877519.914617,494
1765877519.914625,494
1765877519.914633,495
1765877519.914641,495
1765877519.914649,494
1765877519.914657,495
1765877519.914665,495
1765877519.9146738,495
1765877519.9146821,495
1765877519.914689,495
1765877519.914698,495
1765877519.914706,495
1765877519.914714,495
1765877519.914722,495
1765877519.91473,495
1765877519.914738,495
1765877519.914746,494
1765877519.9147542,495
1765877519.914762,495
1765877519.91477,496
1765877519.914778,495
1765877519.914786,495
1765877519.914794,495
1765877519.9148018,495
1765877519.9148102,495
1765877519.9148202,495
1765877519.914829,495
1765877519.914837,495
1765877519.914845,495
1765877519.914853,495
1765877519.914861,495
1765877519.914869,495
1765877519.914877,495
1765877519.914885,495
1765877519.9148932,494
1765877519.914901,495
1765877519.9149098,495
1765877519.914918,495
1765877519.914926,495
1765877519.914934,494
1765877519.9149408,495
1765877519.91495,495
1765877519.914957,495
1765877519.914966,495
1765877519.914974,495
1765877519.9149818,494
1765877519.9149902,495
1765877519.914998,495
1765877519.9150069,495
1765877519.91502,495
1765877519.9150321,495
1765877519.915045,495
1765877519.915061,495
1765877519.915075,495
1765877519.9150872,495
1765877519.9150999,495
1765877519.915113,495
1765877519.915126,495
1765877519.915139,495
1765877519.9151518,495
1765877519.915166,495
1765877519.915179,495
1765877519.9151921,494
1765877519.915205,495
1765877519.9152179,495
1765877519.915231,495
1765877519.915242,495
1765877519.9152498,495
1765877519.9152582,496
1765877519.915266,495
1765877519.915274,495
1765877519.915282,495
1765877519.91529,495
1765877519.915298,495
1765877519.915306,495
1765877519.915314,496
1765877519.915322,497
1765877519.91533,496
1765877519.91534,496
1765877519.91535,495
1765877519.9153569,497
1765877519.915366,496
1765877519.915374,496
1765877519.915382,497
1765877519.91539,496
1765877519.915398,496
1765877519.915406,496
1765877519.915414,497
1765877519.915422,497
1765877519.9154298,496
1765877519.9154382,496
1765877519.915446,495
1765877519.915454,496
1765877519.9154618,496
1765877519.9154701,496
1765877519.915478,496
1765877519.9154859,495
1765877519.915494,495
1765877519.915502,496
1765877519.91551,496
1765877519.915518,495
1765877519.915526,495
1765877519.915534,495
1765877519.9155421,496
1765877519.91555,495
1765877519.915571,495
1765877519.9155798,496
1765877519.9155881,495
1765877519.915596,495
1765877519.9156039,495
1765877519.915612,495
1765877519.91562,495
1765877519.915628,495
1765877519.915636,495
1765877519.915644,495
1765877519.915652,495
1765877519.9156601,495
1765877519.915668,495
1765877519.9156759,495
1765877519.915684,495
1765877519.915692,495
1765877519.9157,495
1765877519.9157078,495
1765877519.9157162,495
1765877519.915724,495
1765877519.915732,495
1765877519.91574,495
1765877519.9157481,495
1765877519.915757,494
1765877519.915765,495
1765877519.915773,495
1765877519.915783,495
1765877519.915793,495
1765877519.915801,495
1765877519.915809,495
1765877519.915817,495
1765877519.915825,495
1765877519.915833,495
1765877519.915841,495
1765877519.915849,495
1765877519.9158568,494
1765877519.9158661,495
1765877519.915874,495
1765877519.9158819,495
1765877519.91589,496
1765877519.915898,495
1765877519.915906,496
1765877519.915914,495
1765877519.915922,495
1765877519.91593,495
1765877519.9159381,495
1765877519.915946,495
1765877519.9159539,495
1765877519.9159622,495
1765877519.91597,495
1765877519.915978,495
1765877519.9159858,495
1765877519.9159942,495
1765877519.9160051,495
1765877519.916013,495
1765877519.916021,495
1765877519.916029,495
1765877519.916037,496
1765877519.916045,495
1765877519.916053,495
1765877519.916061,495
1765877519.91607,495
1765877519.916078,495
1765877519.916086,495
1765877519.916094,494
1765877519.916102,495
1765877519.91611,495
1765877519.916118,495
1765877519.916126,496
1765877519.9161339,496
1765877519.916142,495
1765877519.91615,495
1765877519.916158,495
1765877519.9161658,495
1765877519.9161751,495
1765877519.916183,495
1765877519.9161909,495
1765877519.916199,495
1765877519.916207,495
1765877519.916217,496
1765877519.9162261,495
1765877519.916234,495
1765877519.916242,495
1765877519.9162502,496
1765877519.916258,495
1765877519.916266,495
1765877519.9162738,496
1765877519.9162822,495
1765877519.91629,495
1765877519.916298,495
1765877519.916306,495
1765877519.9163141,495
1765877519.916322,495
1765877519.91633,495
1765877519.916338,496
1765877519.916346,495
1765877519.916354,495
1765877519.916362,496
1765877519.91637,495
1765877519.916378,496
1765877519.9163861,495
1765877519.916394,495
1765877519.9164019,495
1765877519.9164102,495
1765877519.916418,495
1765877519.916426,496
1765877519.916437,495
1765877519.916445,495
1765877519.9164531,495
1765877519.916461,495
1765877519.916469,496
1765877519.916477,495
1765877519.916485,495
1765877519.916493,495
1765877519.916501,495
1765877519.916509,496
1765877519.916517,495
1765877519.9165251,495
1765877519.916533,496
1765877519.9165409,495
1765877519.9165492,495
1765877519.916557,495
1765877519.916565,495
1765877519.9165728,495
1765877519.9165812,494
1765877519.916589,495
1765877519.916597,494
1765877519.916605,495
1765877519.916613,495
1765877519.916621,495
1765877519.916629,495
1765877519.916637,495
1765877519.916651,495
1765877519.91666,495
1765877519.916668,495
1765877519.916676,495
1765877519.9166842,496
1765877519.916692,495
1765877519.9167,495
1765877519.916708,495
1765877519.916717,495
1765877519.916726,495
1765877519.916736,495
1765877519.916744,496
1765877519.9167519,495
1765877519.91676,495
1765877519.916768,495
1765877519.916776,495
1765877519.916784,495
1765877519.9167922,496
1765877519.9168,495
1765877519.916808,495
1765877519.9168158,495
1765877519.916824,495
1765877519.916832,495
1765877519.9168398,496
1765877519.9168482,495
1765877519.916856,495
1765877519.916864,495
1765877519.916874,495
1765877519.916883,495
1765877519.9168909,495
1765877519.916899,495
1765877519.916907,495
1765877519.916915,495
1765877519.9169228,495
1765877519.9169312,496
1765877519.916939,495
1765877519.916947,495
1765877519.916955,495
1765877519.916963,495
1765877519.916971,495
1765877519.9169788,495
1765877519.916987,495
1765877519.916995,495
1765877519.917003,496
1765877519.917011,495
1765877519.917019,496
1765877519.917027,495
1765877519.917035,495
1765877519.917043,495
1765877519.9170518,495
1765877519.9170601,495
1765877519.917068,495
1765877519.9170759,496
1765877519.91709,496
1765877519.917102,496
1765877519.91711,495
1765877519.9171178,495
1765877519.917126,495
1765877519.917134,496
1765877519.917142,495
1765877519.91715,495
1765877519.917158,495
1765877519.917166,496
1765877519.917174,495
1765877519.917182,494
1765877519.9171898,494
1765877519.9171982,495
1765877519.917206,496
1765877519.917214,496
1765877519.9172218,496
1765877519.9172301,495
1765877519.917239,495
1765877519.917247,495
1765877519.917255,495
1765877519.917263,495
1765877519.9172711,495
1765877519.917279,495
1765877519.9172869,496
1765877519.9172952,495
1765877519.917303,495
1765877519.917315,495
1765877519.917322,495
1765877519.917331,496
1765877519.9173388,495
1765877519.917347,495
1765877519.917355,495
1765877519.917363,495
1765877519.9173708,496
1765877519.9173791,495
1765877519.917387,495
1765877519.9173949,495
1765877519.917403,495
1765877519.917411,496
1765877519.917419,495
1765877519.917427,495
1765877519.917438,495
1765877519.9174469,495
1765877519.9174552,495
1765877519.917463,495
1765877519.917471,495
1765877519.9174788,495
1765877519.9174871,495
1765877519.917495,495
1765877519.9175029,495
1765877519.917511,495
1765877519.917519,496
1765877519.917529,495
1765877519.9175382,495
1765877519.917546,495
1765877519.917554,495
1765877519.917562,495
1765877519.917571,495
1765877519.917578,495
1765877519.9175858,496
1765877519.9175942,496
1765877519.917602,495
1765877519.9176111,496
1765877519.917619,495
1765877519.9176269,495
1765877519.917635,495
1765877519.917643,496
1765877519.917651,495
1765877519.9176588,496
1765877519.917668,495
1765877519.917676,496
1765877519.917684,495
1765877519.917692,495
1765877519.9177,495
1765877519.917708,495
1765877519.917717,496
1765877519.917724,495
1765877519.917732,495
1765877519.917741,495
1765877519.917752,496
1765877519.91776,495
1765877519.917768,495
1765877519.9177759,495
1765877519.917784,496
1765877519.9177978,495
1765877519.9178061,496
1765877519.917815,496
1765877519.917823,495
1765877519.917831,495
1765877519.917839,495
1765877519.9178472,495
1765877519.917855,495
1765877519.917863,496
1765877519.917871,496
1765877519.917879,495
1765877519.917887,495
1765877519.9178948,495
1765877519.9179032,495
1765877519.917911,495
1765877519.91792,496
1765877519.917928,496
1765877519.917936,495
1765877519.917944,495
1765877519.917952,496
1765877519.91796,495
1765877519.91797,495
1765877519.91798,495
1765877519.917988,495
1765877519.917996,495
1765877519.918004,495
1765877519.918012,496
1765877519.91802,495
1765877519.918028,495
1765877519.918036,496
1765877519.9180439,495
1765877519.9180532,495
1765877519.918061,496
1765877519.918069,495
1765877519.918077,495
1765877519.918085,495
1765877519.918093,495
1765877519.918101,495
1765877519.918109,495
1765877519.918117,495
1765877519.9181252,495
1765877519.918133,495
1765877519.9181418,495
1765877519.91815,495
1765877519.918158,496
1765877519.9181702,495
1765877519.918178,496
1765877519.918186,495
1765877519.918196,495
1765877519.918205,495
1765877519.9182131,495
1765877519.918221,496
1765877519.918229,496
1765877519.918237,496
1765877519.918245,496
1765877519.9182541,497
1765877519.918262,497
1765877519.9182699,496
1765877519.918278,496
1765877519.918286,497
1765877519.918294,496
1765877519.918302,497
1765877519.91831,496
1765877519.918318,497
1765877519.918326,496
1765877519.918334,496
1765877519.9183419,496
1765877519.91835,497
1765877519.918358,496
1765877519.918366,496
1765877519.9183738,496
1765877519.9183822,496
1765877519.91839,496
1765877519.918398,495
1765877519.918411,496
1765877519.91842,496
1765877519.918428,496
1765877519.918436,496
1765877519.918445,496
1765877519.918453,496
1765877519.9184608,496
1765877519.9184692,496
1765877519.918477,495
1765877519.918485,495
1765877519.918494,496
1765877519.9185019,495
1765877519.9185102,496
1765877519.918518,495
1765877519.918526,495
1765877519.9185338,496
1765877519.9185421,496
1765877519.91855,496
1765877519.918558,496
1765877519.918566,496
1765877519.918574,495
1765877519.918582,496
1765877519.91859,496
1765877519.918598,495
1765877519.918606,496
1765877519.918614,496
1765877519.918623,496
1765877519.918634,495
1765877519.9186418,495
1765877519.9186502,495
1765877519.918658,495
1765877519.918666,495
1765877519.918674,496
1765877519.9186828,496
1765877519.9186912,495
1765877519.918699,495
1765877519.918707,495
1765877519.9187148,495
1765877519.918723,495
1765877519.918735,496
1765877519.9187431,495
1765877519.918751,495
1765877519.9187589,495
1765877519.9187672,495
1765877519.918775,495
1765877519.918783,495
1765877519.9187908,496
1765877519.9187992,496
1765877519.918807,496
1765877519.918816,495
1765877519.918824,495
1765877519.918834,496
1765877519.9188428,495
1765877519.9188569,495
1765877519.918866,496
1765877519.918874,495
1765877519.9188821,496
1765877519.918891,495
1765877519.918899,496
1765877519.918907,495
1765877519.918915,496
1765877519.918923,495
1765877519.918931,495
1765877519.9189389,495
1765877519.918947,496
1765877519.918955,495
1765877519.918963,495
1765877519.9189708,495
1765877519.9189792,495
1765877519.918987,496
1765877519.918995,495
1765877519.9190028,496
1765877519.919012,495
1765877519.9190242,495
1765877519.919032,496
1765877519.919041,495
1765877519.919049,495
1765877519.919057,495
1765877519.919065,496
1765877519.919074,496
1765877519.919083,496
1765877519.919091,495
1765877519.9190989,495
1765877519.9191082,496
1765877519.919125,496
1765877519.919133,496
1765877519.919141,496
1765877519.91915,496
1765877519.919158,496
1765877519.9191658,495
1765877519.919174,495
1765877519.919182,496
1765877519.91919,496
1765877519.919198,495
1765877519.919206,495
1765877519.919214,496
1765877519.919222,495
1765877519.91923,496
1765877519.9192379,496
1765877519.9192472,495
1765877519.919255,495
1765877519.919263,495
1765877519.919271,496
1765877519.919279,496
1765877519.919287,496
1765877519.919295,495
1765877519.9193048,495
1765877519.919314,495
1765877519.919322,494
1765877519.9193301,496
1765877519.919339,495
1765877519.919347,495
1765877519.919355,495
1765877519.9193642,495
1765877519.919372,495
1765877519.91938,495
1765877519.9193878,495
1765877519.9193962,495
1765877519.919404,496
1765877519.919413,495
1765877519.919421,495
1765877519.919429,495
1765877519.9194372,495
1765877519.919445,495
1765877519.919453,495
1765877519.919461,495
1765877519.91947,495
1765877519.919478,495
1765877519.919486,496
1765877519.919494,496
1765877519.919502,495
1765877519.9195101,496
1765877519.91952,496
1765877519.919529,495
1765877519.9195368,496
1765877519.9195452,496
1765877519.919553,496
1765877519.919561,495
1765877519.91957,496
1765877519.919578,496
1765877519.919586,495
1765877519.919594,495
1765877519.919602,496
1765877519.91961,495
1765877519.9196181,495
1765877519.919626,495
1765877519.9196339,495
1765877519.9196422,495
1765877519.91965,495
1765877519.919658,496
1765877519.9196658,496
1765877519.9196742,496
1765877519.919682,495
1765877519.91969,496
1765877519.919699,495
1765877519.9197068,496
1765877519.9197152,496
1765877519.919723,495
1765877519.919731,496
1765877519.9197419,496
1765877519.91975,496
1765877519.919758,495
1765877519.919766,495
1765877519.919774,496
1765877519.9197829,495
1765877519.9197912,495
1765877519.919858,495
1765877519.919866,495
1765877519.919874,496
1765877519.919882,496
1765877519.91989,496
1765877519.919899,496
1765877519.919907,495
1765877519.919915,496
1765877519.9199228,495
1765877519.919931,495
1765877519.919939,495
1765877519.919947,495
1765877519.919955,495
1765877519.919963,495
1765877519.919971,496
1765877519.919979,496
1765877519.919987,496
1765877519.9199948,496
1765877519.9200032,495
1765877519.920017,495
1765877519.920026,495
1765877519.920036,496
1765877519.920044,495
1765877519.92006,496
1765877519.920068,496
1765877519.9200761,495
1765877519.920084,496
1765877519.920095,496
1765877519.9201028,495
1765877519.9201112,496
1765877519.920119,495
1765877519.920127,496
1765877519.920136,496
1765877519.9201438,495
1765877519.920152,496
1765877519.92016,495
1765877519.920168,495
1765877519.920176,495
1765877519.9201841,496
1765877519.920192,496
1765877519.9201999,496
1765877519.920208,495
1765877519.920217,495
1765877519.920224,495
1765877519.9202318,495
1765877519.9202402,496
1765877519.920255,495
1765877519.9202628,495
1765877519.9202719,496
1765877519.92028,496
1765877519.920288,496
1765877519.920296,496
1765877519.9203079,496
1765877519.920317,496
1765877519.920325,496
1765877519.9203331,496
1765877519.920342,496
1765877519.9203498,496
1765877519.920358,495
1765877519.920366,496
1765877519.920374,496
1765877519.920383,496
1765877519.9203908,496
1765877519.9203992,495
1765877519.920407,496
1765877519.920415,496
1765877519.920424,496
1765877519.920432,495
1765877519.92044,496
1765877519.920448,496
1765877519.920456,496
1765877519.920463,495
1765877519.920477,496
1765877519.920486,494
1765877519.920494,495
1765877519.920502,496
1765877519.92051,495
1765877519.9205189,496
1765877519.9205272,496
1765877519.920535,496
1765877519.920543,496
1765877519.9205508,496
1765877519.9205592,496
1765877519.920567,496
1765877519.920575,495
1765877519.920583,495
1765877519.9205918,496
1765877519.9206002,496
1765877519.920608,496
1765877519.920616,496
1765877519.920624,496
1765877519.9206321,496
1765877519.920641,496
1765877519.920649,496
1765877519.920657,496
1765877519.920665,496
1765877519.9206731,496
1765877519.920682,496
1765877519.920692,496
1765877519.920701,496
1765877519.9207091,496
1765877519.920717,495
1765877519.920725,496
1765877519.920733,495
1765877519.920741,495
1765877519.920749,496
1765877519.920758,496
1765877519.9207659,496
1765877519.920774,496
1765877519.920782,496
1765877519.92079,496
1765877519.920798,496
1765877519.920807,496
1765877519.920815,496
1765877519.920823,496
1765877519.920831,496
1765877519.9208388,495
1765877519.9208472,495
1765877519.920855,496
1765877519.920863,496
1765877519.920872,496
1765877519.9208808,496
1765877519.9208891,496
1765877519.920897,496
1765877519.9209049,496
1765877519.920916,495
1765877519.920925,496
1765877519.920933,496
1765877519.920941,495
1765877519.920949,496
1765877519.9209569,496
1765877519.9209652,496
1765877519.920973,495
1765877519.920981,495
1765877519.920989,495
1765877519.9209971,496
1765877519.9210072,496
1765877519.921015,495
1765877519.921023,496
1765877519.921031,496
1765877519.9210398,495
1765877519.9210482,496
1765877519.921056,496
1765877519.921064,496
1765877519.9210722,496
1765877519.92108,496
1765877519.921088,495
1765877519.9210958,496
1765877519.921104,496
1765877519.921113,495
1765877519.9211211,495
1765877519.921129,495
1765877519.9211369,496
1765877519.9211452,496
1765877519.921153,496
1765877519.921161,496
1765877519.9211688,496
1765877519.9211771,496
1765877519.921186,496
1765877519.921194,496
1765877519.921202,496
1765877519.92121,496
1765877519.9212182,495
1765877519.921226,496
1765877519.921234,496
1765877519.921242,496
1765877519.92125,497
1765877519.921258,498
1765877519.9212658,497
1765877519.921275,497
1765877519.921283,497
1765877519.921291,497
1765877519.921299,497
1765877519.9213068,497
1765877519.921315,497
1765877519.921323,497
1765877519.921331,497
1765877519.9213388,497
1765877519.9213471,497
1765877519.921355,497
1765877519.921364,496
1765877519.921372,496
1765877519.92138,497
1765877519.9213881,496
1765877519.921396,496
1765877519.921404,496
1765877519.921412,496
1765877519.92142,496
1765877519.921428,496
1765877519.9214358,496
1765877519.9214451,496
1765877519.921453,496
1765877519.921461,497
1765877519.921469,496
1765877519.921477,496
1765877519.921485,496
1765877519.921493,495
1765877519.921501,496
1765877519.921509,496
1765877519.9215229,496
1765877519.921531,496
1765877519.92154,496
1765877519.921551,496
1765877519.921563,496
1765877519.9215739,496
1765877519.9215848,496
1765877519.9215958,496
1765877519.921607,496
1765877519.921618,495
1765877519.921629,496
1765877519.92164,496
1765877519.921651,496
1765877519.921663,496
1765877519.921674,496
1765877519.921685,495
1765877519.921696,496
1765877519.921707,496
1765877519.9217181,496
1765877519.921729,496
1765877519.92174,496
1765877519.921751,496
1765877519.921762,496
1765877519.921773,496
1765877519.9217842,496
1765877519.9217951,496
1765877519.921806,496
1765877519.921818,496
1765877519.9218292,496
1765877519.9218402,496
1765877519.921851,496
1765877519.921862,495
1765877519.9218729,496
1765877519.9218838,496
1765877519.921895,495
1765877519.921907,496
1765877519.921918,495
1765877519.921929,495
1765877519.9219398,494
1765877519.921951,495
1765877519.921962,496
1765877519.921973,496
1765877519.921984,496
1765877519.921995,496
1765877519.9220061,496
1765877519.922017,496
1765877519.922028,495
1765877519.922039,496
1765877519.92205,496
1765877519.922061,496
1765877519.9220722,496
1765877519.9220831,496
1765877519.922094,495
1765877519.922105,496
1765877519.9221172,496
1765877519.922128,496
1765877519.9221408,496
1765877519.922152,495
1765877519.922164,496
1765877519.922175,495
1765877519.922186,495
1765877519.922197,496
1765877519.922208,496
1765877519.922219,496
1765877519.92223,496
1765877519.922241,495
1765877519.922252,496
1765877519.922264,496
1765877519.922275,496
1765877519.922286,496
1765877519.922297,495
1765877519.9223082,495
1765877519.9223192,495
1765877519.9223309,495
1765877519.9223418,496
1765877519.9223528,495
1765877519.922364,495
1765877519.922375,495
1765877519.922386,496
1765877519.922397,495
1765877519.922409,495
1765877519.92242,495
1765877519.922431,495
1765877519.922442,495
1765877519.922454,495
1765877519.922465,496
1765877519.922476,495
1765877519.922487,495
1765877519.922498,496
1765877519.922509,495
1765877519.9225202,495
1765877519.9225311,496
1765877519.922542,496
1765877519.922554,495
1765877519.9225652,495
1765877519.922576,495
1765877519.9225972,495
1765877519.9226081,495
1765877519.9226189,495
1765877519.922631,495
1765877519.922642,495
1765877519.922653,496
1765877519.922664,496
1765877519.922675,495
1765877519.922687,495
1765877519.922698,495
1765877519.922709,495
1765877519.922726,495
1765877519.922737,495
1765877519.9227479,496
1765877519.9227588,495
1765877519.92277,495
1765877519.922781,495
1765877519.922793,495
1765877519.9236548,495
1765877519.924624,495
1765877519.925628,495
1765877519.92665,495
1765877519.927636,495
1765877519.928642,495
1765877519.929656,496
1765877519.930665,495
1765877519.931668,496
1765877519.932678,495
1765877519.933704,495
1765877519.934775,495
1765877519.935667,495
1765877519.936704,496
1765877519.9377,495
1765877519.9387012,495
1765877519.9397068,496
1765877519.9406888,495
1765877519.941688,495
1765877519.942729,495
1765877519.9437282,495
1765877519.9447,496
1765877519.945699,496
1765877519.9467258,495
1765877519.947725,495
1765877519.948714,495
1765877519.9497359,495
1765877519.950732,496
1765877519.951713,495
1765877519.952738,495
1765877519.953723,495
1765877519.954754,496
1765877519.95575,495
1765877519.956751,495
1765877519.957736,495
1765877519.9587672,495
1765877519.959765,495
1765877519.960751,495
1765877519.961787,496
1765877519.9627688,496
1765877519.963766,496
1765877519.9647841,496
1765877519.965753,495
1765877519.9667368,495
1765877519.9677398,495
1765877519.968771,496
1765877519.969774,496
1765877519.9707708,495
1765877519.971803,495
1765877519.972804,495
1765877519.973792,496
1765877519.974802,495
1765877519.975775,495
1765877519.976794,495
1765877519.9777799,495
1765877519.978807,495
1765877519.979816,496
1765877519.980819,495
1765877519.981864,495
1765877519.9828439,495
1765877519.983823,496
1765877519.984808,495
1765877519.9858298,495
1765877519.986825,496
1765877519.987814,495
1765877519.9888089,495
1765877519.989846,495
1765877519.990857,495
1765877519.991851,495
1765877519.992821,495
1765877519.993869,496
1765877519.9948428,495
1765877519.996016,495
1765877519.996893,495
1765877519.9978838,495
1765877519.998867,495
1765877519.999864,495
1765877520.000849,495
1765877520.001874,495
1765877520.002871,495
1765877520.003871,495
1765877520.004881,495
1765877520.005899,495
1765877520.006971,495
1765877520.007925,495
1765877520.008918,496
1765877520.0098822,495
1765877520.010952,496
1765877520.011924,495
1765877520.012933,495
1765877520.0139,495
1765877520.0149,495
1765877520.015933,495
1765877520.016902,495
1765877520.0179021,495
1765877520.01889,495
1765877520.019903,495
1765877520.020928,496
1765877520.021915,495
1765877520.022927,496
1765877520.023927,495
1765877520.024917,495
1765877520.025894,495
1765877520.026923,495
1765877520.027935,495
1765877520.028929,495
1765877520.02991,495
1765877520.030944,495
1765877520.031942,495
1765877520.0329459,495
1765877520.033953,494
1765877520.034948,495
1765877520.0359511,495
1765877520.036951,495
1765877520.037962,495
1765877520.0389602,495
1765877520.039955,495
1765877520.040985,495
1765877520.041972,496
1765877520.04296,496
1765877520.043966,495
1765877520.044971,495
1765877520.045983,495
1765877520.046973,496
1765877520.047967,495
1765877520.048975,495
1765877520.0499809,496
1765877520.050991,495
1765877520.0519922,496
1765877520.05299,495
1765877520.0540328,495
1765877520.055041,495
1765877520.056006,495
1765877520.057007,495
1765877520.05801,495
1765877520.059001,495
1765877520.0600162,495
1765877520.0610151,495
1765877520.0620081,495
1765877520.063033,496
1765877520.064024,495
1765877520.0650082,495
1765877520.066026,496
1765877520.067022,495
1765877520.068037,495
1765877520.069039,495
1765877520.0700438,496
1765877520.071079,495
1765877520.072056,495
1765877520.073053,495
1765877520.074073,495
1765877520.075066,495
1765877520.076074,495
1765877520.07706,495
1765877520.078072,495
1765877520.0790951,495
1765877520.080086,495
1765877520.081131,495
1765877520.082122,495
1765877520.083194,495
1765877520.0841758,495
1765877520.085131,495
1765877520.08612,495
1765877520.087134,495
1765877520.088133,495
1765877520.0891469,495
1765877520.0901299,495
1765877520.0911949,495
1765877520.092151,495
1765877520.093142,495
1765877520.094165,494
1765877520.095165,494
1765877520.096141,494
1765877520.097134,494
1765877520.0981371,495
1765877520.099138,495
1765877520.100148,495
1765877520.101156,495
1765877520.102158,495
1765877520.103171,496
1765877520.104172,495
1765877520.105164,495
1765877520.1061609,495
1765877520.1071749,495
1765877520.108186,495
1765877520.109175,495
1765877520.110194,495
1765877520.111156,495
1765877520.112162,495
1765877520.113164,495
1765877520.11417,495
1765877520.11518,495
1765877520.116173,496
1765877520.117172,495
1765877520.118198,495
1765877520.119183,495
1765877520.120189,495
1765877520.121187,495
1765877520.1222122,495
1765877520.123221,495
1765877520.1242821,495
1765877520.1252859,495
1765877520.126197,495
1765877520.1272068,496
1765877520.128203,495
1765877520.129205,495
1765877520.130217,495
1765877520.131218,496
1765877520.132215,496
1765877520.1332219,497
1765877520.134224,496
1765877520.135232,497
1765877520.136234,496
1765877520.137227,497
1765877520.138229,497
1765877520.1392388,497
1765877520.1402361,497
1765877520.141247,497
1765877520.142251,496
1765877520.143233,496
1765877520.144234,497
1765877520.145268,496
1765877520.146253,496
1765877520.14726,496
1765877520.148256,496
1765877520.149261,495
1765877520.150265,496
1765877520.151278,495
1765877520.15227,496
1765877520.153265,496
1765877520.154273,496
1765877520.155273,496
1765877520.1562681,496
1765877520.157291,495
1765877520.158308,495
1765877520.1592808,495
1765877520.160285,495
1765877520.161298,495
1765877520.162308,495
1765877520.163319,494
1765877520.16433,495
1765877520.165366,494
1765877520.1663492,495
1765877520.167318,495
1765877520.168316,496
1765877520.169317,495
1765877520.170316,495
1765877520.171318,496
1765877520.172338,496
1765877520.1733499,495
1765877520.174337,495
1765877520.175328,495
1765877520.176327,495
1765877520.177336,495
1765877520.178335,495
1765877520.179343,496
1765877520.180359,495
1765877520.181358,495
1765877520.182351,495
1765877520.183357,495
1765877520.1843672,495
1765877520.185363,495
1765877520.186364,495
1765877520.187376,495
1765877520.1883872,495
1765877520.189376,495
1765877520.1903841,495
1765877520.1913831,495
1765877520.1923919,496
1765877520.193391,495
1765877520.19445,495
1765877520.195445,495
1765877520.19644,495
1765877520.197448,495
1765877520.198557,495
1765877520.199439,495
1765877520.200494,495
1765877520.2014039,495
1765877520.202535,495
1765877520.203531,495
1765877520.204559,495
1765877520.205556,495
1765877520.206568,495
1765877520.2076101,495
1765877520.2085571,495
1765877520.209544,495
1765877520.210492,495
1765877520.211493,495
1765877520.212503,495
1765877520.213536,495
1765877520.214494,494
1765877520.21549,495
1765877520.2165399,495
1765877520.217536,495
1765877520.218548,495
1765877520.219577,495
1765877520.220549,496
1765877520.2215428,495
1765877520.222492,495
1765877520.2234938,495
1765877520.2244961,495
1765877520.225556,495
1765877520.226538,495
1765877520.2275488,495
1765877520.2285361,495
1765877520.229493,495
1765877520.2305,495
1765877520.231494,495
1765877520.2325451,495
1765877520.233551,496
1765877520.234564,495
1765877520.2355561,495
1765877520.236512,496
1765877520.237518,495
1765877520.2385652,496
1765877520.239579,496
1765877520.240576,495
1765877520.241589,495
1765877520.24253,495
1765877520.24353,495
1765877520.24453,496
1765877520.24562,496
1765877520.246547,495
1765877520.247561,494
1765877520.248645,495
1765877520.249634,495
1765877520.250577,495
1765877520.25156,495
1765877520.2525609,495
1765877520.253611,495
1765877520.2546198,495
1765877520.255628,495
1765877520.256618,495
1765877520.257588,495
1765877520.258572,496
1765877520.259634,495
1765877520.260637,495
1765877520.261638,495
1765877520.262602,495
1765877520.263627,496
1765877520.264629,496
1765877520.265664,496
1765877520.266654,495
1765877520.2676191,495
1765877520.26862,495
1765877520.269686,495
1765877520.2706292,495
1765877520.2716339,495
1765877520.272624,495
1765877520.273678,495
1765877520.274622,495
1765877520.2756228,495
1765877520.276629,495
1765877520.277659,495
1765877520.278657,495
1765877520.2796328,495
1765877520.2806451,495
1765877520.2816708,495
1765877520.282677,496
1765877520.283664,496
1765877520.284727,496
1765877520.285655,495
1765877520.286659,496
1765877520.287745,495
1765877520.2886798,495
1765877520.289744,495
1765877520.290716,495
1765877520.2917912,495
1765877520.292734,495
1765877520.293656,496
1765877520.294681,495
1765877520.295726,495
1765877520.296714,496
1765877520.297704,496
1765877520.298697,496
1765877520.299704,495
1765877520.3007,496
1765877520.301722,496
1765877520.302699,496
1765877520.3037,496
1765877520.304703,496
1765877520.305723,497
1765877520.306709,497
1765877520.3077,496
1765877520.308705,494
1765877520.309721,494
1765877520.310713,494
1765877520.311748,495
1765877520.312744,495
1765877520.31373,495
1765877520.314742,495
1765877520.3157592,495
1765877520.3167338,496
1765877520.317759,495
1765877520.318742,496
1765877520.319749,496
1765877520.320755,495
1765877520.3217568,495
1765877520.322762,495
1765877520.323773,495
1765877520.32476,495
1765877520.32577,495
1765877520.3267891,495
1765877520.3277729,495
1765877520.328775,495
1765877520.329792,495
1765877520.33081,494
1765877520.3318348,494
1765877520.332822,495
1765877520.3338199,495
1765877520.3348138,495
1765877520.335813,495
1765877520.336808,496
1765877520.3378408,496
1765877520.338815,495
1765877520.339802,496
1765877520.340841,496
1765877520.341818,497
1765877520.342839,497
1765877520.343841,496
1765877520.344857,497
1765877520.345844,495
1765877520.346838,495
1765877520.3478642,496
1765877520.3488278,495
1765877520.349834,495
1765877520.35084,495
1765877520.351831,495
1765877520.352826,495
1765877520.3538492,495
1765877520.3548648,495
1765877520.3558478,495
1765877520.3568509,495
1765877520.357855,495
1765877520.358874,495
1765877520.3598568,496
1765877520.360863,496
1765877520.361857,496
1765877520.3628669,495
1765877520.36386,495
1765877520.364867,496
1765877520.365912,496
1765877520.366931,496
1765877520.3679419,495
1765877520.3689458,495
1765877520.369948,495
1765877520.370945,495
1765877520.371926,495
1765877520.3729448,496
1765877520.37396,496
1765877520.374911,496
1765877520.375953,495
1765877520.376939,496
1765877520.37794,497
1765877520.3789508,497
1765877520.379967,496
1765877520.380971,495
1765877520.381979,496
1765877520.382968,496
1765877520.383966,495
1765877520.384913,495
1765877520.385984,494
1765877520.386966,495
1765877520.387975,495
1765877520.388979,495
1765877520.389985,495
1765877520.390996,495
1765877520.392,495
1765877520.392985,495
1765877520.394001,496
1765877520.394998,495
1765877520.396009,495
1765877520.3970041,495
1765877520.398008,495
1765877520.3990211,495
1765877520.4000058,495
1765877520.4010298,496
1765877520.402008,497
1765877520.403,497
1765877520.404028,497
1765877520.405032,498
1765877520.4060311,499
1765877520.407031,500
1765877520.408041,500
1765877520.409039,500
1765877520.410051,500
1765877520.411,500
1765877520.412021,500
1765877520.413036,496
1765877520.414022,493
1765877520.415024,494
1765877520.416039,494
1765877520.417023,495
1765877520.4180312,495
1765877520.419017,495
1765877520.420012,496
1765877520.4210129,495
1765877520.4220219,495
1765877520.423023,495
1765877520.4240372,495
1765877520.425059,496
1765877520.426069,495
1765877520.427037,496
1765877520.428044,496
1765877520.4290528,496
1765877520.430061,496
1765877520.4310558,496
1765877520.432074,497
1765877520.433085,499
1765877520.4340749,502
1765877520.435082,503
1765877520.4360871,504
1765877520.437091,505
1765877520.438108,506
1765877520.439083,504
1765877520.440096,498
1765877520.4410949,489
1765877520.442113,490
1765877520.443114,493
1765877520.444115,494
1765877520.44512,496
1765877520.4461231,496
1765877520.4470909,494
1765877520.448094,494
1765877520.449117,497
1765877520.4501219,497
1765877520.4511302,494
1765877520.4521291,492
1765877520.453144,496
1765877520.454172,497
1765877520.455164,496
1765877520.456151,497
1765877520.457222,496
1765877520.4581828,492
1765877520.459187,493
1765877520.4601622,497
1765877520.4611661,496
1765877520.462162,500
1765877520.463166,501
1765877520.464174,503
1765877520.46518,504
1765877520.466221,505
1765877520.4672,507
1765877520.4682329,508
1765877520.469203,501
1765877520.470167,496
1765877520.471164,499
1765877520.4721751,496
1765877520.473175,492
1765877520.474197,493
1765877520.475188,494
1765877520.47622,495
1765877520.4772139,491
1765877520.4782112,492
1765877520.479216,495
1765877520.480205,496
1765877520.481212,495
1765877520.482214,494
1765877520.483219,496
1765877520.484237,496
1765877520.4852622,496
1765877520.4862258,492
1765877520.487235,492
1765877520.488232,494
1765877520.489247,494
1765877520.490262,495
1765877520.49124,494
1765877520.492223,494
1765877520.493263,495
1765877520.494256,497
1765877520.4952471,498
1765877520.4962618,499
1765877520.497301,505
1765877520.498297,510
1765877520.499309,511
1765877520.500274,515
1765877520.5012648,518
1765877520.5022771,515
1765877520.503276,499
1765877520.504278,492
1765877520.505283,493
1765877520.506283,491
1765877520.5072849,490
1765877520.508308,489
1765877520.509293,492
1765877520.5103219,491
1765877520.511308,493
1765877520.512304,497
1765877520.5133162,501
1765877520.514317,501
1765877520.515306,506
1765877520.516313,507
1765877520.517341,504
1765877520.5183308,503
1765877520.519325,500
1765877520.52033,498
1765877520.521333,496
1765877520.522337,501
1765877520.523338,498
1765877520.524359,497
1765877520.525358,502
1765877520.526347,512
1765877520.527352,514
1765877520.528349,512
1765877520.5293922,497
1765877520.530357,480
1765877520.5313752,485
1765877520.5323799,492
1765877520.5333729,494
1765877520.534374,497
1765877520.535375,497
1765877520.5363681,498
1765877520.537397,500
1765877520.538404,495
1765877520.539404,490
1765877520.540572,491
1765877520.541457,493
1765877520.542413,494
1765877520.543413,499
1765877520.5444212,504
1765877520.545394,510
1765877520.54639,511
1765877520.5473962,505
1765877520.5484002,494
1765877520.549418,496
1765877520.550433,502
1765877520.5515258,506
1765877520.552518,509
1765877520.553416,507
1765877520.554506,498
1765877520.555509,494
1765877520.5565498,494
1765877520.55809,487
1765877520.5585122,489
1765877520.559517,491
1765877520.560519,492
1765877520.561528,491
1765877520.562526,491
1765877520.56354,492
1765877520.564539,494
1765877520.565529,494
1765877520.566535,495
1765877520.5675251,496
1765877520.5685272,496
1765877520.569509,497
1765877520.570506,498
1765877520.571521,498
1765877520.57251,496
1765877520.573514,496
1765877520.574531,495
1765877520.575516,491
1765877520.576513,492
1765877520.577507,495
1765877520.578516,498
1765877520.5795121,501
1765877520.580575,504
1765877520.5815198,504
1765877520.582592,501
1765877520.5835571,499
1765877520.58464,496
1765877520.5855439,496
1765877520.58654,490
1765877520.5875359,487
1765877520.5885282,493
1765877520.589529,495
1765877520.590524,493
1765877520.591551,494
1765877520.5925481,495
1765877520.5935519,494
1765877520.5945542,495
1765877520.595548,494
1765877520.596545,494
1765877520.597575,496
1765877520.598565,498
1765877520.5995798,501
1765877520.600571,500
1765877520.601579,499
1765877520.602557,500
1765877520.603571,502
1765877520.6045709,499
1765877520.6055748,493
1765877520.606591,492
1765877520.607593,494
1765877520.608611,497
1765877520.609605,494
1765877520.610587,493
1765877520.611617,494
1765877520.61262,495
1765877520.6135979,495
1765877520.614601,494
1765877520.615596,496
1765877520.616631,495
1765877520.6176078,494
1765877520.618631,495
1765877520.6196249,495
1765877520.620616,496
1765877520.6216471,496
1765877520.6226509,496
1765877520.623662,495
1765877520.624693,495
1765877520.625721,495
1765877520.626685,497
1765877520.627667,497
1765877520.6286669,495
1765877520.629656,498
1765877520.630651,500
1765877520.6316512,501
1765877520.6326668,502
1765877520.6336682,504
1765877520.6346638,505
1765877520.63568,502
1765877520.63669,498
1765877520.637696,496
1765877520.638689,496
1765877520.639683,492
1765877520.640678,495
1765877520.641705,497
1765877520.6426811,496
1765877520.643691,499
1765877520.644694,495
1765877520.6457,495
1765877520.64672,496
1765877520.647711,496
1765877520.648696,494
1765877520.6497128,493
1765877520.65071,491
1765877520.6517031,494
1765877520.652717,498
1765877520.653724,497
1765877520.65472,495
1765877520.6557178,496
1765877520.65672,495
1765877520.657748,493
1765877520.658751,493
1765877520.659761,492
1765877520.660751,492
1765877520.661736,494
1765877520.662755,494
1765877520.663776,497
1765877520.6647732,501
1765877520.6658711,503
1765877520.666798,505
1765877520.667826,505
1765877520.6687849,494
1765877520.669785,486
1765877520.670779,491
1765877520.671777,492
1765877520.672779,493
1765877520.673772,494
1765877520.674804,495
1765877520.67579,495
1765877520.676799,495
1765877520.677793,495
1765877520.678794,494
1765877520.6798,493
1765877520.680804,493
1765877520.681822,495
1765877520.682818,495
1765877520.683818,495
1765877520.68482,495
1765877520.685826,495
1765877520.6868212,496
1765877520.6878269,495
1765877520.6888268,495
1765877520.689827,496
1765877520.690847,494
1765877520.691842,495
1765877520.6928341,495
1765877520.693843,495
1765877520.694826,494
1765877520.695841,494
1765877520.696852,495
1765877520.697838,495
1765877520.6988559,495
1765877520.699884,495
1765877520.700866,495
1765877520.701876,495
1765877520.702857,494
1765877520.703881,493
1765877520.704872,494
1765877520.705877,495
1765877520.706885,498
1765877520.707938,500
1765877520.708989,501
1765877520.709924,504
1765877520.7109172,503
1765877520.711926,500
1765877520.712883,495
1765877520.713891,498
1765877520.714899,496
1765877520.715895,492
1765877520.716913,494
1765877520.717924,492
1765877520.718931,491
1765877520.7199092,492
1765877520.720921,492
1765877520.721924,493
1765877520.722928,494
1765877520.723938,496
1765877520.724937,496
1765877520.725945,495
1765877520.726933,494
1765877520.727943,494
1765877520.7289312,494
1765877520.729942,495
1765877520.7309382,495
1765877520.731963,494
1765877520.7329578,495
1765877520.733951,495
1765877520.73496,495
1765877520.7359722,495
1765877520.73697,494
1765877520.737959,494
1765877520.738962,494
1765877520.739972,494
1765877520.740989,494
1765877520.742014,495
1765877520.742982,494
1765877520.74399,494
1765877520.744991,495
1765877520.746003,494
1765877520.746998,495
1765877520.747999,495
1765877520.749044,495
1765877520.750068,495
1765877520.751028,495
1765877520.7520168,495
1765877520.753023,495
1765877520.754017,495
1765877520.755046,495
1765877520.756026,495
1765877520.75704,495
1765877520.758049,495
1765877520.759043,495
1765877520.7600372,495
1765877520.761034,495
1765877520.7620401,498
1765877520.763051,501
1765877520.764053,502
1765877520.7650602,507
1765877520.7660642,511
1765877520.767066,510
1765877520.768071,504
1765877520.769058,497
1765877520.770056,488
1765877520.771067,489
1765877520.772063,489
1765877520.7730718,489
1765877520.7740932,490
1765877520.775095,492
1765877520.776084,493
1765877520.777096,494
1765877520.778105,495
1765877520.779084,495
1765877520.780084,494
1765877520.781104,494
1765877520.782088,493
1765877520.783115,493
1765877520.784108,494
1765877520.785123,494
1765877520.786143,494
1765877520.787133,493
1765877520.788125,494
1765877520.789119,495
1765877520.790122,495
1765877520.791237,496
1765877520.7921321,496
1765877520.793134,495
1765877520.794123,492
1765877520.79514,494
1765877520.796136,494
1765877520.797131,494
1765877520.7981372,494
1765877520.799148,495
1765877520.800148,494
1765877520.801173,494
1765877520.802145,495
1765877520.8031502,494
1765877520.80415,495
1765877520.8051789,494
1765877520.806187,495
1765877520.807167,495
1765877520.808173,494
1765877520.8091671,494
1765877520.810184,494
1765877520.8111749,495
1765877520.812182,495
1765877520.81318,495
1765877520.814185,494
1765877520.8151848,494
1765877520.816201,494
1765877520.817214,494
1765877520.818203,494
1765877520.819221,494
1765877520.820205,495
1765877520.8212018,497
1765877520.822211,499
1765877520.823211,500
1765877520.824218,505
1765877520.825234,504
1765877520.826215,498
1765877520.8272388,502
1765877520.828247,505
1765877520.8292391,497
1765877520.830281,499
1765877520.831249,497
1765877520.832261,498
1765877520.833314,496
1765877520.834351,488
1765877520.8352902,490
1765877520.836267,493
1765877520.837258,493
1765877520.8382668,494
1765877520.839259,495
1765877520.840256,495
1765877520.841262,495
1765877520.8422909,495
1765877520.843271,494
1765877520.844276,494
1765877520.845278,494
1765877520.846273,495
1765877520.8473039,495
1765877520.848277,495
1765877520.849313,495
1765877520.850313,495
1765877520.851316,495
1765877520.852297,495
1765877520.853312,495
1765877520.854296,496
1765877520.855296,495
1765877520.856312,494
1765877520.8573189,494
1765877520.8583,495
1765877520.859322,495
1765877520.860312,494
1765877520.861303,494
1765877520.862315,495
1765877520.863314,495
1765877520.864319,495
1765877520.865323,495
1765877520.8663208,495
1765877520.867326,497
1765877520.8683252,498
1765877520.869331,498
1765877520.870357,495
1765877520.8713589,497
1765877520.8723578,496
1765877520.873366,495
1765877520.874392,494
1765877520.8753972,493
1765877520.876369,493
1765877520.877364,493
1765877520.8783638,493
1765877520.8793652,494
1765877520.8803651,494
1765877520.88137,494
1765877520.88239,493
1765877520.883384,493
1765877520.884385,493
1765877520.885371,494
1765877520.886383,495
1765877520.88739,494
1765877520.888389,494
1765877520.889419,494
1765877520.8904011,494
1765877520.8913941,495
1765877520.8924,496
1765877520.893406,499
1765877520.894409,500
1765877520.895415,499
1765877520.8964128,499
1765877520.897496,493
