timestamp,emg_value
1765877446.492864,495
1765877446.4928782,495
1765877446.492887,494
1765877446.4928918,495
1765877446.492898,495
1765877446.492905,496
1765877446.4929101,498
1765877446.492915,499
1765877446.4929202,499
1765877446.492926,497
1765877446.4929311,492
1765877446.492936,494
1765877446.4929411,496
1765877446.492946,496
1765877446.4929512,495
1765877446.492956,493
1765877446.492961,493
1765877446.49297,494
1765877446.492975,494
1765877446.49298,494
1765877446.492985,495
1765877446.49299,495
1765877446.492996,495
1765877446.493001,495
1765877446.493006,495
1765877446.4930198,494
1765877446.493027,495
1765877446.493032,496
1765877446.4930382,495
1765877446.493043,495
1765877446.493048,494
1765877446.493053,494
1765877446.493058,496
1765877446.493067,496
1765877446.4930718,495
1765877446.493077,495
1765877446.493082,496
1765877446.493087,497
1765877446.493092,498
1765877446.493098,499
1765877446.493103,498
1765877446.49311,495
1765877446.493115,495
1765877446.49312,495
1765877446.493126,494
1765877446.493131,495
1765877446.493136,496
1765877446.493141,493
1765877446.4931462,494
1765877446.493151,495
1765877446.4931562,493
1765877446.493161,493
1765877446.493168,495
1765877446.4931772,496
1765877446.493182,495
1765877446.4931872,496
1765877446.493192,495
1765877446.4931982,496
1765877446.493206,496
1765877446.4932108,497
1765877446.493216,495
1765877446.493221,497
1765877446.493227,495
1765877446.493232,496
1765877446.493237,496
1765877446.493257,496
1765877446.493262,497
1765877446.493268,496
1765877446.493273,494
1765877446.493278,493
1765877446.493283,493
1765877446.493289,493
1765877446.493294,495
1765877446.493299,494
1765877446.4933052,495
1765877446.493312,494
1765877446.4933171,494
1765877446.4933262,495
1765877446.493333,495
1765877446.4933429,496
1765877446.4933481,495
1765877446.493354,495
1765877446.493361,494
1765877446.49337,495
1765877446.493375,496
1765877446.493383,497
1765877446.4933891,498
1765877446.493394,498
1765877446.4933991,496
1765877446.493404,496
1765877446.493409,494
1765877446.4934149,492
1765877446.4934201,495
1765877446.493432,494
1765877446.49344,493
1765877446.4934452,496
1765877446.49345,498
1765877446.4934552,499
1765877446.493461,499
1765877446.4934661,497
1765877446.493472,491
1765877446.4934819,494
1765877446.4934888,496
1765877446.493494,497
1765877446.493501,498
1765877446.4935098,500
1765877446.493515,496
1765877446.493522,496
1765877446.493527,498
1765877446.493546,497
1765877446.493553,497
1765877446.493558,493
1765877446.493563,488
1765877446.493568,492
1765877446.4935732,494
1765877446.493579,494
1765877446.493584,495
1765877446.493589,495
1765877446.4935942,495
1765877446.493599,494
1765877446.4936042,493
1765877446.493609,494
1765877446.4936152,494
1765877446.49362,494
1765877446.4936252,494
1765877446.49363,495
1765877446.4936352,495
1765877446.49364,495
1765877446.4936461,495
1765877446.4936588,494
1765877446.493664,495
1765877446.493671,495
1765877446.4936771,495
1765877446.493684,495
1765877446.493689,495
1765877446.493694,495
1765877446.493699,495
1765877446.4937038,496
1765877446.49371,495
1765877446.493715,495
1765877446.49372,496
1765877446.4937248,497
1765877446.49373,497
1765877446.4937348,500
1765877446.49374,500
1765877446.4937458,493
1765877446.493752,490
1765877446.493758,494
1765877446.4937642,496
1765877446.49377,494
1765877446.4937751,493
1765877446.49378,495
1765877446.4937851,495
1765877446.49379,496
1765877446.493796,494
1765877446.493803,495
1765877446.493808,497
1765877446.493813,500
1765877446.49382,500
1765877446.4938262,498
1765877446.493834,493
1765877446.493841,493
1765877446.493848,497
1765877446.493856,495
1765877446.4938629,493
1765877446.49387,492
1765877446.493877,494
1765877446.4938838,493
1765877446.49389,493
1765877446.493896,494
1765877446.493901,494
1765877446.493906,494
1765877446.493911,495
1765877446.493918,495
1765877446.4939241,495
1765877446.493929,495
1765877446.4939342,494
1765877446.493939,495
1765877446.493949,495
1765877446.493954,495
1765877446.493959,495
1765877446.493964,494
1765877446.49397,494
1765877446.493975,494
1765877446.49398,495
1765877446.493987,495
1765877446.493994,494
1765877446.493999,494
1765877446.494004,495
1765877446.494009,495
1765877446.494014,495
1765877446.49402,497
1765877446.494025,498
1765877446.49403,500
1765877446.494035,500
1765877446.49404,499
1765877446.494045,495
1765877446.494051,492
1765877446.494056,490
1765877446.494061,494
1765877446.494066,494
1765877446.494071,493
1765877446.494076,493
1765877446.494082,494
1765877446.494087,494
1765877446.494092,495
1765877446.494097,494
1765877446.494102,494
1765877446.4941068,495
1765877446.494113,494
1765877446.494118,496
1765877446.494123,499
1765877446.49413,500
1765877446.4941351,500
1765877446.494142,501
1765877446.494148,499
1765877446.494155,496
1765877446.494161,497
1765877446.494168,496
1765877446.494175,493
1765877446.4941819,489
1765877446.494189,491
1765877446.494196,492
1765877446.4942012,493
1765877446.494207,495
1765877446.494213,493
1765877446.494219,495
1765877446.4942238,495
1765877446.49423,497
1765877446.494236,497
1765877446.494241,497
1765877446.494247,494
1765877446.4942532,495
1765877446.494258,493
1765877446.4942641,493
1765877446.4942698,496
1765877446.494276,498
1765877446.494281,499
1765877446.494293,501
1765877446.494299,499
1765877446.494304,491
1765877446.49431,493
1765877446.494315,496
1765877446.4943202,497
1765877446.494325,494
1765877446.4943302,494
1765877446.494336,496
1765877446.4943411,497
1765877446.494346,496
1765877446.4943511,495
1765877446.494356,494
1765877446.4943612,492
1765877446.494366,494
1765877446.494376,494
1765877446.494381,494
1765877446.494387,494
1765877446.4943922,495
1765877446.494397,494
1765877446.494402,495
1765877446.494408,495
1765877446.4944131,495
1765877446.494418,496
1765877446.4944232,496
1765877446.494428,494
1765877446.494433,495
1765877446.4944441,495
1765877446.494451,495
1765877446.494457,495
1765877446.494462,494
1765877446.494474,494
1765877446.4944818,495
1765877446.4944901,495
1765877446.494496,495
1765877446.4945018,495
1765877446.494507,496
1765877446.4945128,494
1765877446.494519,494
1765877446.494524,494
1765877446.49453,494
1765877446.494536,494
1765877446.4945412,495
1765877446.494547,496
1765877446.494553,496
1765877446.494559,496
1765877446.494564,495
1765877446.49457,496
1765877446.4945762,496
1765877446.494581,496
1765877446.494587,497
1765877446.494593,497
1765877446.4945989,498
1765877446.494604,499
1765877446.494612,498
1765877446.494619,494
1765877446.494624,493
1765877446.4946299,494
1765877446.494636,494
1765877446.494643,496
1765877446.4946501,497
1765877446.494655,495
1765877446.494661,497
1765877446.494667,495
1765877446.494673,497
1765877446.494678,497
1765877446.494684,495
1765877446.49469,493
1765877446.494696,496
1765877446.4947011,496
1765877446.4947069,498
1765877446.494714,500
1765877446.494719,496
1765877446.4947252,489
1765877446.494731,495
1765877446.494737,496
1765877446.494743,494
1765877446.4947479,493
1765877446.494754,492
1765877446.49476,492
1765877446.494766,493
1765877446.4947782,493
1765877446.494785,493
1765877446.4947898,493
1765877446.494795,494
1765877446.4947999,494
1765877446.494806,494
1765877446.4948108,494
1765877446.494816,495
1765877446.494821,495
1765877446.494826,495
1765877446.494832,495
1765877446.494837,495
1765877446.494842,495
1765877446.494847,495
1765877446.494852,495
1765877446.494858,494
1765877446.494863,495
1765877446.494868,495
1765877446.494874,495
1765877446.494879,496
1765877446.494884,497
1765877446.494889,497
1765877446.4948952,497
1765877446.4949,497
1765877446.494905,498
1765877446.49491,499
1765877446.494915,497
1765877446.494922,498
1765877446.494928,501
1765877446.494933,502
1765877446.4949389,499
1765877446.494944,498
1765877446.494949,496
1765877446.4949539,493
1765877446.49496,492
1765877446.494965,493
1765877446.4949708,492
1765877446.494976,493
1765877446.494982,494
1765877446.494988,495
1765877446.494994,495
1765877446.495003,496
1765877446.495009,496
1765877446.495014,495
1765877446.4950202,494
1765877446.4950259,494
1765877446.495031,495
1765877446.4950368,494
1765877446.495043,494
1765877446.495049,495
1765877446.4950552,495
1765877446.49506,495
1765877446.4950662,495
1765877446.495073,496
1765877446.49508,496
1765877446.4950862,496
1765877446.495092,497
1765877446.495098,499
1765877446.495104,500
1765877446.495109,500
1765877446.495115,498
1765877446.495121,491
1765877446.495127,495
1765877446.495132,495
1765877446.495138,496
1765877446.495144,494
1765877446.49515,494
1765877446.4951549,495
1765877446.495161,496
1765877446.495167,494
1765877446.495172,496
1765877446.495178,496
1765877446.495184,494
1765877446.49519,496
1765877446.495195,496
1765877446.495201,496
1765877446.4952068,493
1765877446.495213,493
1765877446.495218,495
1765877446.495224,495
1765877446.495233,495
1765877446.495239,496
1765877446.495245,495
1765877446.495251,493
1765877446.4952571,495
1765877446.4952629,494
1765877446.495269,494
1765877446.495275,494
1765877446.49528,496
1765877446.495286,496
1765877446.495291,497
1765877446.495297,497
1765877446.495302,496
1765877446.495307,496
1765877446.495312,497
1765877446.495317,497
1765877446.495323,497
1765877446.495328,496
1765877446.4953332,494
1765877446.495338,493
1765877446.4953432,493
1765877446.495349,495
1765877446.4953542,495
1765877446.495359,495
1765877446.4953642,496
1765877446.49537,494
1765877446.4953759,493
1765877446.495382,495
1765877446.4953878,495
1765877446.495393,495
1765877446.4953978,495
1765877446.495403,495
1765877446.495409,494
1765877446.495414,495
1765877446.4954188,495
1765877446.495424,496
1765877446.495429,496
1765877446.495436,495
1765877446.4954429,497
1765877446.49545,496
1765877446.495457,497
1765877446.495465,497
1765877446.4954722,497
1765877446.495479,496
1765877446.4954848,495
1765877446.495491,494
1765877446.495496,494
1765877446.495501,494
1765877446.4955058,495
1765877446.495512,496
1765877446.495517,495
1765877446.495522,495
1765877446.495527,495
1765877446.4955342,496
1765877446.49554,496
1765877446.495546,497
1765877446.4955509,497
1765877446.495556,498
1765877446.495563,500
1765877446.495569,500
1765877446.495574,498
1765877446.49558,495
1765877446.4955862,495
1765877446.4955919,498
1765877446.4955971,497
1765877446.4956028,496
1765877446.495609,495
1765877446.495615,494
1765877446.4956212,493
1765877446.495626,494
1765877446.495632,495
1765877446.4956381,493
1765877446.4956439,493
1765877446.49565,494
1765877446.4956548,493
1765877446.495661,494
1765877446.495667,494
1765877446.4956732,495
1765877446.495678,495
1765877446.4956841,496
1765877446.495695,497
1765877446.495702,496
1765877446.495708,496
1765877446.495713,496
1765877446.495719,495
1765877446.4957252,496
1765877446.4957309,495
1765877446.495737,495
1765877446.4957418,495
1765877446.495748,496
1765877446.495754,495
1765877446.49576,495
1765877446.495766,495
1765877446.495771,494
1765877446.4957771,496
1765877446.4957829,496
1765877446.495789,495
1765877446.495795,495
1765877446.495801,494
1765877446.495806,494
1765877446.4958122,496
1765877446.495818,499
1765877446.4958231,498
1765877446.495829,499
1765877446.4958348,497
1765877446.495841,494
1765877446.495847,494
1765877446.4958541,496
1765877446.495862,494
1765877446.495868,493
1765877446.495873,493
1765877446.495879,495
1765877446.4958851,494
1765877446.4958909,495
1765877446.495897,496
1765877446.495902,495
1765877446.495908,494
1765877446.495914,495
1765877446.495919,495
1765877446.495925,495
1765877446.495931,495
1765877446.495937,494
1765877446.495944,494
1765877446.49595,495
1765877446.495956,495
1765877446.4959612,497
1765877446.495967,497
1765877446.495973,496
1765877446.495979,496
1765877446.495984,496
1765877446.49599,494
1765877446.495996,493
1765877446.496002,493
1765877446.496007,495
1765877446.496015,499
1765877446.496022,501
1765877446.496028,504
1765877446.496033,506
1765877446.496039,501
1765877446.496045,492
1765877446.4960508,491
1765877446.496056,490
1765877446.496062,491
1765877446.496068,491
1765877446.496074,492
1765877446.49608,494
1765877446.496085,495
1765877446.496091,495
1765877446.496097,495
1765877446.4961028,495
1765877446.496109,495
1765877446.496114,495
1765877446.49612,495
1765877446.496126,496
1765877446.4961321,497
1765877446.496138,497
1765877446.496143,497
1765877446.496149,493
1765877446.4961548,493
1765877446.496161,494
1765877446.496168,495
1765877446.496175,495
1765877446.496181,494
1765877446.496187,496
1765877446.496193,497
1765877446.496198,498
1765877446.4962041,499
1765877446.4962099,500
1765877446.496215,496
1765877446.4962208,496
1765877446.496227,496
1765877446.496233,491
1765877446.4962392,494
1765877446.496244,495
1765877446.4962502,495
1765877446.496256,493
1765877446.4962618,493
1765877446.496268,494
1765877446.4962728,495
1765877446.496279,497
1765877446.496285,497
1765877446.49629,500
1765877446.496295,501
1765877446.4963021,496
1765877446.496309,492
1765877446.496317,493
1765877446.496325,493
1765877446.4963331,495
1765877446.49634,494
1765877446.496346,494
1765877446.496352,494
1765877446.4963572,495
1765877446.496362,495
1765877446.4963672,495
1765877446.496373,496
1765877446.4963782,496
1765877446.496383,494
1765877446.4963882,494
1765877446.496393,494
1765877446.4963992,494
1765877446.496405,494
1765877446.4964108,494
1765877446.496419,495
1765877446.4964259,495
1765877446.4964328,495
1765877446.4964402,495
1765877446.496446,495
1765877446.496452,496
1765877446.4964569,496
1765877446.496463,496
1765877446.496469,495
1765877446.496475,495
1765877446.49648,496
1765877446.496486,495
1765877446.496493,495
1765877446.4965,496
1765877446.4965062,499
1765877446.496511,500
1765877446.4965172,499
1765877446.496523,499
1765877446.496528,496
1765877446.496534,495
1765877446.4965398,496
1765877446.496546,495
1765877446.496563,494
1765877446.49657,492
1765877446.496577,493
1765877446.496583,493
1765877446.496589,494
1765877446.496594,494
1765877446.4966002,495
1765877446.4966059,494
1765877446.496613,494
1765877446.49662,495
1765877446.496626,495
1765877446.496632,495
1765877446.496638,495
1765877446.496643,495
1765877446.496649,495
1765877446.496655,494
1765877446.496662,495
1765877446.4966688,495
1765877446.496675,496
1765877446.496682,497
1765877446.49669,497
1765877446.496696,498
1765877446.496701,496
1765877446.496707,496
1765877446.496713,495
1765877446.4967191,499
1765877446.496725,502
1765877446.4967308,506
1765877446.496737,505
1765877446.496743,500
1765877446.496748,489
1765877446.496754,490
1765877446.4967601,491
1765877446.4967659,492
1765877446.496771,492
1765877446.496777,493
1765877446.496782,493
1765877446.496788,494
1765877446.496793,493
1765877446.496798,494
1765877446.496803,494
1765877446.496808,494
1765877446.496813,495
1765877446.496824,495
1765877446.496831,494
1765877446.4968362,495
1765877446.496841,495
1765877446.4968581,496
1765877446.496863,495
1765877446.4968681,494
1765877446.496873,494
1765877446.496879,494
1765877446.4968839,495
1765877446.496889,495
1765877446.496895,494
1765877446.4969,495
1765877446.4969049,495
1765877446.49691,495
1765877446.496916,495
1765877446.496922,495
1765877446.496927,495
1765877446.4969332,495
1765877446.496939,496
1765877446.4969442,498
1765877446.49695,499
1765877446.4969559,502
1765877446.496962,501
1765877446.4969668,498
1765877446.496973,497
1765877446.496979,495
1765877446.496989,493
1765877446.4969962,490
1765877446.497002,491
1765877446.497008,493
1765877446.497014,493
1765877446.4970188,495
1765877446.497025,495
1765877446.497031,494
1765877446.4970372,494
1765877446.497042,495
1765877446.4970481,495
1765877446.4970539,496
1765877446.497059,496
1765877446.497065,496
1765877446.497071,496
1765877446.497076,496
1765877446.497082,497
1765877446.497088,497
1765877446.497094,498
1765877446.497099,498
1765877446.497105,498
1765877446.497111,497
1765877446.4971159,494
1765877446.4971259,495
1765877446.497132,496
1765877446.497138,495
1765877446.4971452,496
1765877446.497152,497
1765877446.4971578,495
1765877446.497164,495
1765877446.49717,495
1765877446.497175,495
1765877446.497181,496
1765877446.4971871,496
1765877446.497192,497
1765877446.497198,497
1765877446.497204,498
1765877446.497209,499
1765877446.497215,498
1765877446.4972212,496
1765877446.497227,497
1765877446.497232,495
1765877446.497238,496
1765877446.497244,498
1765877446.49725,496
1765877446.497256,494
1765877446.497261,493
1765877446.497267,493
1765877446.4972732,494
1765877446.497279,494
1765877446.4972851,494
1765877446.497291,495
1765877446.4972959,495
1765877446.497304,495
1765877446.49731,494
1765877446.4973161,494
1765877446.497322,495
1765877446.497327,495
1765877446.497338,495
1765877446.497343,497
1765877446.497349,501
1765877446.497355,501
1765877446.497361,501
1765877446.4973671,499
1765877446.4973729,492
1765877446.497379,490
1765877446.4973838,494
1765877446.49739,494
1765877446.497403,495
1765877446.497409,493
1765877446.4974139,494
1765877446.49742,495
1765877446.497426,496
1765877446.497432,496
1765877446.497437,495
1765877446.497443,494
1765877446.497449,494
1765877446.4974542,495
1765877446.49746,495
1765877446.497466,494
1765877446.497477,494
1765877446.497484,495
1765877446.497493,496
1765877446.497499,495
1765877446.497505,495
1765877446.497511,495
1765877446.497517,496
1765877446.4975219,495
1765877446.497528,495
1765877446.497534,495
1765877446.49754,495
1765877446.497546,495
1765877446.497557,495
1765877446.497563,495
1765877446.497568,495
1765877446.4975739,495
1765877446.49758,495
1765877446.4975848,495
1765877446.4975948,495
1765877446.497601,495
1765877446.497607,495
1765877446.497613,496
1765877446.497618,495
1765877446.4976242,495
1765877446.49763,495
1765877446.497636,495
1765877446.497644,495
1765877446.49765,494
1765877446.497656,495
1765877446.4976609,496
1765877446.497667,496
1765877446.497673,494
1765877446.497679,495
1765877446.497684,495
1765877446.4976902,496
1765877446.497696,497
1765877446.4977012,496
1765877446.497707,496
1765877446.4977129,494
1765877446.497719,494
1765877446.4977238,494
1765877446.49773,495
1765877446.497736,495
1765877446.4977422,495
1765877446.497748,494
1765877446.4977531,495
1765877446.4977589,495
1765877446.497765,496
1765877446.497771,496
1765877446.497776,496
1765877446.497782,495
1765877446.497793,495
1765877446.497799,494
1765877446.497808,495
1765877446.4978151,495
1765877446.497822,496
1765877446.497828,496
1765877446.497833,495
1765877446.4978392,495
1765877446.497845,496
1765877446.497851,495
1765877446.497858,494
1765877446.497865,494
1765877446.4978712,493
1765877446.497876,494
1765877446.4978821,495
1765877446.497888,495
1765877446.4978938,495
1765877446.4979022,494
1765877446.497909,495
1765877446.497916,496
1765877446.497922,496
1765877446.497928,496
1765877446.497934,495
1765877446.4979389,495
1765877446.497945,495
1765877446.497951,495
1765877446.4979572,495
1765877446.497963,495
1765877446.4979682,495
1765877446.497975,495
1765877446.497982,495
1765877446.497988,495
1765877446.497994,495
1765877446.4979992,495
1765877446.498005,495
1765877446.4980109,495
1765877446.498016,495
1765877446.4980218,495
1765877446.498028,495
1765877446.498034,495
1765877446.498039,494
1765877446.498045,496
1765877446.4980512,495
1765877446.498057,496
1765877446.4980621,495
1765877446.4980679,494
1765877446.498074,493
1765877446.49808,494
1765877446.498085,494
1765877446.498091,495
1765877446.498097,495
1765877446.498102,495
1765877446.498108,496
1765877446.498114,495
1765877446.4981189,495
1765877446.498125,495
1765877446.498134,495
1765877446.4981408,493
1765877446.498147,493
1765877446.498152,492
1765877446.498158,493
1765877446.498164,494
1765877446.4981701,495
1765877446.498176,496
1765877446.4981818,496
1765877446.498188,497
1765877446.498194,497
1765877446.498199,496
1765877446.498205,496
1765877446.4982111,495
1765877446.498216,495
1765877446.498222,495
1765877446.49823,495
1765877446.498236,495
1765877446.4982421,496
1765877446.498247,495
1765877446.498253,495
1765877446.4982588,495
1765877446.498264,496
1765877446.49827,495
1765877446.498276,495
1765877446.498281,495
1765877446.4982898,495
1765877446.498297,496
1765877446.498304,496
1765877446.4983108,495
1765877446.498317,496
1765877446.498324,495
1765877446.4983308,495
1765877446.498336,496
1765877446.4983418,495
1765877446.498347,494
1765877446.498352,494
1765877446.498357,495
1765877446.498362,495
1765877446.498368,495
1765877446.498373,495
1765877446.498378,496
1765877446.498383,496
1765877446.498388,496
1765877446.498394,495
1765877446.4984,495
1765877446.498406,495
1765877446.4984121,495
1765877446.498417,495
1765877446.498423,495
1765877446.4984288,495
1765877446.498435,495
1765877446.498441,495
1765877446.498446,495
1765877446.498454,495
1765877446.4984598,495
1765877446.498466,496
1765877446.498472,495
1765877446.498477,495
1765877446.498483,496
1765877446.4984891,495
1765877446.4984949,495
1765877446.4985,495
1765877446.498506,495
1765877446.4985118,496
1765877446.498518,495
1765877446.498524,495
1765877446.498529,496
1765877446.498535,495
1765877446.498541,495
1765877446.4985468,496
1765877446.498552,496
1765877446.498558,496
1765877446.498564,496
1765877446.49857,496
1765877446.498576,494
1765877446.498581,494
1765877446.498587,496
1765877446.498593,496
1765877446.4985988,495
1765877446.498605,496
1765877446.498612,496
1765877446.4986188,496
1765877446.498625,495
1765877446.4986298,495
1765877446.498636,495
1765877446.498642,494
1765877446.498647,494
1765877446.498653,495
1765877446.4986591,495
1765877446.498667,495
1765877446.498673,495
1765877446.498679,494
1765877446.498685,493
1765877446.498691,495
1765877446.4986959,495
1765877446.498702,495
1765877446.498708,496
1765877446.4987142,497
1765877446.498719,496
1765877446.4987252,495
1765877446.498731,495
1765877446.4987361,496
1765877446.498742,495
1765877446.4987478,495
1765877446.498753,495
1765877446.4987588,495
1765877446.49877,495
1765877446.498776,495
1765877446.4987829,496
1765877446.498788,494
1765877446.498794,496
1765877446.498799,495
1765877446.498805,495
1765877446.4988108,495
1765877446.498816,495
1765877446.498822,495
1765877446.498828,495
1765877446.498834,495
1765877446.4988391,495
1765877446.4988449,495
1765877446.49885,495
1765877446.4988558,495
1765877446.498867,496
1765877446.498872,495
1765877446.498878,496
1765877446.4988842,495
1765877446.49889,496
1765877446.4988952,495
1765877446.498901,495
1765877446.4989069,495
1765877446.498912,495
1765877446.4989178,495
1765877446.498924,496
1765877446.498931,495
1765877446.4989371,495
1765877446.498943,496
1765877446.498949,496
1765877446.498955,495
1765877446.498961,495
1765877446.498969,495
1765877446.498975,494
1765877446.49898,495
1765877446.498986,495
1765877446.4989922,496
1765877446.498998,496
1765877446.499003,496
1765877446.4990091,497
1765877446.4990149,496
1765877446.4990232,495
1765877446.49903,495
1765877446.499037,494
1765877446.499042,495
1765877446.499048,495
1765877446.4990542,495
1765877446.49906,496
1765877446.499066,495
1765877446.499072,494
1765877446.499077,495
1765877446.499083,495
1765877446.499089,496
1765877446.4990962,495
1765877446.499105,495
1765877446.499111,495
1765877446.4991171,496
1765877446.4991732,495
1765877446.4992042,495
1765877446.499211,495
1765877446.4992168,495
1765877446.499223,495
1765877446.499229,496
1765877446.4992352,496
1765877446.499249,495
1765877446.499255,495
1765877446.499261,494
1765877446.499267,494
1765877446.499273,495
1765877446.499279,495
1765877446.499285,495
1765877446.499291,495
1765877446.4992971,497
1765877446.4993029,499
1765877446.499309,498
1765877446.499315,497
1765877446.499321,497
1765877446.499327,498
1765877446.4993331,498
1765877446.499339,497
1765877446.499347,496
1765877446.4993541,496
1765877446.499375,497
1765877446.499388,496
1765877446.499394,497
1765877446.4994,497
1765877446.499406,496
1765877446.499412,497
1765877446.499418,497
1765877446.499424,496
1765877446.49943,495
1765877446.4994361,496
1765877446.4994419,495
1765877446.499448,495
1765877446.499454,496
1765877446.49946,496
1765877446.499489,496
1765877446.499496,496
1765877446.4995022,495
1765877446.499508,494
1765877446.499514,492
1765877446.4995189,493
1765877446.499525,494
1765877446.499531,496
1765877446.4995358,499
1765877446.499542,498
1765877446.499552,498
1765877446.499558,498
1765877446.499564,497
1765877446.499569,496
1765877446.499574,496
1765877446.49958,496
1765877446.499585,497
1765877446.4995909,497
1765877446.499596,497
1765877446.4996018,496
1765877446.499607,496
1765877446.4996119,496
1765877446.499617,495
1765877446.4996228,496
1765877446.499629,496
1765877446.499635,495
1765877446.4996412,496
1765877446.499646,497
1765877446.4996521,496
1765877446.4996579,496
1765877446.4996638,496
1765877446.499671,496
1765877446.499677,496
1765877446.499682,496
1765877446.499691,496
1765877446.499696,497
1765877446.499701,496
1765877446.499718,497
1765877446.4997241,497
1765877446.499729,496
1765877446.499734,496
1765877446.49974,496
1765877446.4997451,496
1765877446.49975,496
1765877446.499756,496
1765877446.4997609,496
1765877446.499767,495
1765877446.4997718,496
1765877446.499777,496
1765877446.4997828,496
1765877446.499788,496
1765877446.4997928,497
1765877446.499798,497
1765877446.499804,497
1765877446.499809,496
1765877446.499819,496
1765877446.499824,496
1765877446.499829,496
1765877446.4998348,497
1765877446.49984,497
1765877446.499846,496
1765877446.499851,496
1765877446.499857,496
1765877446.499864,496
1765877446.49987,496
1765877446.499876,496
1765877446.499882,497
1765877446.499887,495
1765877446.499892,496
1765877446.499897,496
1765877446.499903,496
1765877446.4999082,496
1765877446.499918,496
1765877446.499923,496
1765877446.4999292,496
1765877446.499934,497
1765877446.499939,496
1765877446.499945,497
1765877446.4999502,497
1765877446.499956,496
1765877446.4999611,497
1765877446.499966,496
1765877446.499972,496
1765877446.4999769,496
1765877446.499982,496
1765877446.499988,496
1765877446.499993,496
1765877446.4999979,495
1765877446.500003,496
1765877446.500009,496
1765877446.500015,496
1765877446.500022,497
1765877446.500028,497
1765877446.500034,497
1765877446.5000389,497
1765877446.500044,497
1765877446.5000489,497
1765877446.500055,496
1765877446.5000598,496
1765877446.500065,497
1765877446.5000699,496
1765877446.500078,497
1765877446.5000849,496
1765877446.500093,497
1765877446.5001001,496
1765877446.500106,496
1765877446.5001118,496
1765877446.500118,496
1765877446.500124,497
1765877446.50013,496
1765877446.500136,497
1765877446.500142,497
1765877446.500148,497
1765877446.500154,497
1765877446.500159,496
1765877446.5001652,496
1765877446.50017,496
1765877446.500175,496
1765877446.5001862,496
1765877446.500192,496
1765877446.500204,495
1765877446.5002098,497
1765877446.500215,497
1765877446.500221,497
1765877446.500226,497
1765877446.500231,497
1765877446.500237,496
1765877446.500242,496
1765877446.500247,496
1765877446.500252,496
1765877446.500258,496
1765877446.500263,496
1765877446.500268,496
1765877446.500273,496
1765877446.500279,496
1765877446.500284,497
1765877446.500289,496
1765877446.500294,496
1765877446.5003,497
1765877446.500305,497
1765877446.50031,496
1765877446.500315,496
1765877446.500321,496
1765877446.500326,497
1765877446.500331,497
1765877446.5003378,496
1765877446.500345,496
1765877446.50035,496
1765877446.5003562,496
1765877446.500361,496
1765877446.500366,496
1765877446.500371,496
1765877446.5003772,496
1765877446.500382,496
1765877446.500387,496
1765877446.500392,496
1765877446.5003982,496
1765877446.500403,496
1765877446.5004082,496
1765877446.500413,496
1765877446.5004191,495
1765877446.5004249,496
1765877446.50043,496
1765877446.5004349,496
1765877446.500441,496
1765877446.5004458,496
1765877446.500451,497
1765877446.500458,497
1765877446.500476,496
1765877446.500484,496
1765877446.500491,496
1765877446.5004969,496
1765877446.500504,496
1765877446.500511,496
1765877446.5005171,496
1765877446.500523,497
1765877446.5005288,496
1765877446.500535,496
1765877446.500541,496
1765877446.5005472,496
1765877446.500553,496
1765877446.500559,495
1765877446.5005639,496
1765877446.50057,496
1765877446.500576,496
1765877446.500582,495
1765877446.500588,496
1765877446.500594,496
1765877446.5006,496
1765877446.500606,496
1765877446.500612,497
1765877446.500618,496
1765877446.500624,496
1765877446.50063,495
1765877446.5006359,495
1765877446.500642,496
1765877446.500648,496
1765877446.500654,496
1765877446.500662,496
1765877446.5006678,496
1765877446.500674,496
1765877446.500679,496
1765877446.500685,496
1765877446.50069,496
1765877446.500695,496
1765877446.500701,496
1765877446.500706,496
1765877446.500711,497
1765877446.5007172,497
1765877446.500722,496
1765877446.500727,496
1765877446.500733,496
1765877446.5007381,495
1765877446.500743,496
1765877446.500748,496
1765877446.5007539,496
1765877446.5007591,496
1765877446.5007648,496
1765877446.50077,496
1765877446.5007749,496
1765877446.50078,496
1765877446.5007858,496
1765877446.500791,496
1765877446.5008,496
1765877446.5008051,496
1765877446.500818,495
1765877446.5008252,496
1765877446.50083,495
1765877446.5008352,496
1765877446.500841,496
1765877446.5008461,496
1765877446.500851,495
1765877446.500861,496
1765877446.5008671,496
1765877446.500872,495
1765877446.5008771,496
1765877446.5008829,495
1765877446.500888,496
1765877446.500894,495
1765877446.500899,495
1765877446.5009038,496
1765877446.50091,495
1765877446.500915,495
1765877446.5009222,495
1765877446.500929,495
1765877446.500937,495
1765877446.500944,495
1765877446.500951,496
1765877446.500959,496
1765877446.5009658,495
1765877446.500972,495
1765877446.5009768,495
1765877446.500984,495
1765877446.5009909,496
1765877446.500996,496
1765877446.501001,495
1765877446.5010061,495
1765877446.501012,495
1765877446.501017,496
1765877446.5010219,496
1765877446.501028,496
1765877446.501033,496
1765877446.501038,497
1765877446.5010428,497
1765877446.501049,496
1765877446.501054,495
1765877446.501059,494
1765877446.5010638,494
1765877446.50107,494
1765877446.501075,495
1765877446.50108,495
1765877446.501085,496
1765877446.501091,496
1765877446.501096,496
1765877446.501101,495
1765877446.501106,495
1765877446.501112,495
1765877446.501117,495
1765877446.501122,495
1765877446.501129,496
1765877446.5011358,496
1765877446.501141,496
1765877446.501146,495
1765877446.501152,495
1765877446.501157,496
1765877446.501162,496
1765877446.501167,495
1765877446.501173,495
1765877446.501179,495
1765877446.501185,495
1765877446.501191,495
1765877446.501197,495
1765877446.501203,495
1765877446.501208,496
1765877446.501214,495
1765877446.50122,495
1765877446.50123,495
1765877446.501236,495
1765877446.5012422,495
1765877446.501248,495
1765877446.5012538,496
1765877446.501259,495
1765877446.5012648,495
1765877446.501271,495
1765877446.501277,495
1765877446.5012832,496
1765877446.501291,496
1765877446.501297,495
1765877446.501302,495
1765877446.501308,495
1765877446.5013142,495
1765877446.50132,495
1765877446.5013251,495
1765877446.5013309,495
1765877446.501337,494
1765877446.501343,495
1765877446.5013492,495
1765877446.501355,495
1765877446.501361,495
1765877446.501367,496
1765877446.5013728,496
1765877446.501379,496
1765877446.501385,496
1765877446.5013912,495
1765877446.501396,495
1765877446.5014021,496
1765877446.501408,495
1765877446.5014138,494
1765877446.50142,495
1765877446.501426,495
1765877446.5014322,495
1765877446.501437,495
1765877446.501445,495
1765877446.501452,495
1765877446.501458,495
1765877446.5014641,495
1765877446.5014699,496
1765877446.501476,497
1765877446.501481,496
1765877446.501487,496
1765877446.501493,496
1765877446.501499,496
1765877446.5015051,497
1765877446.5015109,496
1765877446.501516,497
1765877446.5015218,496
1765877446.501528,496
1765877446.501534,496
1765877446.5015402,496
1765877446.501546,496
1765877446.5015512,496
1765877446.5015569,495
1765877446.5015628,496
1765877446.501569,496
1765877446.501575,495
1765877446.501581,495
1765877446.501587,495
1765877446.5015922,496
1765877446.501598,496
1765877446.501605,495
1765877446.501612,496
1765877446.501618,495
1765877446.501624,495
1765877446.50163,495
1765877446.501635,495
1765877446.501641,496
1765877446.501647,495
1765877446.501653,495
1765877446.501659,495
1765877446.501664,495
1765877446.50167,495
1765877446.501676,495
1765877446.5016818,495
1765877446.501688,495
1765877446.501694,495
1765877446.501703,494
1765877446.5017211,495
1765877446.501739,495
1765877446.501757,495
1765877446.501776,496
1765877446.5017998,496
1765877446.5018182,495
1765877446.501837,495
1765877446.501856,495
1765877446.501874,495
1765877446.501898,495
1765877446.50192,496
1765877446.50195,495
1765877446.501968,495
1765877446.501992,495
1765877446.502014,495
1765877446.5020318,495
1765877446.502051,495
1765877446.50207,495
1765877446.502094,495
1765877446.502113,495
1765877446.502131,495
1765877446.5021498,494
1765877446.5021682,495
1765877446.502186,495
1765877446.5022101,495
1765877446.502229,496
1765877446.502248,495
1765877446.502267,495
1765877446.502285,495
1765877446.502303,496
1765877446.502321,495
1765877446.50234,495
1765877446.502358,495
1765877446.5023758,495
1765877446.502395,495
1765877446.502413,496
1765877446.5024362,495
1765877446.502454,495
1765877446.5024729,494
1765877446.502492,495
1765877446.502511,495
1765877446.502529,495
1765877446.502547,495
1765877446.502552,495
1765877446.502557,495
1765877446.502562,495
1765877446.502568,494
1765877446.502573,495
1765877446.502578,495
1765877446.502583,495
1765877446.502589,494
1765877446.502594,495
1765877446.502599,495
1765877446.502604,494
1765877446.502609,495
1765877446.502614,494
1765877446.502644,495
1765877446.502686,495
1765877446.502702,495
1765877446.5027149,495
1765877446.502728,495
1765877446.50274,496
1765877446.5027578,495
1765877446.5027719,495
1765877446.502785,495
1765877446.502798,495
1765877446.502811,495
1765877446.502826,496
1765877446.50284,495
1765877446.5028522,495
1765877446.5028648,495
1765877446.502878,495
1765877446.502892,495
1765877446.502906,495
1765877446.502919,496
1765877446.502933,496
1765877446.502948,496
1765877446.502961,495
1765877446.5030248,495
1765877446.503042,495
1765877446.503055,495
1765877446.503068,494
1765877446.5030808,494
1765877446.503093,495
1765877446.503105,495
1765877446.503118,495
1765877446.5031302,495
1765877446.5031412,495
1765877446.5031621,495
1765877446.503177,495
1765877446.503191,494
1765877446.5032032,495
1765877446.503216,495
1765877446.5032299,495
1765877446.503242,495
1765877446.503254,495
1765877446.503266,495
1765877446.503277,495
1765877446.503289,496
1765877446.5033011,496
1765877446.5033169,495
1765877446.5033321,495
1765877446.5033548,495
1765877446.503367,495
1765877446.5033789,496
1765877446.5033898,495
1765877446.503402,495
1765877446.503414,495
1765877446.5034251,495
1765877446.5034392,495
1765877446.503453,495
1765877446.503467,495
1765877446.503479,495
1765877446.5034912,495
1765877446.5035038,494
1765877446.503519,495
1765877446.503532,495
1765877446.503544,496
1765877446.503555,495
1765877446.5035672,495
1765877446.503579,495
1765877446.503593,495
1765877446.503607,495
1765877446.5036201,495
1765877446.5036318,495
1765877446.503646,495
1765877446.503658,495
1765877446.5036721,495
1765877446.503687,495
1765877446.5037,495
1765877446.503712,496
1765877446.503724,495
1765877446.503736,495
1765877446.503747,495
1765877446.5037591,495
1765877446.503773,495
1765877446.503787,495
1765877446.503801,495
1765877446.503813,495
1765877446.503825,495
1765877446.503838,495
1765877446.503853,496
1765877446.503867,496
1765877446.5038788,495
1765877446.503891,495
1765877446.503902,496
1765877446.503915,495
1765877446.5039291,494
1765877446.503944,495
1765877446.503956,495
1765877446.503968,495
1765877446.50398,495
1765877446.503992,495
1765877446.504004,495
1765877446.504016,495
1765877446.5040278,495
1765877446.50404,495
1765877446.504052,495
1765877446.504064,495
1765877446.504076,495
1765877446.5040882,495
1765877446.5041,495
1765877446.5041122,495
1765877446.504124,495
1765877446.5041358,496
1765877446.504148,496
1765877446.504162,496
1765877446.5041769,495
1765877446.504189,495
1765877446.504201,495
1765877446.504213,495
1765877446.504225,495
1765877446.504236,495
1765877446.5042481,495
1765877446.504259,495
1765877446.504271,494
1765877446.504283,495
1765877446.504294,494
1765877446.504307,494
1765877446.504318,496
1765877446.50433,496
1765877446.504342,496
1765877446.5043578,496
1765877446.5043688,496
1765877446.504381,496
1765877446.5043929,495
1765877446.504405,495
1765877446.504416,495
1765877446.504429,495
1765877446.504441,495
1765877446.504452,495
1765877446.504464,495
1765877446.504478,495
1765877446.504493,495
1765877446.5045052,496
1765877446.504517,495
1765877446.504529,495
1765877446.5045419,495
1765877446.504555,495
1765877446.50457,495
1765877446.5045838,495
1765877446.504596,495
1765877446.504608,496
1765877446.50462,495
1765877446.5046332,495
1765877446.504645,495
1765877446.5046568,495
1765877446.504669,495
1765877446.504682,495
1765877446.5046961,495
1765877446.50471,494
1765877446.5047219,496
1765877446.504734,495
1765877446.504747,496
1765877446.504759,496
1765877446.504771,495
1765877446.5047832,495
1765877446.5047958,495
1765877446.504813,495
1765877446.5048268,495
1765877446.5048409,495
1765877446.504853,494
1765877446.5048661,494
1765877446.504879,495
1765877446.504891,495
1765877446.504904,496
1765877446.504918,496
1765877446.50493,496
1765877446.5049431,496
1765877446.5049548,496
1765877446.504967,495
1765877446.504979,495
1765877446.504992,495
1765877446.505004,495
1765877446.505016,496
1765877446.505028,495
1765877446.5050418,495
1765877446.505054,496
1765877446.505066,496
1765877446.505078,496
1765877446.50509,496
1765877446.505103,495
1765877446.5051148,495
1765877446.505127,496
1765877446.505143,495
1765877446.505156,495
1765877446.505168,494
1765877446.50518,494
1765877446.505193,495
1765877446.505205,494
1765877446.505217,495
1765877446.505229,494
1765877446.505242,494
1765877446.5052538,495
1765877446.505291,494
1765877446.505305,494
1765877446.5053172,495
1765877446.505329,496
1765877446.5053408,496
1765877446.505353,496
1765877446.505365,495
1765877446.505377,495
1765877446.505389,495
1765877446.5054011,496
1765877446.505413,496
1765877446.505426,495
1765877446.505437,495
1765877446.50545,496
1765877446.505462,495
1765877446.5054731,495
1765877446.5054872,495
1765877446.5054998,495
1765877446.505512,495
1765877446.505524,495
1765877446.505536,495
1765877446.505548,495
1765877446.5055602,495
1765877446.505573,496
1765877446.505585,495
1765877446.5055969,494
1765877446.505609,495
1765877446.505621,495
1765877446.505633,495
1765877446.505645,494
1765877446.5056572,495
1765877446.505669,495
1765877446.5056808,495
1765877446.505693,495
1765877446.5057049,496
1765877446.505718,495
1765877446.5057302,494
1765877446.505743,495
1765877446.505756,494
1765877446.5057678,494
1765877446.50578,496
1765877446.505795,496
1765877446.5058088,495
1765877446.505822,495
1765877446.505834,495
1765877446.505846,495
1765877446.505858,495
1765877446.50587,495
1765877446.505882,495
1765877446.505894,495
1765877446.5059059,495
1765877446.505918,495
1765877446.50593,494
1765877446.505942,495
1765877446.505954,495
1765877446.5059662,495
1765877446.505978,495
1765877446.505993,495
1765877446.506005,495
1765877446.506017,495
1765877446.5060291,495
1765877446.50604,495
1765877446.506052,495
1765877446.506064,496
1765877446.506078,495
1765877446.506092,496
1765877446.5061061,496
1765877446.50612,496
1765877446.5061362,496
1765877446.506149,496
1765877446.506161,496
1765877446.506173,496
1765877446.506185,496
1765877446.506197,496
1765877446.5062091,496
1765877446.506295,496
1765877446.506308,497
1765877446.506322,497
1765877446.506337,497
1765877446.506351,496
1765877446.506363,496
1765877446.5063748,495
1765877446.506387,495
1765877446.506399,496
1765877446.506411,495
1765877446.506423,496
1765877446.506437,496
1765877446.506451,496
1765877446.506464,495
1765877446.506477,495
1765877446.506489,494
1765877446.5065012,494
1765877446.5065129,494
1765877446.506525,494
1765877446.506539,495
1765877446.5065541,495
1765877446.506567,495
1765877446.5065799,495
1765877446.506594,495
1765877446.506606,495
1765877446.506618,496
1765877446.5066319,495
1765877446.506644,495
1765877446.506667,495
1765877446.506679,495
1765877446.5066922,496
1765877446.5067039,495
1765877446.506716,495
1765877446.506728,495
1765877446.5067399,495
1765877446.506752,496
1765877446.5067651,495
1765877446.506777,495
1765877446.5067892,495
1765877446.506803,495
1765877446.506818,495
1765877446.506832,495
1765877446.5068438,495
1765877446.506856,495
1765877446.506868,495
1765877446.506882,495
1765877446.506897,495
1765877446.5069098,495
1765877446.506923,496
1765877446.5069351,495
1765877446.506948,495
1765877446.5069609,495
1765877446.506973,495
1765877446.506985,496
1765877446.506997,496
1765877446.507009,495
1765877446.507021,495
1765877446.507033,496
1765877446.507045,495
1765877446.507057,495
1765877446.5070689,496
1765877446.507081,495
1765877446.507093,495
1765877446.507106,495
1765877446.5071192,496
1765877446.5071309,495
1765877446.507143,495
1765877446.507156,495
1765877446.507168,495
1765877446.50718,496
1765877446.5071921,495
1765877446.507206,495
1765877446.507221,494
1765877446.507234,495
1765877446.507246,495
1765877446.5072582,495
1765877446.5072699,495
1765877446.507282,495
1765877446.507294,495
1765877446.507306,494
1765877446.507319,495
1765877446.50733,495
1765877446.507342,495
1765877446.507354,495
1765877446.507366,495
1765877446.5073779,495
1765877446.50739,496
1765877446.507402,497
1765877446.507414,496
1765877446.507426,494
1765877446.5074391,494
1765877446.507454,495
1765877446.507468,495
1765877446.5074801,495
1765877446.507493,495
1765877446.507505,494
1765877446.5075169,494
1765877446.5075321,494
1765877446.5075462,495
1765877446.5075579,496
1765877446.50757,495
1765877446.507582,495
1765877446.507595,495
1765877446.507607,495
1765877446.507621,495
1765877446.507633,495
1765877446.507645,495
1765877446.507657,495
1765877446.507669,495
1765877446.5076811,496
1765877446.507693,496
1765877446.507705,496
1765877446.5077188,495
1765877446.507732,494
1765877446.507745,494
1765877446.507757,494
1765877446.5077708,494
1765877446.507783,495
1765877446.5077949,495
1765877446.507807,494
1765877446.507819,495
1765877446.507831,495
1765877446.5078459,495
1765877446.507859,495
1765877446.507874,495
1765877446.5078862,495
1765877446.507898,495
1765877446.5079098,495
1765877446.507922,495
1765877446.507936,495
1765877446.507948,495
1765877446.50796,494
1765877446.5079732,494
1765877446.5079849,494
1765877446.507997,495
1765877446.508009,495
1765877446.5080209,496
1765877446.508033,495
1765877446.5080462,495
1765877446.508058,495
1765877446.50807,495
1765877446.508082,494
1765877446.5080938,495
1765877446.508106,495
1765877446.508118,495
1765877446.50813,495
1765877446.508142,495
1765877446.5081549,495
1765877446.5081658,495
1765877446.50818,495
1765877446.5081952,495
1765877446.508208,495
1765877446.50822,495
1765877446.508233,495
1765877446.508245,495
1765877446.508257,495
1765877446.508269,495
1765877446.50828,495
1765877446.5082922,496
1765877446.5083039,496
1765877446.508317,495
1765877446.508329,494
1765877446.508341,495
1765877446.508353,494
1765877446.5083652,494
1765877446.508377,495
1765877446.5083892,495
1765877446.508401,495
1765877446.5084128,495
1765877446.508425,496
1765877446.508437,496
1765877446.508449,495
1765877446.5084622,494
1765877446.508474,494
1765877446.5084858,494
1765877446.508499,494
1765877446.5085142,494
1765877446.5085282,494
1765877446.508539,494
1765877446.508551,494
1765877446.508585,495
1765877446.508598,495
1765877446.50861,495
1765877446.5086222,495
1765877446.508634,495
1765877446.508647,495
1765877446.508659,495
1765877446.508671,495
1765877446.508683,495
1765877446.5086951,495
1765877446.508707,495
1765877446.5087202,495
1765877446.5087318,494
1765877446.508744,495
1765877446.508756,495
1765877446.508768,495
1765877446.508781,494
1765877446.508794,496
1765877446.508806,496
1765877446.5088189,495
1765877446.508831,495
1765877446.508857,493
1765877446.50887,493
1765877446.508883,492
1765877446.508895,495
1765877446.508907,496
1765877446.508919,495
1765877446.5089312,496
1765877446.508956,496
1765877446.5089679,495
1765877446.50898,495
1765877446.508992,494
1765877446.509004,494
1765877446.509017,494
1765877446.5090292,495
1765877446.5090408,495
1765877446.509053,495
1765877446.509065,495
1765877446.509077,495
1765877446.50909,495
1765877446.5092008,496
1765877446.509221,495
1765877446.50926,495
1765877446.5092769,495
1765877446.5092921,494
1765877446.5093389,495
1765877446.509356,495
1765877446.509376,495
1765877446.509394,495
1765877446.509415,495
1765877446.5094311,494
1765877446.5094469,495
1765877446.5095081,494
1765877446.509517,495
1765877446.509525,495
1765877446.509534,494
1765877446.509542,495
1765877446.50955,496
1765877446.5095592,495
1765877446.509567,496
1765877446.509575,495
1765877446.5096169,495
1765877446.5096252,495
1765877446.5096939,495
1765877446.509702,495
1765877446.50971,494
1765877446.5097191,495
1765877446.509727,495
1765877446.5097349,495
1765877446.5097432,495
1765877446.509751,495
1765877446.50976,495
1765877446.509768,495
1765877446.509778,495
1765877446.5097878,495
1765877446.5097961,495
1765877446.509804,495
1765877446.5098162,495
1765877446.509825,494
1765877446.5098329,495
1765877446.509841,495
1765877446.509849,495
1765877446.5098581,495
1765877446.509866,495
1765877446.5098739,494
1765877446.5098822,495
1765877446.50989,495
1765877446.509898,495
1765877446.5099058,494
1765877446.5099142,495
1765877446.509922,495
1765877446.50993,495
1765877446.509938,495
1765877446.509946,495
1765877446.5099552,495
1765877446.509963,495
1765877446.509971,495
1765877446.5099788,495
1765877446.509987,495
1765877446.509995,494
1765877446.510005,494
1765877446.510014,495
1765877446.510022,495
1765877446.510092,495
1765877446.5101,495
1765877446.510108,495
1765877446.510117,495
1765877446.5101252,495
1765877446.510133,495
1765877446.510141,495
1765877446.510149,495
1765877446.5101619,495
1765877446.5101702,495
1765877446.510178,495
1765877446.510187,496
1765877446.510196,495
1765877446.5102038,495
1765877446.5102148,495
1765877446.5102358,494
1765877446.510252,495
1765877446.510268,494
1765877446.5102878,494
1765877446.510304,495
1765877446.5103118,494
1765877446.5103202,495
1765877446.510329,494
1765877446.510339,495
1765877446.510359,495
1765877446.510367,494
1765877446.510375,494
1765877446.510384,494
1765877446.510392,494
1765877446.5104,495
1765877446.5104089,495
1765877446.510417,495
1765877446.510428,495
1765877446.510437,495
1765877446.510445,495
1765877446.510453,495
1765877446.510462,494
1765877446.51047,495
1765877446.5104818,495
1765877446.5104902,495
1765877446.510499,494
1765877446.510507,495
1765877446.510515,495
1765877446.5105228,495
1765877446.5105321,494
1765877446.51054,495
1765877446.5105479,495
1765877446.510556,495
1765877446.510564,495
1765877446.510574,495
1765877446.510582,495
1765877446.5105898,495
1765877446.510598,495
1765877446.510606,494
1765877446.510615,494
1765877446.510623,495
1765877446.5106308,495
1765877446.5106392,496
1765877446.510647,496
1765877446.510655,496
1765877446.5106628,496
1765877446.5106711,496
1765877446.510679,496
1765877446.510688,496
1765877446.510696,496
1765877446.510704,496
1765877446.5107121,496
1765877446.51072,496
1765877446.510728,495
1765877446.510736,496
1765877446.510744,496
1765877446.510752,496
1765877446.5107598,495
1765877446.5107682,495
1765877446.510777,496
1765877446.510785,495
1765877446.510795,495
1765877446.510805,495
1765877446.510817,495
1765877446.510825,495
1765877446.510834,495
1765877446.510842,495
1765877446.5108511,495
1765877446.510859,495
1765877446.5108669,495
1765877446.510875,495
1765877446.510883,495
1765877446.510891,495
1765877446.5109,495
1765877446.510908,495
1765877446.510916,495
1765877446.510924,495
1765877446.510932,495
1765877446.510944,495
1765877446.510952,495
1765877446.5109608,495
1765877446.5109692,495
1765877446.510977,495
1765877446.510986,495
1765877446.510994,495
1765877446.5110028,495
1765877446.5110111,495
1765877446.5110211,495
1765877446.5110312,495
1765877446.511039,495
1765877446.511047,495
1765877446.511055,494
1765877446.511064,494
1765877446.511072,495
1765877446.51108,495
1765877446.5110881,495
1765877446.5110972,495
1765877446.511105,494
1765877446.511113,494
1765877446.5111208,494
1765877446.511134,495
1765877446.5111418,495
1765877446.511151,495
1765877446.511159,494
1765877446.511167,495
1765877446.511175,495
1765877446.511183,495
1765877446.5111911,495
1765877446.511199,495
1765877446.5112069,495
1765877446.5112162,495
1765877446.511224,495
1765877446.511232,495
1765877446.511242,495
1765877446.51125,495
1765877446.5112581,495
1765877446.5112672,495
1765877446.511275,495
1765877446.511283,495
1765877446.5112908,495
1765877446.5112991,495
1765877446.511308,495
1765877446.511316,496
1765877446.511324,495
1765877446.511332,495
1765877446.5113401,495
1765877446.511348,495
1765877446.5113559,495
1765877446.511364,495
1765877446.511372,495
1765877446.51138,495
1765877446.511389,495
1765877446.5113971,495
1765877446.511405,495
1765877446.511413,495
1765877446.511421,495
1765877446.511429,495
1765877446.5114398,495
1765877446.511449,495
1765877446.511457,494
1765877446.511471,494
1765877446.51148,494
1765877446.511488,494
1765877446.5114958,494
1765877446.511504,495
1765877446.511512,494
1765877446.51152,495
1765877446.511528,495
1765877446.5115361,495
1765877446.511544,495
1765877446.511552,495
1765877446.51156,494
1765877446.5115678,495
1765877446.5115762,495
1765877446.511584,495
1765877446.511592,495
1765877446.5116,495
1765877446.511609,495
1765877446.511617,495
1765877446.511625,495
1765877446.511633,495
1765877446.511641,495
1765877446.5116491,495
1765877446.511657,494
1765877446.5116649,495
1765877446.511673,494
1765877446.511683,495
1765877446.511693,495
1765877446.5117,495
1765877446.511709,495
1765877446.511717,495
1765877446.511725,495
1765877446.511733,495
1765877446.511741,495
1765877446.511749,495
1765877446.5117571,495
1765877446.511765,495
1765877446.5117729,495
1765877446.5117812,495
1765877446.511789,495
1765877446.511797,495
1765877446.5118048,495
1765877446.5118132,495
1765877446.511821,494
1765877446.511829,494
1765877446.511837,495
1765877446.5118458,495
1765877446.5118542,494
1765877446.511862,495
1765877446.51187,495
1765877446.5118778,495
1765877446.511889,495
1765877446.511897,495
1765877446.511911,495
1765877446.5119202,495
1765877446.511928,495
1765877446.511936,495
1765877446.511949,495
1765877446.511961,495
1765877446.511969,495
1765877446.511977,495
1765877446.511986,495
1765877446.5119941,495
1765877446.5120032,495
1765877446.512011,495
1765877446.512019,495
1765877446.5120268,495
1765877446.5120351,495
1765877446.512043,495
1765877446.5120509,495
1765877446.51206,495
1765877446.512068,495
1765877446.5120761,495
1765877446.512085,495
1765877446.5120928,495
1765877446.5121012,494
1765877446.512109,495
1765877446.512118,495
1765877446.512126,494
1765877446.512135,495
1765877446.5121448,495
1765877446.5121531,495
1765877446.512161,494
1765877446.512169,495
1765877446.512177,495
1765877446.512185,495
1765877446.512193,494
1765877446.512201,495
1765877446.512209,495
1765877446.512217,496
1765877446.512225,495
1765877446.512233,495
1765877446.512241,496
1765877446.5122502,496
1765877446.512258,495
1765877446.512266,495
1765877446.512274,495
1765877446.5122821,495
1765877446.51229,495
1765877446.5122979,495
1765877446.512311,495
1765877446.512319,495
1765877446.512327,495
1765877446.512335,495
1765877446.512343,495
1765877446.512351,495
1765877446.512361,495
1765877446.5123699,495
1765877446.5123782,495
1765877446.512386,495
1765877446.512394,495
1765877446.512406,495
1765877446.512414,495
1765877446.5124218,495
1765877446.5124311,495
1765877446.512439,495
1765877446.512448,495
1765877446.512456,495
1765877446.5124638,495
1765877446.5124748,495
1765877446.5124831,495
1765877446.512492,494
1765877446.5125,494
1765877446.512508,495
1765877446.5125172,495
1765877446.512525,494
1765877446.512536,495
1765877446.512545,495
1765877446.512553,495
1765877446.5125608,495
1765877446.5125701,495
1765877446.512578,495
1765877446.512588,495
1765877446.512598,495
1765877446.512606,495
1765877446.512615,495
1765877446.512623,495
1765877446.512631,495
1765877446.512639,495
1765877446.512647,495
1765877446.512655,495
1765877446.5126631,495
1765877446.512671,495
1765877446.51268,495
1765877446.5126882,495
1765877446.512696,495
1765877446.512704,495
1765877446.512713,495
1765877446.5127208,494
1765877446.5127292,495
1765877446.512737,494
1765877446.512745,494
1765877446.512757,495
1765877446.512765,495
1765877446.512773,495
1765877446.5127811,495
1765877446.51279,495
1765877446.512798,494
1765877446.512807,495
1765877446.512821,495
1765877446.51283,495
1765877446.512838,496
1765877446.5128472,495
1765877446.512855,495
1765877446.512863,495
1765877446.512871,495
1765877446.5128791,495
1765877446.512887,495
1765877446.5128949,495
1765877446.512904,495
1765877446.5129118,495
1765877446.5129201,495
1765877446.512928,495
1765877446.5129359,495
1765877446.5129442,495
1765877446.512952,495
1765877446.51296,494
1765877446.5129678,495
1765877446.512977,495
1765877446.512985,495
1765877446.512993,495
1765877446.513001,495
1765877446.5130088,495
1765877446.5130172,495
1765877446.513025,495
1765877446.513035,495
1765877446.513045,495
1765877446.513053,495
1765877446.513061,495
1765877446.5130692,495
1765877446.513077,495
1765877446.513085,495
1765877446.513094,494
1765877446.513101,495
1765877446.51311,495
1765877446.513118,495
1765877446.513126,494
1765877446.513134,495
1765877446.513142,495
1765877446.51315,495
1765877446.513163,495
1765877446.513171,495
1765877446.5131788,495
1765877446.5131872,495
1765877446.513196,495
1765877446.5132039,495
1765877446.513212,496
1765877446.513221,495
1765877446.5132291,495
1765877446.513237,494
1765877446.5132449,495
1765877446.5132532,495
1765877446.513263,495
1765877446.513272,495
1765877446.51328,495
1765877446.513289,495
1765877446.5132968,494
1765877446.5133052,495
1765877446.513313,495
1765877446.5133262,496
1765877446.513334,495
1765877446.513342,495
1765877446.5133498,496
1765877446.513358,495
1765877446.513367,495
1765877446.513375,495
1765877446.513383,495
1765877446.513391,496
1765877446.5133991,495
1765877446.513407,495
1765877446.513416,495
1765877446.513424,495
1765877446.513432,495
1765877446.51344,495
1765877446.5134552,495
1765877446.513463,495
1765877446.513471,495
1765877446.513479,495
1765877446.513495,495
1765877446.513504,495
1765877446.513512,495
1765877446.5135202,495
1765877446.513528,495
1765877446.513536,495
1765877446.513545,495
1765877446.513553,495
1765877446.513561,495
1765877446.513569,496
1765877446.513577,495
1765877446.5135849,495
1765877446.5135932,495
1765877446.513601,495
1765877446.5136158,496
1765877446.513629,497
1765877446.5136378,496
1765877446.5136461,497
1765877446.513654,496
1765877446.5136619,496
1765877446.51367,497
1765877446.513678,496
1765877446.513686,497
1765877446.513694,496
1765877446.513702,497
1765877446.51371,497
1765877446.5137181,496
1765877446.5137339,496
1765877446.513742,496
1765877446.51375,496
1765877446.513758,496
1765877446.5137658,495
1765877446.5137742,496
1765877446.513782,496
1765877446.51379,496
1765877446.513798,496
1765877446.513806,496
1765877446.513814,496
1765877446.5138218,496
1765877446.51383,495
1765877446.513838,496
1765877446.513846,495
1765877446.513854,495
1765877446.513865,495
1765877446.513872,495
1765877446.51388,496
1765877446.513888,496
1765877446.513897,496
1765877446.5139048,495
1765877446.5139132,495
1765877446.513921,496
1765877446.513929,495
1765877446.513946,495
1765877446.513956,495
1765877446.5139651,495
1765877446.513973,496
1765877446.5139809,496
1765877446.5139892,496
1765877446.513997,496
1765877446.514005,496
1765877446.5140128,495
1765877446.5140212,495
1765877446.514029,495
1765877446.514037,496
1765877446.514045,496
1765877446.514053,496
1765877446.514061,495
1765877446.514069,495
1765877446.514077,495
1765877446.5140858,495
1765877446.514094,496
1765877446.514102,495
1765877446.5141098,496
1765877446.514122,496
1765877446.5141299,496
1765877446.514139,495
1765877446.514147,495
1765877446.514155,495
1765877446.514163,495
1765877446.514174,496
1765877446.514184,496
1765877446.514194,495
1765877446.5142028,495
1765877446.5142112,495
1765877446.514219,495
1765877446.514227,495
1765877446.5142348,496
1765877446.5142431,495
1765877446.514251,495
1765877446.5142589,496
1765877446.514267,495
1765877446.514275,496
1765877446.514283,495
1765877446.514291,495
1765877446.514299,495
1765877446.514307,495
1765877446.514316,496
1765877446.514328,495
1765877446.514336,495
1765877446.514344,495
1765877446.5143528,495
1765877446.5143611,495
1765877446.514369,495
1765877446.51438,495
1765877446.514388,495
1765877446.514397,495
1765877446.514405,495
1765877446.5144162,495
1765877446.514424,496
1765877446.514432,496
1765877446.5144398,496
1765877446.514449,495
1765877446.514457,495
1765877446.514465,495
1765877446.514473,495
1765877446.5144808,496
1765877446.5144892,496
1765877446.514504,496
1765877446.5145118,495
1765877446.5145202,495
1765877446.514528,496
1765877446.514536,496
1765877446.514544,496
1765877446.514552,496
1765877446.51456,496
1765877446.51457,496
1765877446.5145779,496
1765877446.5145862,496
1765877446.514594,495
1765877446.514602,496
1765877446.5146098,495
1765877446.5146182,495
1765877446.514626,495
1765877446.514635,495
1765877446.514645,495
1765877446.514653,496
1765877446.514661,495
1765877446.514669,496
1765877446.514677,496
1765877446.514685,495
1765877446.514694,495
1765877446.514702,496
1765877446.514713,495
1765877446.514722,496
1765877446.51473,495
1765877446.5147378,496
1765877446.514747,496
1765877446.514755,495
1765877446.514763,496
1765877446.514775,496
1765877446.514783,496
1765877446.514791,496
1765877446.514799,496
1765877446.514807,495
1765877446.514816,496
1765877446.514824,495
1765877446.514835,496
1765877446.514843,496
1765877446.514852,496
1765877446.514862,495
1765877446.5148711,495
1765877446.514879,495
1765877446.5148869,496
1765877446.5148952,495
1765877446.514903,496
1765877446.514911,495
1765877446.5149188,496
1765877446.514931,496
1765877446.5149388,495
1765877446.5149472,496
1765877446.514955,495
1765877446.5149639,496
1765877446.514972,496
1765877446.51498,496
1765877446.514988,496
1765877446.514996,495
1765877446.515004,496
1765877446.515012,495
1765877446.5150201,495
1765877446.515028,495
1765877446.5150368,496
1765877446.5150452,495
1765877446.515053,496
1765877446.5150652,495
1765877446.515073,495
1765877446.515081,496
1765877446.515091,496
1765877446.515101,496
1765877446.515109,495
1765877446.5151172,495
1765877446.515125,495
1765877446.515133,495
1765877446.515141,495
1765877446.515149,495
1765877446.515157,496
1765877446.5151649,496
1765877446.5151732,496
1765877446.5151842,496
1765877446.515192,495
1765877446.5152,495
1765877446.515208,495
1765877446.5152159,496
1765877446.515224,496
1765877446.515232,496
1765877446.51524,496
1765877446.515248,496
1765877446.5152562,496
1765877446.515265,496
1765877446.5152729,496
1765877446.515281,496
1765877446.515289,495
1765877446.515297,495
1765877446.515307,495
1765877446.515316,495
1765877446.5153239,495
1765877446.515332,495
1765877446.51534,495
1765877446.515348,495
1765877446.5153558,495
1765877446.5153642,495
1765877446.515372,496
1765877446.51538,496
1765877446.515388,495
1765877446.515396,496
1765877446.515404,496
1765877446.5154119,495
1765877446.51542,495
1765877446.515428,495
1765877446.515436,495
1765877446.515444,495
1765877446.515452,495
1765877446.51546,496
1765877446.5154681,496
1765877446.515476,496
1765877446.5154839,495
1765877446.5154922,496
1765877446.5155,496
1765877446.515508,495
1765877446.515517,495
1765877446.515527,495
1765877446.5155358,495
1765877446.5155442,495
1765877446.515552,496
1765877446.51556,496
1765877446.515568,495
1765877446.5155761,496
1765877446.515584,495
1765877446.5155919,495
1765877446.5156,495
1765877446.515608,495
1765877446.515616,495
1765877446.515624,495
1765877446.5156322,495
1765877446.515641,495
1765877446.515649,495
1765877446.515657,495
1765877446.5156648,495
1765877446.5156732,495
1765877446.515681,495
1765877446.515689,495
1765877446.515697,496
1765877446.515705,496
1765877446.515713,495
1765877446.5157208,495
1765877446.515729,495
1765877446.515742,495
1765877446.515751,495
1765877446.515759,495
1765877446.515767,496
1765877446.5157802,495
1765877446.515788,494
1765877446.515796,495
1765877446.5158038,496
1765877446.5158122,495
1765877446.5158231,495
1765877446.515831,495
1765877446.515844,495
1765877446.515852,495
1765877446.51586,495
1765877446.515868,495
1765877446.515876,495
1765877446.515884,495
1765877446.515893,495
1765877446.5159009,495
1765877446.5159092,495
1765877446.515917,495
1765877446.515925,495
1765877446.515934,495
1765877446.5159419,495
1765877446.51595,495
1765877446.515958,495
1765877446.515966,495
1765877446.515976,495
1765877446.515985,495
1765877446.515993,495
1765877446.516002,496
1765877446.51601,495
1765877446.516018,495
1765877446.516026,495
1765877446.5160341,495
1765877446.516042,495
1765877446.516051,495
1765877446.516059,495
1765877446.516067,495
1765877446.516075,495
1765877446.5161269,495
1765877446.516138,495
1765877446.516146,495
1765877446.516154,495
1765877446.5161622,495
1765877446.51617,495
1765877446.516178,495
1765877446.516186,495
1765877446.516194,495
1765877446.516202,495
1765877446.516211,495
1765877446.516219,495
1765877446.516227,495
1765877446.516242,495
1765877446.5162508,495
1765877446.516259,495
1765877446.516267,495
1765877446.516275,496
1765877446.5162828,495
1765877446.516292,495
1765877446.5163,495
1765877446.516308,495
1765877446.51632,495
1765877446.5163279,495
1765877446.516337,495
1765877446.516345,495
1765877446.5163531,495
1765877446.516361,495
1765877446.5163689,495
1765877446.5163782,495
1765877446.516386,496
1765877446.516394,495
1765877446.516402,496
1765877446.51641,496
1765877446.516418,495
1765877446.516426,496
1765877446.516434,495
1765877446.516442,496
1765877446.5164502,496
1765877446.516459,495
1765877446.516468,495
1765877446.516478,496
1765877446.516486,496
1765877446.516494,496
1765877446.516502,495
1765877446.51651,495
1765877446.5165179,495
1765877446.516526,496
1765877446.516534,496
1765877446.516542,495
1765877446.516551,495
1765877446.5165591,495
1765877446.516567,496
1765877446.5165749,496
1765877446.516583,496
1765877446.516591,496
1765877446.516599,495
1765877446.516607,495
1765877446.516615,495
1765877446.516624,495
1765877446.516632,496
1765877446.51664,495
1765877446.516648,496
1765877446.5166562,496
1765877446.516664,495
1765877446.516672,495
1765877446.516682,496
1765877446.516694,496
1765877446.516702,496
1765877446.5167098,496
1765877446.516719,497
1765877446.516727,497
1765877446.516736,497
1765877446.516744,497
1765877446.5167518,496
1765877446.51676,497
1765877446.516768,496
1765877446.5167758,497
1765877446.5167842,497
1765877446.516792,497
1765877446.5168,496
1765877446.516809,497
1765877446.5168169,497
1765877446.5168252,496
1765877446.516833,496
1765877446.516841,496
1765877446.51685,496
1765877446.516858,496
1765877446.516866,496
1765877446.516874,496
1765877446.516882,496
1765877446.516889,496
1765877446.516899,496
1765877446.516908,495
1765877446.516916,496
1765877446.516924,496
1765877446.516932,496
1765877446.51694,496
1765877446.516948,495
1765877446.5169559,496
1765877446.5169642,495
1765877446.516972,495
1765877446.51698,495
1765877446.5169878,495
1765877446.5169961,496
1765877446.517004,496
1765877446.517012,496
1765877446.51702,496
1765877446.517029,495
1765877446.5170372,495
1765877446.517045,495
1765877446.517055,496
1765877446.517065,496
1765877446.517073,496
1765877446.51708,496
1765877446.517088,495
1765877446.5170949,496
1765877446.517102,496
1765877446.5171149,496
1765877446.517122,495
1765877446.517129,496
1765877446.5171342,496
1765877446.51714,496
1765877446.5171452,495
1765877446.51715,496
1765877446.5171552,495
1765877446.517161,495
1765877446.5171661,495
1765877446.517171,496
1765877446.5171762,496
1765877446.5171819,496
1765877446.517187,495
1765877446.517192,496
1765877446.5171971,496
1765877446.517202,496
1765877446.517208,496
1765877446.5172129,496
1765877446.517218,496
1765877446.517223,496
1765877446.517229,496
1765877446.5172338,496
1765877446.517239,495
1765877446.5172439,496
1765877446.51725,495
1765877446.5172548,496
1765877446.517266,496
1765877446.517271,495
1765877446.517277,495
1765877446.517283,495
1765877446.517288,495
1765877446.517293,496
1765877446.517298,496
1765877446.517303,495
1765877446.517309,496
1765877446.517314,496
1765877446.517319,495
1765877446.517324,495
1765877446.51733,496
1765877446.517335,496
1765877446.51734,496
1765877446.517345,495
1765877446.517351,496
1765877446.517356,496
1765877446.517361,495
1765877446.517366,495
1765877446.517372,496
1765877446.5173771,495
1765877446.517382,495
1765877446.517387,495
1765877446.5173929,495
1765877446.517398,495
1765877446.517403,495
1765877446.5174122,495
1765877446.517418,495
1765877446.5174232,495
1765877446.517428,495
1765877446.5174341,495
1765877446.517439,495
1765877446.5174441,495
1765877446.517449,495
1765877446.5174541,496
1765877446.5174642,495
1765877446.517469,495
1765877446.5174751,495
1765877446.51748,495
1765877446.5174851,494
1765877446.5174909,495
1765877446.517496,495
1765877446.5175009,495
1765877446.517507,495
1765877446.5175118,495
1765877446.517517,494
1765877446.517523,494
1765877446.517528,495
1765877446.5175328,495
1765877446.517538,495
1765877446.517544,495
1765877446.517549,494
1765877446.5175538,494
1765877446.517565,495
1765877446.517571,494
1765877446.517577,495
1765877446.5175822,494
1765877446.517587,495
1765877446.5175931,494
1765877446.517598,495
1765877446.517608,495
1765877446.5176132,494
1765877446.517619,494
1765877446.5176241,495
1765877446.517629,495
1765877446.5176342,494
1765877446.5176399,494
1765877446.5176451,495
1765877446.51765,494
1765877446.517656,494
1765877446.5176609,494
1765877446.517666,495
1765877446.5176718,494
1765877446.517685,494
1765877446.5176902,495
1765877446.517696,494
1765877446.5177019,494
1765877446.517708,494
1765877446.517714,494
1765877446.517719,494
1765877446.517727,494
1765877446.5177338,494
1765877446.51774,494
1765877446.517746,494
1765877446.5177522,494
1765877446.517757,494
1765877446.5177631,494
1765877446.5177689,494
1765877446.517775,494
1765877446.517781,494
1765877446.517786,494
1765877446.517791,494
1765877446.517796,494
1765877446.517802,494
1765877446.517807,494
1765877446.517816,494
1765877446.5178208,495
1765877446.517827,494
1765877446.517832,494
1765877446.517837,494
1765877446.5178418,494
1765877446.517848,494
1765877446.517853,494
1765877446.517858,494
1765877446.5178628,494
1765877446.517869,494
1765877446.517874,494
1765877446.5178812,494
1765877446.5178869,494
1765877446.5178921,495
1765877446.517897,495
1765877446.517903,495
1765877446.5179079,494
1765877446.517913,495
1765877446.5179179,495
1765877446.517924,495
1765877446.517929,494
1765877446.517934,495
1765877446.5179389,494
1765877446.517945,495
1765877446.51795,495
1765877446.517956,495
1765877446.517962,495
1765877446.517967,494
1765877446.517973,495
1765877446.517979,494
1765877446.517985,495
1765877446.5179908,495
1765877446.517997,495
1765877446.518002,495
1765877446.5180092,495
1765877446.518014,495
1765877446.5180202,494
1765877446.5180259,495
1765877446.5180328,494
1765877446.5180411,494
1765877446.518046,494
1765877446.518052,494
1765877446.518058,494
1765877446.518064,494
1765877446.51807,494
1765877446.518076,494
1765877446.5180821,494
1765877446.5180879,495
1765877446.518093,495
1765877446.5180988,495
1765877446.518105,495
1765877446.518111,494
1765877446.5181172,495
1765877446.518122,495
1765877446.5181282,495
1765877446.518134,495
1765877446.5181398,495
1765877446.518146,494
1765877446.5181508,494
1765877446.518157,495
1765877446.518163,495
1765877446.5181692,495
1765877446.518174,494
1765877446.5181801,495
1765877446.518188,494
1765877446.518194,495
1765877446.518201,495
1765877446.518206,494
1765877446.518212,495
1765877446.518218,495
1765877446.5182238,495
1765877446.51823,495
1765877446.518236,495
1765877446.5182421,494
1765877446.5182478,495
1765877446.518254,496
1765877446.51826,495
1765877446.5182662,495
1765877446.518272,495
1765877446.5182772,495
1765877446.518288,494
1765877446.518294,495
1765877446.5182989,495
1765877446.518304,494
1765877446.518309,494
1765877446.518315,494
1765877446.51832,494
1765877446.518325,493
1765877446.51833,494
1765877446.518336,495
1765877446.518341,495
1765877446.518347,495
1765877446.518354,495
1765877446.518359,495
1765877446.518365,495
1765877446.5183702,495
1765877446.518375,495
1765877446.51838,495
1765877446.518386,495
1765877446.5183911,495
1765877446.518396,495
1765877446.518401,495
1765877446.5184069,495
1765877446.518412,495
1765877446.518417,495
1765877446.5184221,495
1765877446.5184278,495
1765877446.518433,495
1765877446.5184379,495
1765877446.518443,494
1765877446.518448,495
1765877446.518454,495
1765877446.5184598,495
1765877446.518466,495
1765877446.518471,495
1765877446.518477,494
1765877446.518483,494
1765877446.5184891,495
1765877446.518496,495
1765877446.518503,495
1765877446.5185091,495
1765877446.5185149,495
1765877446.518521,495
1765877446.5185258,494
1765877446.518532,495
1765877446.518538,495
1765877446.518544,495
1765877446.51855,495
1765877446.518555,494
1765877446.5185611,494
1765877446.5185668,494
1765877446.518573,494
1765877446.518579,494
1765877446.5185852,495
1765877446.51859,494
1765877446.5185962,494
1765877446.518602,494
1765877446.5186079,494
1765877446.518614,494
1765877446.5186188,494
1765877446.518625,494
1765877446.518631,494
1765877446.518637,494
1765877446.518643,495
1765877446.5186481,494
1765877446.518656,495
1765877446.518662,495
1765877446.518668,494
1765877446.518674,494
1765877446.51868,494
1765877446.518686,494
1765877446.518691,495
1765877446.518697,495
1765877446.5187032,494
1765877446.518709,495
1765877446.518715,495
1765877446.518721,495
1765877446.5187259,494
1765877446.518732,495
1765877446.518738,495
1765877446.518744,495
1765877446.51875,494
1765877446.5187562,495
1765877446.5187619,495
1765877446.518767,495
1765877446.518773,494
1765877446.5187788,494
1765877446.518784,494
1765877446.51879,494
1765877446.518795,494
1765877446.5187998,494
1765877446.518805,494
1765877446.518812,494
1765877446.5188181,494
1765877446.5188239,495
1765877446.518829,495
1765877446.5188339,495
1765877446.5188391,495
1765877446.5188448,495
1765877446.51885,495
1765877446.5188549,495
1765877446.518861,495
1765877446.5188658,495
1765877446.518871,495
1765877446.518877,494
1765877446.518883,494
1765877446.518889,495
1765877446.5188951,496
1765877446.518901,496
1765877446.5189068,496
1765877446.518913,496
1765877446.518919,496
1765877446.518925,496
1765877446.518931,496
1765877446.518937,497
1765877446.5189419,496
1765877446.518948,495
1765877446.518954,496
1765877446.518966,496
1765877446.5189729,496
1765877446.518979,495
1765877446.518985,495
1765877446.518991,495
1765877446.518997,495
1765877446.519003,496
1765877446.519009,495
1765877446.5190148,495
1765877446.51902,495
1765877446.5190258,495
1765877446.519032,495
1765877446.519038,495
1765877446.5190442,495
1765877446.51905,495
1765877446.5190551,495
1765877446.519061,495
1765877446.5190668,495
1765877446.519072,495
1765877446.5190778,495
1765877446.519084,494
1765877446.51909,494
1765877446.519095,495
1765877446.519101,495
1765877446.519107,495
1765877446.519113,495
1765877446.519119,495
1765877446.519126,495
1765877446.5191329,495
1765877446.519138,495
1765877446.519145,496
1765877446.5191522,495
1765877446.5191581,495
1765877446.5191638,495
1765877446.519178,495
1765877446.5191839,495
1765877446.51919,495
1765877446.5191958,494
1765877446.519202,495
1765877446.5192242,495
1765877446.51923,494
1765877446.519236,494
1765877446.5192451,495
1765877446.5192509,495
1765877446.519257,495
1765877446.5192618,495
1765877446.519268,495
1765877446.519274,495
1765877446.5192802,495
1765877446.519285,495
1765877446.519291,495
1765877446.519296,495
1765877446.5193012,495
1765877446.519308,495
1765877446.5193138,495
1765877446.51932,494
1765877446.519325,494
1765877446.51933,495
1765877446.519336,495
1765877446.519341,495
1765877446.519346,494
1765877446.519352,495
1765877446.519358,495
1765877446.5193632,495
1765877446.519369,495
1765877446.519375,495
1765877446.519381,495
1765877446.5193868,495
1765877446.519393,495
1765877446.519399,495
1765877446.519404,495
1765877446.51941,495
1765877446.519416,496
1765877446.519422,495
1765877446.519428,495
1765877446.519434,496
1765877446.5194392,495
1765877446.519445,495
1765877446.519451,495
1765877446.519457,494
1765877446.519464,495
1765877446.5194712,495
1765877446.519477,495
1765877446.5194821,495
1765877446.519488,496
1765877446.5194938,495
1765877446.519499,494
1765877446.5195048,495
1765877446.519511,495
1765877446.519517,495
1765877446.5195231,495
1765877446.519528,495
1765877446.519534,494
1765877446.51954,495
1765877446.519546,495
1765877446.519552,495
1765877446.519558,495
1765877446.519564,495
1765877446.519569,495
1765877446.519575,495
1765877446.5195808,495
1765877446.519587,495
1765877446.519593,495
1765877446.5195992,495
1765877446.519605,495
1765877446.519611,495
1765877446.519616,495
1765877446.519624,495
1765877446.5196302,495
1765877446.519636,495
1765877446.519642,495
1765877446.519648,495
1765877446.5196538,495
1765877446.51966,495
1765877446.519666,495
1765877446.5196722,496
1765877446.5196779,495
1765877446.5196831,495
1765877446.5196888,496
1765877446.519695,494
1765877446.519701,495
1765877446.519707,495
1765877446.519712,495
1765877446.519718,495
1765877446.5197241,495
1765877446.5197299,495
1765877446.519735,495
1765877446.5197408,495
1765877446.519747,495
1765877446.519753,495
1765877446.519758,495
1765877446.519764,495
1765877446.5197701,495
1765877446.519776,495
1765877446.519783,495
1765877446.5197902,495
1765877446.519796,495
1765877446.5198069,496
1765877446.519813,495
1765877446.519819,495
1765877446.519825,495
1765877446.51983,495
1765877446.519836,495
1765877446.5198421,495
1765877446.5198479,496
1765877446.519854,495
1765877446.51986,495
1765877446.519865,495
1765877446.519871,495
1765877446.5198772,495
1765877446.519883,495
1765877446.5198889,494
1765877446.519895,495
1765877446.519901,495
1765877446.519907,495
1765877446.519914,495
1765877446.51992,495
1765877446.5199249,495
1765877446.5199308,495
1765877446.519937,495
1765877446.519943,495
1765877446.519951,495
1765877446.519958,495
1765877446.519964,495
1765877446.51997,495
1765877446.519976,495
1765877446.519982,495
1765877446.519988,495
1765877446.519994,495
1765877446.52,495
1765877446.520006,495
1765877446.5200121,495
1765877446.5200179,495
1765877446.520024,495
1765877446.52003,496
1765877446.520035,495
1765877446.520041,495
1765877446.5200472,495
1765877446.520053,495
1765877446.5200589,495
1765877446.520065,495
1765877446.520071,495
1765877446.520076,495
1765877446.520082,495
1765877446.520088,495
1765877446.520094,495
1765877446.5201,495
1765877446.520107,495
1765877446.520113,495
1765877446.520119,495
1765877446.520125,495
1765877446.520131,495
1765877446.520138,495
1765877446.520145,495
1765877446.5201511,495
1765877446.5201569,495
1765877446.520163,495
1765877446.520169,495
1765877446.5201752,495
1765877446.520181,496
1765877446.520187,495
1765877446.520193,495
1765877446.5201979,495
1765877446.520204,495
1765877446.52021,496
1765877446.520216,495
1765877446.520224,495
1765877446.520231,495
1765877446.520237,495
1765877446.520243,495
1765877446.5202491,495
1765877446.520255,495
1765877446.520261,495
1765877446.520267,496
1765877446.520274,495
1765877446.520281,495
1765877446.520287,495
1765877446.5202932,495
1765877446.520299,495
1765877446.5203042,495
1765877446.52031,495
1765877446.5203168,495
1765877446.5203252,495
1765877446.520331,495
1765877446.5203369,495
1765877446.520343,495
1765877446.520349,495
1765877446.520354,494
1765877446.52036,494
1765877446.5203662,495
1765877446.520372,495
1765877446.5203788,495
1765877446.520386,495
1765877446.520392,495
1765877446.520397,495
1765877446.520403,495
1765877446.520409,495
1765877446.520415,495
1765877446.52042,495
1765877446.520426,496
1765877446.5204322,495
1765877446.52044,495
1765877446.520447,495
1765877446.5204532,495
1765877446.520459,495
1765877446.520465,496
1765877446.520471,495
1765877446.5204768,495
1765877446.520482,495
1765877446.520488,495
1765877446.520494,495
1765877446.5205,495
1765877446.5205061,495
1765877446.520511,495
1765877446.520517,495
1765877446.520523,495
1765877446.5205288,495
1765877446.520535,495
1765877446.52054,495
1765877446.520546,495
1765877446.520552,496
1765877446.520558,495
1765877446.520563,495
1765877446.520569,495
1765877446.520575,495
1765877446.520581,495
1765877446.520586,495
1765877446.520592,495
1765877446.5206,495
1765877446.520606,494
1765877446.520612,495
1765877446.520617,495
1765877446.5206232,495
1765877446.520629,495
1765877446.5206358,494
1765877446.520643,496
1765877446.520649,495
1765877446.5206552,495
1765877446.5206609,495
1765877446.5206668,495
1765877446.520672,496
1765877446.5206778,495
1765877446.520684,495
1765877446.520689,495
1765877446.520695,495
1765877446.520701,495
1765877446.5207071,495
1765877446.520712,495
1765877446.520718,495
1765877446.520737,495
1765877446.5207438,495
1765877446.520749,495
1765877446.520755,495
1765877446.520761,495
1765877446.520772,495
1765877446.520779,495
1765877446.5207849,495
1765877446.52079,495
1765877446.5207949,494
1765877446.5208,495
1765877446.5208051,495
1765877446.52081,495
1765877446.520816,495
1765877446.520821,495
1765877446.520826,495
1765877446.5208309,495
1765877446.520836,495
1765877446.520842,495
1765877446.520847,495
1765877446.5208519,494
1765877446.520858,495
1765877446.520865,495
1765877446.5208719,495
1765877446.5208802,495
1765877446.5208871,495
1765877446.5208929,495
1765877446.520899,495
1765877446.5209038,495
1765877446.52091,494
1765877446.520916,494
1765877446.5209222,495
1765877446.52093,494
1765877446.520936,494
1765877446.520942,494
1765877446.520947,495
1765877446.5209532,495
1765877446.520959,495
1765877446.5209641,495
1765877446.5209699,495
1765877446.5209758,495
1765877446.520982,495
1765877446.5209868,495
1765877446.520993,494
1765877446.520999,495
1765877446.5210052,495
1765877446.52101,495
1765877446.5210161,495
1765877446.5210218,495
1765877446.521028,495
1765877446.521033,495
1765877446.521039,495
1765877446.521045,495
1765877446.521051,495
1765877446.521056,495
1765877446.521062,495
1765877446.521068,496
1765877446.5210729,496
1765877446.521081,496
1765877446.521087,496
1765877446.5210931,496
1765877446.521099,496
1765877446.5211039,496
1765877446.52111,496
1765877446.521116,496
1765877446.521122,496
1765877446.521128,496
1765877446.5211341,496
1765877446.5211399,496
1765877446.521146,496
1765877446.521151,495
1765877446.521157,496
1765877446.5211651,496
1765877446.5211709,496
1765877446.521177,496
1765877446.521184,496
1765877446.5211918,495
1765877446.521199,495
1765877446.521204,495
1765877446.5212102,496
1765877446.521216,496
1765877446.5212219,496
1765877446.521228,496
1765877446.5212328,496
1765877446.521239,496
1765877446.521249,496
1765877446.521255,495
1765877446.521261,496
1765877446.521267,496
1765877446.5212731,495
1765877446.5212789,495
1765877446.521285,495
1765877446.521291,495
1765877446.521297,496
1765877446.521303,495
1765877446.521308,496
1765877446.5213141,495
1765877446.5213199,496
1765877446.521326,495
1765877446.521332,495
1765877446.521337,496
1765877446.521343,495
1765877446.5213492,495
1765877446.521417,495
1765877446.521423,495
1765877446.5214279,495
1765877446.521434,495
1765877446.52144,495
1765877446.521446,495
1765877446.521452,495
1765877446.521457,495
1765877446.521465,495
1765877446.521472,495
1765877446.521478,495
1765877446.521483,495
1765877446.521489,495
1765877446.521495,495
1765877446.5215008,495
1765877446.521506,495
1765877446.521512,495
1765877446.521518,495
1765877446.521524,495
1765877446.5215292,495
1765877446.521535,496
1765877446.521541,495
1765877446.521546,495
1765877446.5215518,495
1765877446.521558,495
1765877446.521564,495
1765877446.52157,495
1765877446.521575,495
1765877446.5215812,495
1765877446.521587,495
1765877446.5215921,495
1765877446.5215979,495
1765877446.521604,495
1765877446.52161,496
1765877446.521615,495
1765877446.5216231,495
1765877446.52163,496
1765877446.521635,495
1765877446.521641,495
1765877446.5216472,495
1765877446.521653,495
1765877446.521659,495
1765877446.521667,495
1765877446.521674,495
1765877446.5216792,495
1765877446.521685,495
1765877446.5216908,495
1765877446.521697,495
1765877446.521703,495
1765877446.5217102,495
1765877446.521717,495
1765877446.5217228,495
1765877446.521728,495
1765877446.521734,496
1765877446.52174,495
1765877446.521746,495
1765877446.521752,496
1765877446.5217578,496
1765877446.521764,495
1765877446.521955,495
1765877446.521961,495
1765877446.521966,495
1765877446.521973,496
1765877446.5219798,495
1765877446.521985,496
1765877446.5219898,495
1765877446.521996,495
1765877446.5220008,495
1765877446.522006,496
1765877446.5220108,495
1765877446.522016,496
1765877446.5220218,495
1765877446.522027,496
1765877446.522032,495
1765877446.522037,495
1765877446.522043,495
1765877446.522049,495
1765877446.522055,495
1765877446.52206,495
1765877446.5220659,496
1765877446.522072,495
1765877446.522078,496
1765877446.522084,495
1765877446.52209,495
1765877446.5220952,496
1765877446.522101,495
1765877446.522107,495
1765877446.522113,495
1765877446.5221188,495
1765877446.5221279,495
1765877446.5221329,495
1765877446.5221388,495
1765877446.522145,495
1765877446.522151,495
1765877446.522157,495
1765877446.522162,496
1765877446.5221682,495
1765877446.522174,495
1765877446.52218,495
1765877446.522186,495
1765877446.522191,495
1765877446.522197,495
1765877446.522203,495
1765877446.522209,495
1765877446.522217,495
1765877446.5222242,495
1765877446.522229,495
1765877446.5222359,495
1765877446.522243,495
1765877446.52225,494
1765877446.5222569,495
1765877446.522263,495
1765877446.522269,495
1765877446.522275,495
1765877446.52228,495
1765877446.5222871,495
1765877446.522295,495
1765877446.5223,495
1765877446.522306,495
1765877446.522312,495
1765877446.5223181,495
1765877446.522323,495
1765877446.52233,495
1765877446.522337,495
1765877446.522343,495
1765877446.522349,494
1765877446.5223548,494
1765877446.522361,495
1765877446.522367,495
1765877446.522372,494
1765877446.522378,494
1765877446.522384,495
1765877446.5223901,494
1765877446.522395,495
1765877446.522401,495
1765877446.5224068,495
1765877446.522413,495
1765877446.522418,495
1765877446.522424,495
1765877446.52243,495
1765877446.5224352,495
1765877446.522441,495
1765877446.5224488,494
1765877446.522455,494
1765877446.522461,494
1765877446.522468,495
1765877446.522475,495
1765877446.522481,495
1765877446.522487,495
1765877446.5224938,495
1765877446.522502,495
1765877446.522509,495
1765877446.522584,496
1765877446.52259,495
1765877446.5225961,495
1765877446.522603,495
1765877446.52261,495
1765877446.5226161,495
1765877446.5226219,495
1765877446.522628,495
1765877446.522634,494
1765877446.52264,495
1765877446.522645,494
1765877446.522651,495
1765877446.522657,495
1765877446.5226629,495
1765877446.522669,495
1765877446.5226738,495
1765877446.5226822,495
1765877446.522688,495
1765877446.5226939,495
1765877446.522701,495
1765877446.522707,495
1765877446.5227132,495
1765877446.522718,494
1765877446.5227242,495
1765877446.5227299,495
1765877446.522736,495
1765877446.522742,494
1765877446.522748,495
1765877446.522754,495
1765877446.522759,495
1765877446.5227652,495
1765877446.522771,495
1765877446.522777,495
1765877446.5227818,495
1765877446.522788,495
1765877446.522793,494
1765877446.522798,495
1765877446.5228028,495
1765877446.522809,496
1765877446.522814,495
1765877446.522819,495
1765877446.522824,495
1765877446.522829,495
1765877446.522835,495
1765877446.522841,495
1765877446.522848,495
1765877446.5228531,495
1765877446.522858,495
1765877446.5228631,495
1765877446.522869,495
1765877446.522874,495
1765877446.52288,495
1765877446.5228858,495
1765877446.522892,495
1765877446.522898,495
1765877446.5229042,495
1765877446.522909,495
1765877446.5229151,495
1765877446.5229208,495
1765877446.522927,495
1765877446.522932,495
1765877446.522938,495
1765877446.522944,495
1765877446.52295,495
1765877446.522955,495
1765877446.522961,495
1765877446.522967,495
1765877446.5229719,495
1765877446.522978,495
1765877446.522984,495
1765877446.52299,495
1765877446.522998,494
1765877446.523005,495
1765877446.52301,494
1765877446.523016,495
1765877446.5230222,495
1765877446.523028,495
1765877446.5230331,494
1765877446.5230389,495
1765877446.523045,495
1765877446.52305,495
1765877446.523056,496
1765877446.523062,495
1765877446.523068,495
1765877446.523073,495
1765877446.523079,495
1765877446.523085,495
1765877446.5230908,494
1765877446.523096,495
1765877446.523102,495
1765877446.523108,495
1765877446.523114,495
1765877446.5231192,495
1765877446.523125,495
1765877446.523131,495
1765877446.523136,495
1765877446.5231419,495
1765877446.523149,495
1765877446.523156,495
1765877446.5231621,495
1765877446.523167,495
1765877446.523173,495
1765877446.523179,495
1765877446.5231879,495
1765877446.5231931,494
1765877446.523199,495
1765877446.523205,495
1765877446.52321,495
1765877446.5232158,495
1765877446.523222,495
1765877446.523228,495
1765877446.523233,495
1765877446.523239,494
1765877446.523245,494
1765877446.523251,494
1765877446.5232582,494
1765877446.5232692,494
1765877446.52328,494
1765877446.5232909,494
1765877446.5233018,494
1765877446.5233128,494
1765877446.523325,494
1765877446.523336,494
1765877446.523346,495
1765877446.523356,494
1765877446.523365,495
1765877446.5233731,495
1765877446.523381,494
1765877446.5233889,494
1765877446.5233972,494
1765877446.523405,495
1765877446.523413,495
1765877446.523422,494
1765877446.5234299,494
1765877446.523438,495
1765877446.523446,494
1765877446.523455,494
1765877446.523463,495
1765877446.523471,494
1765877446.523479,494
1765877446.523487,495
1765877446.523496,494
1765877446.523504,495
1765877446.5235121,495
1765877446.52352,495
1765877446.5235279,494
1765877446.523536,494
1765877446.523544,495
1765877446.523552,495
1765877446.52356,495
1765877446.5235682,495
1765877446.523579,495
1765877446.523587,495
1765877446.523596,495
1765877446.523604,495
1765877446.523612,495
1765877446.5236201,494
1765877446.523628,494
1765877446.5236359,495
1765877446.523644,495
1765877446.523652,496
1765877446.52366,496
1765877446.523668,496
1765877446.523676,496
1765877446.523684,495
1765877446.5236921,496
1765877446.5237,496
1765877446.5237079,496
1765877446.5237162,495
1765877446.523725,495
1765877446.523733,495
1765877446.523741,495
1765877446.523749,495
1765877446.523757,496
1765877446.523766,496
1765877446.523774,496
1765877446.5237818,496
1765877446.5237918,495
1765877446.5238001,495
1765877446.523808,495
1765877446.5238159,495
1765877446.5238242,495
1765877446.523832,495
1765877446.5238411,495
1765877446.523849,495
1765877446.5238569,495
1765877446.523864,495
1765877446.523873,495
1765877446.523881,495
1765877446.5238888,495
1765877446.5238972,494
1765877446.523905,495
1765877446.523913,495
1765877446.523921,495
1765877446.523929,494
1765877446.523937,495
1765877446.5239449,494
1765877446.523953,494
1765877446.523961,495
1765877446.5239701,495
1765877446.523978,495
1765877446.5239859,495
1765877446.5239942,494
1765877446.524003,495
1765877446.524013,494
1765877446.524021,495
1765877446.524029,495
1765877446.5240371,495
1765877446.524045,495
1765877446.524053,495
1765877446.524061,496
1765877446.524068,495
1765877446.524077,495
1765877446.524085,495
1765877446.524093,495
1765877446.524101,495
1765877446.5241091,494
1765877446.524117,495
1765877446.5241249,495
1765877446.5241332,495
1765877446.524141,494
1765877446.524149,495
1765877446.5241568,494
1765877446.5241652,494
1765877446.524173,495
1765877446.524182,495
1765877446.52419,495
1765877446.5241978,495
1765877446.5242062,495
1765877446.524214,495
1765877446.524225,494
1765877446.5242329,495
1765877446.524241,494
1765877446.524249,495
1765877446.524257,494
1765877446.5242822,494
1765877446.524292,495
1765877446.524304,495
1765877446.5243468,495
1765877446.524361,495
1765877446.524373,494
1765877446.524384,494
1765877446.524395,494
1765877446.524406,495
1765877446.524417,494
1765877446.5244281,495
1765877446.524439,495
1765877446.524451,495
1765877446.524462,495
1765877446.5244732,494
1765877446.5244842,495
1765877446.5244951,494
1765877446.524506,495
1765877446.5245178,495
1765877446.524529,495
1765877446.524547,494
1765877446.524562,495
1765877446.5245728,495
1765877446.524584,495
1765877446.524595,495
1765877446.524607,495
1765877446.524618,495
1765877446.52463,494
1765877446.524641,495
1765877446.524652,495
1765877446.524663,495
1765877446.524674,495
1765877446.5246851,495
1765877446.524696,495
1765877446.524707,495
1765877446.524719,495
1765877446.5247302,495
1765877446.5247412,495
1765877446.524752,495
1765877446.5247629,494
1765877446.5247738,494
1765877446.5247848,495
1765877446.524797,495
1765877446.524812,495
1765877446.5248241,495
1765877446.524836,495
1765877446.524847,495
1765877446.5248609,495
1765877446.5248718,495
1765877446.524883,495
1765877446.524895,494
1765877446.524906,495
1765877446.524917,495
1765877446.524928,495
1765877446.524939,495
1765877446.52495,495
1765877446.52496,495
1765877446.52497,495
1765877446.52498,495
1765877446.5249898,495
1765877446.5249999,495
1765877446.525009,495
1765877446.525019,495
1765877446.5250292,495
1765877446.5250392,495
1765877446.525049,495
1765877446.525058,495
1765877446.525068,495
1765877446.525078,495
1765877446.525088,495
1765877446.525098,495
1765877446.5251079,494
1765877446.525117,495
1765877446.52513,495
1765877446.525141,495
1765877446.525152,495
1765877446.525162,494
1765877446.525172,495
1765877446.5251808,495
1765877446.5251908,495
1765877446.5252008,495
1765877446.5252109,495
1765877446.525256,495
1765877446.525265,495
1765877446.525275,495
1765877446.525286,495
1765877446.5252962,495
1765877446.5253062,495
1765877446.525316,495
1765877446.525326,495
1765877446.525336,495
1765877446.525346,494
1765877446.525356,494
1765877446.525366,494
1765877446.525376,495
1765877446.525386,495
1765877446.5253959,495
1765877446.525406,495
1765877446.525416,495
1765877446.525428,495
1765877446.525439,495
1765877446.525449,495
1765877446.525459,495
1765877446.5254679,496
1765877446.525478,495
1765877446.5254881,495
1765877446.5254982,495
1765877446.5255082,495
1765877446.525522,495
1765877446.525532,495
1765877446.5255418,495
1765877446.525552,495
1765877446.525562,495
1765877446.525572,495
1765877446.525582,495
1765877446.525592,495
1765877446.525602,495
1765877446.525612,495
1765877446.5256221,496
1765877446.525632,495
1765877446.525642,496
1765877446.525652,495
1765877446.525662,495
1765877446.525675,495
1765877446.525685,495
1765877446.525697,495
1765877446.525708,495
1765877446.525718,495
1765877446.525728,495
1765877446.525738,495
1765877446.525748,495
1765877446.5257568,495
1765877446.5257668,495
1765877446.5257769,495
1765877446.5257869,495
1765877446.5257971,495
1765877446.525811,495
1765877446.525821,495
1765877446.525831,495
1765877446.525841,495
1765877446.5258508,495
1765877446.525861,495
1765877446.525871,495
1765877446.525881,495
1765877446.525891,495
1765877446.525901,496
1765877446.525911,496
1765877446.525921,495
1765877446.5259311,495
1765877446.525941,495
1765877446.525951,496
1765877446.52596,495
1765877446.525981,495
1765877446.525991,496
1765877446.526001,495
1765877446.526011,495
1765877446.526021,496
1765877446.52603,496
1765877446.52604,496
1765877446.52605,495
1765877446.52606,495
1765877446.52607,496
1765877446.526081,495
1765877446.526091,496
1765877446.5261009,495
1765877446.526111,495
1765877446.526121,495
1765877446.52613,495
1765877446.52614,495
1765877446.52615,495
1765877446.5261598,495
1765877446.52617,495
1765877446.52618,495
1765877446.52619,495
1765877446.5262,496
1765877446.52621,495
1765877446.52622,495
1765877446.52623,495
1765877446.526243,495
1765877446.526253,495
1765877446.526263,495
1765877446.526273,495
1765877446.526284,495
1765877446.526294,496
1765877446.526304,495
1765877446.526314,496
1765877446.5263228,495
1765877446.5263329,495
1765877446.5263429,495
1765877446.526353,496
1765877446.526363,496
1765877446.5263731,495
1765877446.5263832,495
1765877446.5263932,495
1765877446.5264032,495
1765877446.526413,495
1765877446.526423,495
1765877446.526433,495
1765877446.526443,496
1765877446.526453,495
1765877446.526463,496
1765877446.526473,495
1765877446.5264819,495
1765877446.5264919,495
1765877446.526504,495
1765877446.526515,496
1765877446.5265238,495
1765877446.5265338,495
1765877446.5265439,495
1765877446.526554,495
1765877446.5265641,495
1765877446.5265741,496
1765877446.5265841,495
1765877446.5265942,496
1765877446.526604,495
1765877446.526614,495
1765877446.526624,495
1765877446.526634,495
1765877446.526644,495
1765877446.526654,495
1765877446.526664,495
1765877446.526674,495
1765877446.5266838,496
1765877446.5266938,496
1765877446.526704,496
1765877446.526714,495
1765877446.526724,495
1765877446.526734,495
1765877446.5267441,496
1765877446.5267541,495
1765877446.526766,495
1765877446.526777,495
1765877446.526787,495
1765877446.526797,496
1765877446.526806,495
1765877446.526816,495
1765877446.526826,495
1765877446.526836,495
1765877446.526846,495
1765877446.526856,495
1765877446.526866,496
1765877446.526876,496
1765877446.526886,495
1765877446.5268962,495
1765877446.526906,495
1765877446.526916,495
1765877446.526925,495
1765877446.526935,495
1765877446.526945,495
1765877446.526955,495
1765877446.526965,496
1765877446.526974,496
1765877446.526984,495
1765877446.526994,496
1765877446.527004,495
1765877446.5270138,495
1765877446.527026,496
1765877446.527037,495
1765877446.52705,495
1765877446.52706,495
1765877446.5270689,495
1765877446.5270789,495
1765877446.5270889,495
1765877446.527099,495
1765877446.5271091,495
1765877446.527118,495
1765877446.527128,495
1765877446.527138,496
1765877446.527148,495
1765877446.527158,495
1765877446.527167,495
1765877446.5271769,495
1765877446.5271869,495
1765877446.527197,496
1765877446.527207,495
1765877446.52722,495
1765877446.52723,496
1765877446.52724,495
1765877446.5272489,496
1765877446.5272589,497
1765877446.5272691,497
1765877446.5272791,496
1765877446.5272892,496
1765877446.527298,496
1765877446.527311,496
1765877446.527321,496
1765877446.527331,496
1765877446.5273411,497
1765877446.5273511,496
1765877446.52736,496
1765877446.52737,497
1765877446.52738,496
1765877446.52739,496
1765877446.527401,496
1765877446.527411,496
1765877446.527421,495
1765877446.527431,495
1765877446.5274408,496
1765877446.5274508,495
1765877446.527461,496
1765877446.527471,496
1765877446.527481,496
1765877446.527491,496
1765877446.527501,496
1765877446.527509,496
1765877446.5275168,496
1765877446.5275252,496
1765877446.527533,495
1765877446.527541,495
1765877446.52755,495
1765877446.52756,495
1765877446.5275688,496
1765877446.5275772,495
1765877446.527585,496
1765877446.527594,495
1765877446.527602,495
1765877446.52761,496
1765877446.527618,495
1765877446.527627,495
1765877446.5276349,495
1765877446.527643,496
1765877446.527651,496
1765877446.527659,496
1765877446.527667,496
1765877446.527675,496
1765877446.5276842,495
1765877446.527692,496
1765877446.5277,495
1765877446.5277078,496
1765877446.5277162,496
1765877446.527724,496
1765877446.527732,496
1765877446.52774,495
1765877446.527748,496
1765877446.5277572,495
1765877446.527765,495
1765877446.527775,496
1765877446.5277839,495
1765877446.5277922,495
1765877446.527801,495
1765877446.5278091,495
1765877446.527817,496
1765877446.5278249,495
1765877446.527833,495
1765877446.527841,495
1765877446.527849,495
1765877446.5278568,495
1765877446.5278661,496
1765877446.527874,496
1765877446.527882,495
1765877446.52789,495
1765877446.527898,495
1765877446.5279071,496
1765877446.527915,495
1765877446.5279229,495
1765877446.527931,495
1765877446.527939,496
1765877446.527947,495
1765877446.527955,495
1765877446.5279639,495
1765877446.527972,495
1765877446.52798,495
1765877446.527988,495
1765877446.527998,495
1765877446.528009,495
1765877446.528019,495
1765877446.528028,495
1765877446.5280378,495
1765877446.528048,495
1765877446.528058,495
1765877446.528068,496
1765877446.528078,497
1765877446.528088,495
1765877446.528098,495
1765877446.5281081,496
1765877446.5281181,496
1765877446.528128,495
1765877446.528138,495
1765877446.528151,496
1765877446.528161,495
1765877446.528171,495
1765877446.528181,495
1765877446.528191,495
1765877446.5282009,496
1765877446.52821,496
1765877446.52822,495
1765877446.52823,496
1765877446.5282402,495
1765877446.528249,495
1765877446.5282612,495
1765877446.528272,495
1765877446.5282822,495
1765877446.5282922,495
1765877446.5283022,495
1765877446.528312,495
1765877446.528321,495
1765877446.528331,495
1765877446.528341,495
1765877446.528351,495
1765877446.5283608,496
1765877446.5283709,495
1765877446.5283809,496
1765877446.528391,495
1765877446.5284,494
1765877446.5284102,495
1765877446.5284202,495
1765877446.52843,495
1765877446.52844,495
1765877446.52845,495
1765877446.528459,495
1765877446.528469,495
1765877446.5284789,496
1765877446.5284889,496
1765877446.528499,495
1765877446.528509,495
1765877446.528519,496
1765877446.528532,495
1765877446.5285451,496
1765877446.528555,495
1765877446.528565,495
1765877446.528574,495
1765877446.528584,496
1765877446.528594,495
1765877446.5286038,495
1765877446.5286138,495
1765877446.528623,496
1765877446.528633,495
1765877446.5286431,495
1765877446.528652,496
1765877446.528662,495
1765877446.528672,496
1765877446.528682,495
1765877446.528692,495
1765877446.528702,495
1765877446.5287108,495
1765877446.5287209,495
1765877446.5287309,495
1765877446.5287411,495
1765877446.5287511,495
1765877446.528762,495
1765877446.5287712,495
1765877446.528781,495
1765877446.528791,495
1765877446.528803,495
1765877446.5288131,495
1765877446.5288231,495
1765877446.528833,495
1765877446.528843,495
1765877446.528853,496
1765877446.528863,495
1765877446.528873,495
1765877446.528884,495
1765877446.528894,495
1765877446.528903,495
1765877446.5289128,495
1765877446.5289228,495
1765877446.528933,495
1765877446.528943,495
1765877446.528953,495
1765877446.528963,496
1765877446.528973,495
1765877446.528982,495
1765877446.528992,495
1765877446.529002,495
1765877446.529012,496
1765877446.529022,496
1765877446.529032,495
1765877446.5290408,495
1765877446.5290508,495
1765877446.529063,495
1765877446.529074,496
1765877446.529084,495
1765877446.529094,496
1765877446.5291038,495
1765877446.529114,496
1765877446.529124,495
1765877446.529133,495
1765877446.529143,495
1765877446.529153,495
1765877446.5291631,495
1765877446.529172,495
1765877446.529182,495
1765877446.529192,495
1765877446.529202,495
1765877446.5292108,495
1765877446.529221,495
1765877446.529231,495
1765877446.529241,495
1765877446.529251,495
1765877446.52926,495
1765877446.52927,496
1765877446.52928,495
1765877446.52929,495
1765877446.5293,495
1765877446.529309,495
1765877446.529321,494
1765877446.5293329,495
1765877446.529343,495
1765877446.529352,494
1765877446.529362,494
1765877446.529372,495
1765877446.529382,495
1765877446.5293922,495
1765877446.529401,496
1765877446.529411,495
1765877446.529421,495
1765877446.529431,496
1765877446.529441,495
1765877446.529451,495
1765877446.529461,495
1765877446.529471,495
1765877446.529481,495
1765877446.529491,494
1765877446.529501,495
1765877446.529511,494
1765877446.529521,494
1765877446.5295308,495
1765877446.529541,495
1765877446.529551,495
1765877446.52956,495
1765877446.52957,495
1765877446.529582,495
1765877446.529593,495
1765877446.5296042,495
1765877446.529614,494
1765877446.529624,495
1765877446.529633,495
1765877446.529643,495
1765877446.529653,495
1765877446.529663,495
1765877446.52977,495
1765877446.52978,494
1765877446.52979,494
1765877446.5298,495
1765877446.52981,495
1765877446.52982,495
1765877446.52983,495
1765877446.5298402,494
1765877446.52985,495
1765877446.52986,495
1765877446.52987,494
1765877446.52988,495
1765877446.529891,494
1765877446.529901,495
1765877446.529911,495
1765877446.529921,495
1765877446.529931,495
1765877446.529941,494
1765877446.529954,495
1765877446.529964,494
1765877446.529974,494
1765877446.529984,495
1765877446.529994,495
1765877446.530004,495
1765877446.530014,495
1765877446.5300229,494
1765877446.5300329,494
1765877446.530043,494
1765877446.5300531,495
1765877446.5300622,495
1765877446.530072,494
1765877446.530082,494
1765877446.530092,494
1765877446.530102,494
1765877446.530111,495
1765877446.5301208,495
1765877446.5301309,495
1765877446.5301409,495
1765877446.530151,495
1765877446.530161,495
1765877446.530171,494
1765877446.5301812,495
1765877446.5301912,495
1765877446.5302012,494
1765877446.530213,495
1765877446.530224,495
1765877446.530234,495
1765877446.530244,495
1765877446.5302532,495
1765877446.530263,494
1765877446.530273,494
1765877446.530283,494
1765877446.530293,494
1765877446.530303,494
1765877446.530313,494
1765877446.530323,494
1765877446.530333,494
1765877446.5303428,494
1765877446.5303528,494
1765877446.5303628,494
1765877446.530373,494
1765877446.530383,494
1765877446.5303931,495
1765877446.5304031,494
1765877446.5304132,494
1765877446.530422,494
1765877446.530432,494
1765877446.530442,494
1765877446.530452,494
1765877446.530462,494
1765877446.530474,495
1765877446.530485,494
1765877446.530495,494
1765877446.530505,494
1765877446.530515,494
1765877446.530525,495
1765877446.530535,494
1765877446.530545,495
1765877446.5305548,494
1765877446.530564,495
1765877446.530574,494
1765877446.530584,494
1765877446.530594,495
1765877446.5306041,495
1765877446.530614,495
1765877446.530624,495
1765877446.530633,494
1765877446.530643,494
1765877446.530653,494
1765877446.530663,494
1765877446.5306728,495
1765877446.5306828,495
1765877446.530693,494
1765877446.530702,495
1765877446.5307121,495
1765877446.5307221,495
1765877446.530734,494
1765877446.530745,495
1765877446.530755,495
1765877446.530765,495
1765877446.530774,495
1765877446.530784,495
1765877446.530794,495
1765877446.530808,496
1765877446.530818,495
1765877446.530828,496
1765877446.530838,496
1765877446.530848,496
1765877446.530858,497
1765877446.530868,496
1765877446.530878,496
1765877446.530887,496
1765877446.530897,497
1765877446.530907,496
1765877446.5309162,496
1765877446.530925,496
1765877446.530934,495
1765877446.530943,496
1765877446.530952,496
1765877446.5309608,496
1765877446.5309691,496
1765877446.530978,495
1765877446.530987,496
1765877446.530999,495
1765877446.531008,495
1765877446.531017,496
1765877446.531026,495
1765877446.531039,495
1765877446.5310478,495
1765877446.531057,495
1765877446.5310662,495
1765877446.531075,495
1765877446.531084,495
1765877446.531093,495
1765877446.531102,495
1765877446.531111,495
1765877446.53112,495
1765877446.5311291,496
1765877446.531137,495
1765877446.531146,495
1765877446.5311549,494
1765877446.531164,495
1765877446.5311732,495
1765877446.531182,495
1765877446.53119,495
1765877446.531199,496
1765877446.531208,495
1765877446.5312169,495
1765877446.5312262,495
1765877446.5312371,495
1765877446.5312462,496
1765877446.531255,495
1765877446.531264,495
1765877446.531272,495
1765877446.531281,495
1765877446.53129,495
1765877446.531299,495
1765877446.531308,495
1765877446.531317,495
1765877446.531326,495
1765877446.5313349,495
1765877446.531344,495
1765877446.531353,495
1765877446.531362,495
1765877446.531371,496
1765877446.531379,495
1765877446.5313878,495
1765877446.531397,495
1765877446.5314062,495
1765877446.531415,495
1765877446.531424,495
1765877446.5314329,495
1765877446.5314429,495
1765877446.531451,495
1765877446.53146,495
1765877446.531471,495
1765877446.53148,495
1765877446.5314891,495
1765877446.531498,496
1765877446.531507,495
1765877446.5315158,495
1765877446.5315251,495
1765877446.531533,496
1765877446.531542,496
1765877446.531551,495
1765877446.53156,495
1765877446.531569,495
1765877446.531578,495
1765877446.531586,495
1765877446.531596,496
1765877446.531605,495
1765877446.531614,496
1765877446.531623,495
1765877446.5316322,495
1765877446.531641,495
1765877446.53165,495
1765877446.5316591,495
1765877446.531668,495
1765877446.5316758,495
1765877446.5316842,495
1765877446.531692,496
1765877446.5317,495
1765877446.531712,496
1765877446.53172,496
1765877446.5317278,496
1765877446.5317361,496
1765877446.531745,495
1765877446.531753,496
1765877446.531761,496
1765877446.531769,495
1765877446.531777,495
1765877446.531785,495
1765877446.5317929,496
1765877446.531801,495
1765877446.531809,496
1765877446.531817,496
1765877446.5318248,496
1765877446.5318332,495
1765877446.531841,495
1765877446.53185,495
1765877446.531858,496
1765877446.531866,495
1765877446.531874,495
1765877446.531882,496
1765877446.53189,496
1765877446.531898,495
1765877446.5319061,495
1765877446.531914,495
1765877446.531924,495
1765877446.531934,495
1765877446.531942,495
1765877446.53195,496
1765877446.531958,495
1765877446.531966,495
1765877446.5319738,495
1765877446.5319822,496
1765877446.531991,495
1765877446.5319989,495
1765877446.532007,495
1765877446.532015,496
1765877446.532023,496
1765877446.532031,495
1765877446.532039,495
1765877446.532047,495
1765877446.5320551,495
1765877446.532063,495
1765877446.5320709,496
1765877446.5320792,496
1765877446.532088,495
1765877446.532096,496
1765877446.532104,496
1765877446.532112,496
1765877446.53212,496
1765877446.532128,496
1765877446.532136,495
1765877446.532151,495
1765877446.532159,496
1765877446.532167,496
1765877446.532175,496
1765877446.532183,496
1765877446.532191,495
1765877446.532199,495
1765877446.532207,496
1765877446.532215,495
1765877446.532224,496
1765877446.532232,495
1765877446.53224,495
1765877446.532248,495
1765877446.532256,495
1765877446.532264,495
1765877446.532272,495
1765877446.53228,495
1765877446.532288,495
1765877446.532296,496
1765877446.532305,495
1765877446.532313,495
1765877446.532321,495
1765877446.5323288,495
1765877446.532337,495
1765877446.532345,495
1765877446.532353,495
1765877446.532363,495
1765877446.532372,496
1765877446.5323799,495
1765877446.5323899,495
1765877446.532398,495
1765877446.532407,495
1765877446.532416,496
1765877446.532425,496
1765877446.532434,495
1765877446.5324428,496
1765877446.532452,495
1765877446.5324612,495
1765877446.532469,495
1765877446.5324779,496
1765877446.532487,496
1765877446.532496,495
1765877446.532505,495
1765877446.532514,496
1765877446.532523,495
1765877446.532531,495
1765877446.5325398,495
1765877446.5325491,496
1765877446.5325599,495
1765877446.5325692,495
1765877446.532578,495
1765877446.532586,495
1765877446.532597,495
1765877446.532607,495
1765877446.532616,495
1765877446.532625,495
1765877446.532634,496
1765877446.532643,496
1765877446.5326521,495
1765877446.532661,495
1765877446.5326688,496
1765877446.532678,496
1765877446.5326872,495
1765877446.532696,495
1765877446.532705,495
1765877446.532714,495
1765877446.532723,495
1765877446.5327308,495
1765877446.53274,495
1765877446.532749,495
1765877446.532758,495
1765877446.532767,495
1765877446.5327759,495
1765877446.532785,495
1765877446.532794,496
1765877446.532803,495
1765877446.532812,495
1765877446.532821,495
1765877446.53283,495
1765877446.532842,495
1765877446.532851,496
1765877446.5328598,496
1765877446.532869,495
1765877446.532879,495
1765877446.5328882,496
1765877446.532897,495
1765877446.532906,495
1765877446.5329149,495
1765877446.532924,496
1765877446.532932,496
1765877446.532941,496
1765877446.53295,495
1765877446.532959,495
1765877446.532968,495
1765877446.5329769,495
1765877446.5329862,495
1765877446.532995,496
1765877446.533004,495
1765877446.533013,496
1765877446.533022,495
1765877446.533031,495
1765877446.53304,495
1765877446.533049,495
1765877446.533061,495
1765877446.53307,496
1765877446.533081,495
1765877446.53309,495
1765877446.533099,496
1765877446.533108,495
1765877446.5331168,496
1765877446.5331259,496
1765877446.5331352,495
1765877446.533144,496
1765877446.533153,495
1765877446.5331619,495
1765877446.533171,496
1765877446.53318,495
1765877446.533189,495
1765877446.533198,495
1765877446.533207,495
1765877446.533215,495
1765877446.5332239,496
1765877446.533233,495
1765877446.5332422,496
1765877446.533251,496
1765877446.53326,496
1765877446.533269,495
1765877446.533278,495
1765877446.5332868,496
1765877446.533296,495
1765877446.5333052,495
1765877446.5333161,496
1765877446.5333261,496
1765877446.533335,496
1765877446.533344,496
1765877446.5333529,496
1765877446.533362,495
1765877446.533371,495
1765877446.53338,495
1765877446.533389,495
1765877446.533398,495
1765877446.533407,495
1765877446.533416,496
1765877446.5334249,496
1765877446.5334342,495
1765877446.533443,495
1765877446.533451,495
1765877446.53346,495
1765877446.533469,495
1765877446.5334778,495
1765877446.533487,495
1765877446.5334961,496
1765877446.533505,495
1765877446.533514,495
1765877446.5335228,495
1765877446.533532,495
1765877446.5335412,495
1765877446.53355,496
1765877446.533565,496
1765877446.5335739,496
1765877446.5335832,495
1765877446.533592,495
1765877446.5336,496
1765877446.533609,495
1765877446.533618,495
1765877446.5336268,495
1765877446.533636,495
1765877446.5336452,495
1765877446.533654,495
1765877446.533663,496
1765877446.5336719,495
1765877446.533681,495
1765877446.533689,495
1765877446.533698,495
1765877446.533707,495
1765877446.533716,495
1765877446.533725,495
1765877446.5337338,496
1765877446.5337431,495
1765877446.533752,495
1765877446.533761,495
1765877446.53377,495
1765877446.533778,496
1765877446.5337868,496
1765877446.533799,496
1765877446.5338082,495
1765877446.533817,495
1765877446.533826,495
1765877446.533835,495
1765877446.533844,495
1765877446.5338519,495
1765877446.5338612,496
1765877446.53387,495
1765877446.533879,495
1765877446.533888,496
1765877446.533897,495
1765877446.5339048,496
1765877446.533914,496
1765877446.5339231,496
1765877446.533932,496
1765877446.533941,497
1765877446.5339499,496
1765877446.533958,496
1765877446.533967,496
1765877446.533976,497
1765877446.5339851,497
1765877446.533994,497
1765877446.534003,497
1765877446.5340118,496
1765877446.5340211,496
1765877446.5340319,496
1765877446.5340428,497
1765877446.5340521,497
1765877446.53406,497
1765877446.534069,496
1765877446.534078,495
1765877446.534087,496
1765877446.5340958,496
1765877446.534105,496
1765877446.5341141,495
1765877446.534123,496
1765877446.534132,495
1765877446.5341408,496
1765877446.53415,496
1765877446.5341592,495
1765877446.534168,496
1765877446.534177,495
1765877446.534186,496
1765877446.534195,496
1765877446.534204,496
1765877446.534212,496
1765877446.5342212,496
1765877446.53423,496
1765877446.534239,496
1765877446.5342479,496
1765877446.534257,496
1765877446.534266,496
1765877446.5342772,495
1765877446.534288,495
1765877446.5342982,496
1765877446.534307,496
1765877446.534316,496
1765877446.534325,495
1765877446.534334,496
1765877446.534343,496
1765877446.5343518,496
1765877446.5343602,496
1765877446.534369,496
1765877446.534378,496
1765877446.5343869,495
1765877446.534396,496
1765877446.5344052,496
1765877446.534414,496
1765877446.534422,496
1765877446.534431,496
1765877446.534444,496
1765877446.534453,496
1765877446.534462,496
1765877446.5344708,496
1765877446.5344799,495
1765877446.5344892,495
1765877446.534498,496
1765877446.534507,496
1765877446.534517,496
1765877446.534527,496
1765877446.534536,496
1765877446.534545,495
1765877446.534554,496
1765877446.534563,496
1765877446.534571,496
1765877446.53458,496
1765877446.5345888,496
1765877446.5345988,496
1765877446.534608,496
1765877446.5346172,496
1765877446.534626,496
1765877446.534636,496
1765877446.534644,496
1765877446.534652,496
1765877446.534664,496
1765877446.5346718,496
1765877446.534681,496
1765877446.534689,496
1765877446.534697,496
1765877446.534705,496
1765877446.534713,495
1765877446.534722,496
1765877446.53473,496
1765877446.5347378,496
1765877446.534747,496
1765877446.5347571,496
1765877446.534765,496
1765877446.5347729,496
1765877446.534781,496
1765877446.534789,496
1765877446.534797,495
1765877446.534806,495
1765877446.534814,495
1765877446.534822,495
1765877446.53483,496
1765877446.534838,496
1765877446.534846,496
1765877446.534854,495
1765877446.534863,496
1765877446.534871,496
1765877446.534879,496
1765877446.5348868,496
1765877446.5348952,496
1765877446.534904,496
1765877446.534912,496
1765877446.53492,495
1765877446.5349278,496
1765877446.534936,496
1765877446.534946,496
1765877446.534954,496
1765877446.534959,496
1765877446.534966,496
1765877446.5349739,496
1765877446.534981,496
1765877446.534988,496
1765877446.534996,496
1765877446.535003,495
1765877446.535011,495
1765877446.535018,496
1765877446.5350258,496
1765877446.535032,496
1765877446.535037,496
1765877446.535043,496
1765877446.535048,496
1765877446.535053,496
1765877446.535059,495
1765877446.535064,495
1765877446.535069,496
1765877446.535074,496
1765877446.53508,496
1765877446.535085,496
1765877446.53509,496
1765877446.5350962,497
1765877446.535101,496
1765877446.535106,496
1765877446.535111,495
1765877446.5351171,496
1765877446.535122,496
1765877446.535129,496
1765877446.535135,496
1765877446.53514,496
1765877446.535146,496
1765877446.535151,496
1765877446.535156,496
1765877446.535161,496
1765877446.535167,496
1765877446.535172,496
1765877446.535177,496
1765877446.535182,496
1765877446.535188,495
1765877446.5351932,496
1765877446.535198,496
1765877446.5352042,496
1765877446.5352142,496
1765877446.535219,496
1765877446.5352252,496
1765877446.53523,496
1765877446.5352361,496
1765877446.535241,495
1765877446.5352461,496
1765877446.535251,496
1765877446.5352561,496
1765877446.5352619,496
1765877446.535267,496
1765877446.535274,496
1765877446.535281,495
1765877446.535286,496
1765877446.535291,496
1765877446.535297,496
1765877446.5353029,496
1765877446.535309,496
1765877446.535316,495
1765877446.535321,495
1765877446.535327,496
1765877446.5353322,496
1765877446.535338,496
1765877446.5353432,496
1765877446.535349,496
1765877446.5353541,496
1765877446.535359,496
1765877446.5353642,496
1765877446.535369,496
1765877446.535375,496
1765877446.53538,496
1765877446.5353851,496
1765877446.53539,495
1765877446.535396,495
1765877446.5354009,495
1765877446.535406,495
1765877446.535411,495
1765877446.535417,495
1765877446.535424,496
1765877446.53543,495
1765877446.535436,495
1765877446.535441,496
1765877446.535446,496
1765877446.535452,496
1765877446.5354571,496
1765877446.535462,496
1765877446.535467,496
1765877446.5354729,495
1765877446.535478,496
1765877446.535483,495
1765877446.535488,496
1765877446.5354939,495
1765877446.535499,495
1765877446.5355039,496
1765877446.53551,496
1765877446.5355148,496
1765877446.53552,496
1765877446.535525,496
1765877446.53553,495
1765877446.535536,496
1765877446.535541,496
1765877446.535546,495
1765877446.535552,496
1765877446.535558,496
1765877446.5355651,496
1765877446.535572,496
1765877446.535579,496
1765877446.535584,496
1765877446.5355892,496
1765877446.535595,496
1765877446.5356002,496
1765877446.535605,496
1765877446.535611,496
1765877446.535616,496
1765877446.535622,496
1765877446.53563,496
1765877446.535637,496
1765877446.535645,496
1765877446.5356522,496
1765877446.53566,495
1765877446.535667,496
1765877446.5356748,496
1765877446.535682,495
1765877446.5356889,496
1765877446.5356958,495
1765877446.535703,496
1765877446.5357099,496
1765877446.535716,496
1765877446.535722,496
1765877446.535727,495
1765877446.535733,496
1765877446.53574,495
1765877446.535747,496
1765877446.535753,495
1765877446.5357592,495
1765877446.535765,496
1765877446.535771,495
1765877446.535777,495
1765877446.5357828,496
1765877446.535789,496
1765877446.535795,496
1765877446.5358012,496
1765877446.535808,496
1765877446.535815,496
1765877446.535823,496
1765877446.53583,496
1765877446.535836,496
1765877446.535842,496
1765877446.535847,496
1765877446.5358531,496
1765877446.5358589,496
1765877446.535865,496
1765877446.535871,496
1765877446.5358772,495
1765877446.535882,496
1765877446.535888,495
1765877446.535894,496
1765877446.5358999,496
1765877446.535908,496
1765877446.535915,496
1765877446.5359209,496
1765877446.535927,496
1765877446.535933,495
1765877446.535938,496
1765877446.535944,496
1765877446.5359502,496
1765877446.535956,496
1765877446.535962,495
1765877446.5359669,496
1765877446.535973,495
1765877446.53598,495
1765877446.535987,496
1765877446.535993,495
1765877446.536,496
1765877446.536008,496
1765877446.536014,495
1765877446.53602,496
1765877446.536026,495
1765877446.536032,495
1765877446.536038,495
1765877446.5360441,495
1765877446.536049,496
1765877446.536055,496
1765877446.5360608,496
1765877446.536067,496
1765877446.536078,496
1765877446.536084,496
1765877446.5360901,496
1765877446.536096,496
1765877446.536101,496
1765877446.536107,496
1765877446.5361128,496
1765877446.5361228,496
1765877446.536128,495
1765877446.536134,496
1765877446.53614,496
1765877446.536146,496
1765877446.5361521,496
1765877446.5361578,495
1765877446.536164,496
1765877446.53617,496
1765877446.5361762,496
1765877446.536182,496
1765877446.536188,496
1765877446.536194,496
1765877446.5361989,496
1765877446.536205,496
1765877446.536211,496
1765877446.536217,496
1765877446.536223,496
1765877446.5362282,496
1765877446.5362391,496
1765877446.536245,496
1765877446.53625,495
1765877446.536256,496
1765877446.5362618,497
1765877446.536268,495
1765877446.536274,495
1765877446.5362802,496
1765877446.5362859,496
1765877446.5362911,496
1765877446.536296,496
1765877446.536302,496
1765877446.536309,496
1765877446.536315,496
1765877446.536321,496
1765877446.536326,496
1765877446.5363321,496
1765877446.536337,496
1765877446.536343,497
1765877446.5363479,496
1765877446.536353,496
1765877446.5363588,497
1765877446.536364,497
1765877446.5363688,498
1765877446.536375,497
1765877446.5363798,497
1765877446.536387,497
1765877446.536393,497
1765877446.5363991,497
1765877446.536404,497
1765877446.5364091,497
1765877446.5364149,497
1765877446.53642,497
1765877446.5364249,496
1765877446.536431,497
1765877446.536436,496
1765877446.536441,497
1765877446.5364459,496
1765877446.536452,496
1765877446.536457,496
1765877446.536462,496
1765877446.536468,496
1765877446.536473,496
1765877446.536479,496
1765877446.536484,496
1765877446.53649,495
1765877446.5364962,496
1765877446.5365021,496
1765877446.5365078,496
1765877446.536514,496
1765877446.53652,496
1765877446.536526,496
1765877446.536532,495
1765877446.5365388,496
1765877446.536546,496
1765877446.536552,496
1765877446.5365582,496
1765877446.536563,496
1765877446.536569,496
1765877446.536575,496
1765877446.536581,496
1765877446.536587,496
1765877446.536593,496
1765877446.536599,496
1765877446.536605,496
1765877446.536611,496
1765877446.5366158,496
1765877446.536622,496
1765877446.536628,496
1765877446.5366342,496
1765877446.53664,495
1765877446.536646,496
1765877446.536652,496
1765877446.5366578,496
1765877446.536664,496
1765877446.53667,496
1765877446.536675,496
1765877446.536681,496
1765877446.5366871,496
1765877446.536693,496
1765877446.5367,496
1765877446.5367072,496
1765877446.536713,496
1765877446.536719,496
1765877446.536729,496
1765877446.536735,496
1765877446.536741,496
1765877446.536747,496
1765877446.536753,496
1765877446.5367591,495
1765877446.5367649,496
1765877446.536771,496
1765877446.536777,495
1765877446.536782,496
1765877446.536788,496
1765877446.5367942,496
1765877446.5368,496
1765877446.5368059,496
1765877446.536812,495
1765877446.536818,496
1765877446.536824,496
1765877446.53683,496
1765877446.5368361,496
1765877446.5368419,496
1765877446.5368478,496
