timestamp,emg_value
1765877485.56654,500
1765877485.566557,501
1765877485.5665689,501
1765877485.566578,502
1765877485.5666099,497
1765877485.566624,491
1765877485.566655,489
1765877485.566666,492
1765877485.566676,493
1765877485.566685,493
1765877485.5666938,494
1765877485.566703,494
1765877485.5667121,495
1765877485.5667222,493
1765877485.566731,492
1765877485.56674,496
1765877485.5667489,498
1765877485.5667598,498
1765877485.566769,500
1765877485.5667782,498
1765877485.566787,495
1765877485.566796,494
1765877485.566829,493
1765877485.566838,499
1765877485.566847,501
1765877485.566863,502
1765877485.566875,502
1765877485.566883,498
1765877485.5668921,493
1765877485.566901,490
1765877485.56691,492
1765877485.5669188,494
1765877485.566928,491
1765877485.5669398,491
1765877485.5669491,493
1765877485.5669582,495
1765877485.566967,497
1765877485.566976,498
1765877485.566985,499
1765877485.566994,493
1765877485.5670028,493
1765877485.567014,496
1765877485.567022,494
1765877485.5670311,494
1765877485.56704,496
1765877485.567049,497
1765877485.5670578,498
1765877485.567067,496
1765877485.5670762,493
1765877485.567084,493
1765877485.567093,493
1765877485.567104,493
1765877485.5671139,493
1765877485.567125,494
1765877485.567134,495
1765877485.567143,494
1765877485.567151,496
1765877485.5671601,498
1765877485.567169,498
1765877485.567178,494
1765877485.5671868,493
1765877485.567196,494
1765877485.5672052,493
1765877485.567214,494
1765877485.567223,494
1765877485.567251,494
1765877485.567261,495
1765877485.5672698,495
1765877485.567279,496
1765877485.5672882,495
1765877485.567296,496
1765877485.5673048,495
1765877485.567314,495
1765877485.5673249,497
1765877485.567334,500
1765877485.567343,499
1765877485.5673542,497
1765877485.567373,496
1765877485.567383,495
1765877485.567392,494
1765877485.567401,495
1765877485.56741,495
1765877485.5674188,495
1765877485.567428,496
1765877485.5674372,495
1765877485.567446,493
1765877485.567455,494
1765877485.5674639,493
1765877485.567473,497
1765877485.567482,496
1765877485.567491,497
1765877485.5675,495
1765877485.567511,495
1765877485.56754,493
1765877485.56755,493
1765877485.567559,495
1765877485.56757,497
1765877485.5675788,499
1765877485.567591,499
1765877485.5676,496
1765877485.567611,491
1765877485.567623,491
1765877485.567632,494
1765877485.567643,495
1765877485.5676532,495
1765877485.5676641,495
1765877485.5676732,497
1765877485.567682,497
1765877485.567691,500
1765877485.567727,498
1765877485.5677361,493
1765877485.567745,491
1765877485.567754,496
1765877485.567762,496
1765877485.567771,491
1765877485.56778,494
1765877485.567789,495
1765877485.567798,496
1765877485.567807,496
1765877485.567816,497
1765877485.5678248,494
1765877485.5678341,494
1765877485.567843,494
1765877485.567852,494
1765877485.567861,494
1765877485.56787,494
1765877485.567879,494
1765877485.5678878,498
1765877485.567897,500
1765877485.567925,501
1765877485.567935,499
1765877485.567944,493
1765877485.567952,493
1765877485.5679622,494
1765877485.567971,493
1765877485.567979,494
1765877485.567988,494
1765877485.567997,494
1765877485.5680058,492
1765877485.568015,494
1765877485.5680242,494
1765877485.568033,493
1765877485.568042,493
1765877485.5680509,495
1765877485.56806,495
1765877485.5680692,497
1765877485.568079,496
1765877485.568088,497
1765877485.568098,498
1765877485.568107,498
1765877485.568116,498
1765877485.5681238,500
1765877485.568133,499
1765877485.5681422,496
1765877485.568151,488
1765877485.568162,490
1765877485.568172,492
1765877485.568181,493
1765877485.5681899,493
1765877485.568199,494
1765877485.568208,494
1765877485.568217,494
1765877485.568226,494
1765877485.568235,493
1765877485.568244,495
1765877485.568253,496
1765877485.5682619,496
1765877485.5682712,496
1765877485.56828,495
1765877485.568288,498
1765877485.568297,500
1765877485.568306,501
1765877485.5683148,502
1765877485.568331,499
1765877485.56834,495
1765877485.568349,493
1765877485.568358,491
1765877485.568367,491
1765877485.568376,492
1765877485.568384,493
1765877485.568393,495
1765877485.568404,493
1765877485.568414,494
1765877485.5684228,494
1765877485.568432,495
1765877485.5684412,494
1765877485.568449,494
1765877485.568458,494
1765877485.5684679,495
1765877485.5684779,496
1765877485.568487,496
1765877485.5684962,498
1765877485.568504,497
1765877485.568513,498
1765877485.568522,500
1765877485.568531,497
1765877485.5685399,495
1765877485.5685492,495
1765877485.568558,494
1765877485.568567,494
1765877485.568576,494
1765877485.568585,493
1765877485.568594,493
1765877485.5686028,497
1765877485.568612,499
1765877485.5686212,495
1765877485.56863,496
1765877485.5686421,492
1765877485.568653,494
1765877485.568662,494
1765877485.568671,493
1765877485.56868,494
1765877485.5686889,493
1765877485.5686982,494
1765877485.568707,495
1765877485.568715,496
1765877485.568724,495
1765877485.568733,494
1765877485.5687418,494
1765877485.568751,494
1765877485.5687602,495
1765877485.568769,495
1765877485.568778,495
1765877485.568788,494
1765877485.5687969,494
1765877485.568806,495
1765877485.568815,495
1765877485.568824,495
1765877485.568832,495
1765877485.568841,496
1765877485.5688498,497
1765877485.5688589,497
1765877485.5688682,498
1765877485.568877,497
1765877485.56889,494
1765877485.5688992,492
1765877485.568908,494
1765877485.568917,496
1765877485.5689259,499
1765877485.568935,499
1765877485.5689442,500
1765877485.568952,499
1765877485.568961,500
1765877485.56897,501
1765877485.568979,500
1765877485.5689878,492
1765877485.5689971,487
1765877485.5690072,492
1765877485.569015,495
1765877485.569024,493
1765877485.569033,494
1765877485.569042,496
1765877485.5690508,498
1765877485.56906,498
1765877485.5690691,499
1765877485.569078,500
1765877485.569087,499
1765877485.5690958,496
1765877485.569105,497
1765877485.5691142,499
1765877485.569129,499
1765877485.56914,496
1765877485.56915,493
1765877485.569161,494
1765877485.56917,494
1765877485.5691788,495
1765877485.569188,495
1765877485.569197,495
1765877485.569206,494
1765877485.569215,493
1765877485.5692239,495
1765877485.569233,494
1765877485.569242,494
1765877485.569251,495
1765877485.5692601,496
1765877485.569269,496
1765877485.569278,497
1765877485.5692868,499
1765877485.569296,502
1765877485.569304,501
1765877485.569313,500
1765877485.5693219,499
1765877485.569331,499
1765877485.56934,496
1765877485.569349,496
1765877485.569358,495
1765877485.56937,494
1765877485.5693812,492
1765877485.56939,492
1765877485.569399,492
1765877485.56941,492
1765877485.569419,493
1765877485.569428,494
1765877485.569437,493
1765877485.5694451,492
1765877485.5694542,495
1765877485.569463,495
1765877485.569472,497
1765877485.569481,498
1765877485.56949,494
1765877485.5694988,492
1765877485.569508,494
1765877485.569516,495
1765877485.569525,495
1765877485.569534,495
1765877485.569543,495
1765877485.569552,496
1765877485.569561,496
1765877485.56957,494
1765877485.5695832,493
1765877485.569592,494
1765877485.569601,495
1765877485.5696099,494
1765877485.5696268,495
1765877485.5696352,495
1765877485.569644,495
1765877485.569653,495
1765877485.5696619,496
1765877485.569671,495
1765877485.56968,495
1765877485.569689,495
1765877485.569698,495
1765877485.569707,495
1765877485.569716,497
1765877485.569725,498
1765877485.5697339,497
1765877485.5697432,498
1765877485.569752,495
1765877485.569761,500
1765877485.56977,506
1765877485.569779,511
1765877485.5698009,508
1765877485.5698109,497
1765877485.56982,494
1765877485.5698292,489
1765877485.569838,490
1765877485.569848,492
1765877485.5698571,491
1765877485.569866,492
1765877485.5699189,493
1765877485.5699809,493
1765877485.569993,492
1765877485.5700018,492
1765877485.5700119,493
1765877485.5700212,494
1765877485.57003,496
1765877485.570039,495
1765877485.570048,496
1765877485.5700579,495
1765877485.570081,494
1765877485.57009,494
1765877485.5700989,497
1765877485.570108,499
1765877485.570118,501
1765877485.570127,502
1765877485.5701451,502
1765877485.570154,493
1765877485.570184,494
1765877485.570209,494
1765877485.570218,494
1765877485.570227,492
1765877485.570236,494
1765877485.570245,494
1765877485.570254,494
1765877485.5702631,493
1765877485.570274,493
1765877485.570283,494
1765877485.570292,494
1765877485.5703008,495
1765877485.5703099,494
1765877485.570318,494
1765877485.570327,494
1765877485.570336,495
1765877485.570345,494
1765877485.570354,495
1765877485.5703628,495
1765877485.570372,495
1765877485.5703812,497
1765877485.570389,497
1765877485.5703979,493
1765877485.5704079,493
1765877485.570417,494
1765877485.5704262,495
1765877485.570435,495
1765877485.570444,494
1765877485.570453,494
1765877485.570462,495
1765877485.5704708,495
1765877485.57048,494
1765877485.5704892,495
1765877485.570498,495
1765877485.570509,495
1765877485.570518,495
1765877485.570527,495
1765877485.570536,496
1765877485.570545,494
1765877485.570554,498
1765877485.570563,502
1765877485.5705721,504
1765877485.570581,504
1765877485.57059,501
1765877485.5705988,500
1765877485.5706081,496
1765877485.5706172,493
1765877485.570626,490
1765877485.570635,492
1765877485.570644,494
1765877485.570653,494
1765877485.570661,494
1765877485.570671,494
1765877485.5706801,495
1765877485.570688,495
1765877485.570697,494
1765877485.570706,497
1765877485.570715,500
1765877485.570724,496
1765877485.570733,493
1765877485.570743,493
1765877485.570753,493
1765877485.570761,492
1765877485.57077,493
1765877485.5707788,493
1765877485.5707881,495
1765877485.570797,494
1765877485.570806,494
1765877485.570815,496
1765877485.570824,498
1765877485.570833,499
1765877485.570842,498
1765877485.570851,494
1765877485.570859,495
1765877485.570868,496
1765877485.5708768,495
1765877485.570886,496
1765877485.5708952,498
1765877485.570904,497
1765877485.570913,491
1765877485.570922,493
1765877485.570931,494
1765877485.5709388,494
1765877485.5709481,493
1765877485.570957,494
1765877485.570966,494
1765877485.570977,494
1765877485.570987,495
1765877485.570996,495
1765877485.5710049,495
1765877485.571014,495
1765877485.571023,495
1765877485.571032,495
1765877485.571041,495
1765877485.571049,494
1765877485.571058,494
1765877485.5710669,494
1765877485.5710762,494
1765877485.571085,495
1765877485.571094,495
1765877485.571109,495
1765877485.571118,495
1765877485.571127,495
1765877485.571136,494
1765877485.571145,495
1765877485.5711539,494
1765877485.571163,495
1765877485.571172,495
1765877485.571181,495
1765877485.571189,496
1765877485.571198,496
1765877485.5712068,495
1765877485.571219,495
1765877485.571229,495
1765877485.571237,495
1765877485.571245,497
1765877485.571253,498
1765877485.571261,498
1765877485.571269,498
1765877485.5712771,499
1765877485.571285,495
1765877485.571294,498
1765877485.571302,499
1765877485.571311,498
1765877485.571319,490
1765877485.571327,491
1765877485.5713348,493
1765877485.5713432,493
1765877485.571351,493
1765877485.571359,494
1765877485.571367,497
1765877485.5713751,497
1765877485.571383,497
1765877485.5713909,497
1765877485.5714,498
1765877485.5714078,495
1765877485.5714161,494
1765877485.571424,494
1765877485.5714319,492
1765877485.571445,494
1765877485.5714529,493
1765877485.5714612,494
1765877485.571469,495
1765877485.571477,495
1765877485.571485,494
1765877485.5714931,495
1765877485.571501,496
1765877485.571509,498
1765877485.571517,500
1765877485.5715258,498
1765877485.5715342,497
1765877485.571542,496
1765877485.571658,492
1765877485.571668,491
1765877485.571677,492
1765877485.5716858,493
1765877485.571696,495
1765877485.5717142,496
1765877485.571723,496
1765877485.571732,497
1765877485.57174,495
1765877485.571748,495
1765877485.571757,498
1765877485.571765,499
1765877485.571774,497
1765877485.571785,493
1765877485.571794,493
1765877485.5718021,494
1765877485.57181,493
1765877485.5718179,493
1765877485.571826,495
1765877485.571834,497
1765877485.5718431,499
1765877485.571862,501
1765877485.571872,502
1765877485.5718799,497
1765877485.5718882,491
1765877485.571896,497
1765877485.571904,497
1765877485.571913,496
1765877485.5719209,493
1765877485.571929,492
1765877485.571937,492
1765877485.571946,492
1765877485.571954,493
1765877485.571962,494
1765877485.5719879,495
1765877485.572031,496
1765877485.572047,496
1765877485.5720599,496
1765877485.572072,496
1765877485.572097,495
1765877485.572106,494
1765877485.572114,495
1765877485.5721228,495
1765877485.5721312,495
1765877485.57214,496
1765877485.572157,494
1765877485.572167,494
1765877485.572194,494
1765877485.572203,495
1765877485.572212,496
1765877485.5722198,496
1765877485.5722282,495
1765877485.572236,494
1765877485.572244,495
1765877485.572253,495
1765877485.572261,496
1765877485.572269,496
1765877485.572278,496
1765877485.572286,495
1765877485.572294,495
1765877485.572303,495
1765877485.572311,496
1765877485.572319,496
1765877485.572327,496
1765877485.572335,495
1765877485.572347,495
1765877485.572356,492
1765877485.572364,494
1765877485.572372,495
1765877485.5723798,495
1765877485.5723891,496
1765877485.572397,495
1765877485.572405,494
1765877485.572413,493
1765877485.5724218,494
1765877485.5724301,496
1765877485.572438,498
1765877485.5724459,497
1765877485.572454,497
1765877485.572462,497
1765877485.5724711,493
1765877485.572479,495
1765877485.5724869,496
1765877485.572496,495
1765877485.572505,494
1765877485.572513,496
1765877485.572521,496
1765877485.57253,495
1765877485.5725381,496
1765877485.572546,496
1765877485.5725539,495
1765877485.572566,496
1765877485.572574,498
1765877485.572582,498
1765877485.572591,499
1765877485.572601,498
1765877485.572609,495
1765877485.572617,493
1765877485.572625,494
1765877485.5726342,494
1765877485.572642,494
1765877485.57265,496
1765877485.572659,497
1765877485.572667,497
1765877485.572675,496
1765877485.572683,497
1765877485.572692,497
1765877485.5726998,497
1765877485.5727081,497
1765877485.572716,493
1765877485.5727239,494
1765877485.572733,494
1765877485.572741,495
1765877485.57275,496
1765877485.572758,495
1765877485.572766,496
1765877485.572774,497
1765877485.572785,499
1765877485.5727942,495
1765877485.572802,495
1765877485.57281,495
1765877485.5728178,495
1765877485.5728261,495
1765877485.572835,496
1765877485.572843,495
1765877485.572851,496
1765877485.5728588,496
1765877485.5728672,497
1765877485.572876,498
1765877485.572884,499
1765877485.572892,495
1765877485.5729,496
1765877485.572909,497
1765877485.572917,493
1765877485.572926,494
1765877485.572934,497
1765877485.572942,496
1765877485.5729501,494
1765877485.5729668,494
1765877485.5729752,495
1765877485.572984,495
1765877485.572992,496
1765877485.573,496
1765877485.573011,493
1765877485.573021,494
1765877485.57303,494
1765877485.573038,494
1765877485.573046,495
1765877485.5730538,498
1765877485.573062,500
1765877485.57307,500
1765877485.573079,499
1765877485.573087,494
1765877485.5730948,494
1765877485.5731032,493
1765877485.573111,492
1765877485.57312,492
1765877485.573128,494
1765877485.5731359,495
1765877485.573144,497
1765877485.573152,498
1765877485.57316,497
1765877485.573168,494
1765877485.5731761,494
1765877485.573185,495
1765877485.573193,495
1765877485.573201,495
1765877485.573209,495
1765877485.573218,494
1765877485.573226,495
1765877485.573239,496
1765877485.573247,496
1765877485.573256,495
1765877485.573264,495
1765877485.573272,494
1765877485.57328,495
1765877485.573288,494
1765877485.573296,496
1765877485.5733042,496
1765877485.573312,495
1765877485.57332,495
1765877485.573329,495
1765877485.573337,496
1765877485.573345,498
1765877485.573353,498
1765877485.573361,500
1765877485.573369,503
1765877485.5733771,500
1765877485.573386,495
1765877485.5733938,493
1765877485.5734022,495
1765877485.57341,492
1765877485.57343,493
1765877485.573438,494
1765877485.5734458,494
1765877485.573455,492
1765877485.573466,494
1765877485.573476,495
1765877485.573484,495
1765877485.573492,494
1765877485.573508,494
1765877485.573517,495
1765877485.573525,493
1765877485.5735328,494
1765877485.5735419,495
1765877485.57355,495
1765877485.573558,496
1765877485.573567,498
1765877485.573575,499
1765877485.5735831,497
1765877485.573591,497
1765877485.5736,495
1765877485.573608,495
1765877485.573616,494
1765877485.573625,494
1765877485.573633,493
1765877485.573641,494
1765877485.573649,495
1765877485.573657,494
1765877485.573666,495
1765877485.573674,497
1765877485.5736818,498
1765877485.573693,500
1765877485.573709,499
1765877485.5737169,495
1765877485.573726,493
1765877485.5737338,493
1765877485.5737422,492
1765877485.573751,495
1765877485.573759,495
1765877485.573767,496
1765877485.573775,496
1765877485.573783,494
1765877485.573792,494
1765877485.5737998,495
1765877485.5738082,496
1765877485.573817,494
1765877485.5738251,496
1765877485.573833,496
1765877485.5738409,495
1765877485.5738502,495
1765877485.573858,496
1765877485.573866,496
1765877485.573875,495
1765877485.5738828,495
1765877485.5738912,495
1765877485.5739,495
1765877485.5739079,494
1765877485.573916,494
1765877485.573931,494
1765877485.57394,494
1765877485.573948,495
1765877485.5739572,498
1765877485.573966,498
1765877485.5739741,499
1765877485.573982,500
1765877485.573992,498
1765877485.574002,497
1765877485.5740108,497
1765877485.574019,498
1765877485.574027,496
1765877485.574036,493
1765877485.574044,494
1765877485.574052,496
1765877485.57406,492
1765877485.5740778,492
1765877485.574087,494
1765877485.574095,494
1765877485.574104,495
1765877485.574112,495
1765877485.57412,494
1765877485.5741289,494
1765877485.574137,495
1765877485.574145,496
1765877485.574154,496
1765877485.574165,497
1765877485.574176,496
1765877485.574185,492
1765877485.574193,494
1765877485.574201,496
1765877485.5742102,496
1765877485.574218,495
1765877485.574226,495
1765877485.574234,493
1765877485.574243,494
1765877485.574251,494
1765877485.574259,494
1765877485.574267,494
1765877485.5742788,495
1765877485.5742872,494
1765877485.574296,494
1765877485.574304,494
1765877485.574312,495
1765877485.57432,496
1765877485.574328,496
1765877485.574336,496
1765877485.574344,496
1765877485.5743518,495
1765877485.574361,496
1765877485.574369,495
1765877485.574377,499
1765877485.574385,501
1765877485.574398,499
1765877485.574406,496
1765877485.574414,498
1765877485.5744221,495
1765877485.57443,495
1765877485.5744379,492
1765877485.574446,489
1765877485.574454,492
1765877485.574462,494
1765877485.574471,494
1765877485.574479,493
1765877485.574487,495
1765877485.574495,494
1765877485.574503,495
1765877485.574511,494
1765877485.5745192,494
1765877485.574527,494
1765877485.574535,494
1765877485.574543,495
1765877485.574551,495
1765877485.574559,495
1765877485.574568,495
1765877485.5745761,495
1765877485.574584,495
1765877485.574592,497
1765877485.5746,495
1765877485.574611,498
1765877485.574622,498
1765877485.5746298,495
1765877485.5746381,493
1765877485.574646,496
1765877485.5746539,495
1765877485.574662,493
1765877485.57467,494
1765877485.574678,494
1765877485.574686,494
1765877485.574694,494
1765877485.5747032,495
1765877485.574711,494
1765877485.574719,494
1765877485.5747268,495
1765877485.5747352,496
1765877485.574743,496
1765877485.574752,497
1765877485.57476,497
1765877485.574768,493
1765877485.5747762,493
1765877485.574784,494
1765877485.574792,494
1765877485.574801,494
1765877485.57481,494
1765877485.5748181,495
1765877485.574829,495
1765877485.574839,497
1765877485.574847,495
1765877485.5748549,494
1765877485.574864,494
1765877485.574872,495
1765877485.57488,495
1765877485.574888,495
1765877485.574896,496
1765877485.5749052,496
1765877485.574913,495
1765877485.574921,495
1765877485.574929,496
1765877485.574937,498
1765877485.574945,500
1765877485.5749528,499
1765877485.574961,495
1765877485.57497,493
1765877485.574978,491
1765877485.574986,492
1765877485.5749938,493
1765877485.5750022,494
1765877485.57501,495
1765877485.5750191,494
1765877485.575027,494
1765877485.5750349,495
1765877485.575043,495
1765877485.5750542,496
1765877485.5750651,494
1765877485.575073,492
1765877485.5750809,494
1765877485.575089,494
1765877485.575097,494
1765877485.5751061,494
1765877485.575114,495
1765877485.5751219,495
1765877485.5751302,495
1765877485.575138,495
1765877485.575146,495
1765877485.575155,494
1765877485.575163,494
1765877485.575171,495
1765877485.575179,493
1765877485.575187,493
1765877485.5751958,493
1765877485.5752041,495
1765877485.575212,494
1765877485.5752199,495
1765877485.575228,494
1765877485.575236,496
1765877485.5752451,497
1765877485.575253,497
1765877485.5752609,496
1765877485.5752718,496
1765877485.5752819,495
1765877485.575291,493
1765877485.575299,494
1765877485.575307,495
1765877485.575315,495
1765877485.5753229,495
1765877485.575331,497
1765877485.575339,496
1765877485.575347,496
1765877485.5753548,496
1765877485.5753632,494
1765877485.575372,491
1765877485.57538,493
1765877485.575388,494
1765877485.575396,494
1765877485.575404,494
1765877485.575412,494
1765877485.5754209,495
1765877485.5754292,494
1765877485.575437,494
1765877485.575445,494
1765877485.575453,495
1765877485.5754611,494
1765877485.575469,494
1765877485.575477,495
1765877485.575486,495
1765877485.5754979,495
1765877485.575506,494
1765877485.5755148,494
1765877485.5755231,495
1765877485.575531,495
1765877485.5755389,495
1765877485.575547,495
1765877485.575556,496
1765877485.5755641,496
1765877485.575572,498
1765877485.57558,500
1765877485.575588,499
1765877485.575596,496
1765877485.575605,496
1765877485.575613,495
1765877485.5756211,494
1765877485.575629,495
1765877485.575638,497
1765877485.575646,497
1765877485.5756538,498
1765877485.5756621,498
1765877485.57567,495
1765877485.575679,493
1765877485.575687,494
1765877485.575695,496
1765877485.5757031,496
1765877485.575714,497
1765877485.575725,496
1765877485.575733,495
1765877485.575742,494
1765877485.5757508,494
1765877485.5757592,494
1765877485.575767,494
1765877485.575775,494
1765877485.575783,494
1765877485.575792,495
1765877485.5758002,495
1765877485.575808,495
1765877485.575816,495
1765877485.5758238,495
1765877485.575833,495
1765877485.575841,494
1765877485.575849,493
1765877485.575857,493
1765877485.575865,494
1765877485.5758731,494
1765877485.575882,496
1765877485.5758898,495
1765877485.5758982,496
1765877485.575906,495
1765877485.575915,496
1765877485.575923,495
1765877485.575934,495
1765877485.575944,495
1765877485.5759518,494
1765877485.5759602,494
1765877485.575969,493
1765877485.5759768,493
1765877485.575985,495
1765877485.575993,496
1765877485.576001,497
1765877485.576009,495
1765877485.5760179,495
1765877485.5760262,495
1765877485.576034,495
1765877485.576042,495
1765877485.576051,495
1765877485.5760589,495
1765877485.576067,495
1765877485.576075,493
1765877485.576084,493
1765877485.576092,492
1765877485.5761,492
1765877485.576108,494
1765877485.576117,494
1765877485.576125,495
1765877485.576133,495
1765877485.576142,495
1765877485.57615,496
1765877485.576162,495
1765877485.576172,495
1765877485.57618,495
1765877485.5761878,496
1765877485.5761962,495
1765877485.576204,495
1765877485.576213,495
1765877485.576221,495
1765877485.576229,494
1765877485.576237,494
1765877485.576245,495
1765877485.576253,494
1765877485.576262,495
1765877485.57627,495
1765877485.576278,495
1765877485.5762858,495
1765877485.576294,494
1765877485.576302,495
1765877485.576311,495
1765877485.576319,496
1765877485.5763268,495
1765877485.5763352,495
1765877485.576343,494
1765877485.576352,495
1765877485.57636,494
1765877485.576368,494
1765877485.5763788,494
1765877485.5763881,495
1765877485.576397,495
1765877485.576405,495
1765877485.576415,495
1765877485.576423,495
1765877485.5764322,495
1765877485.57644,496
1765877485.576448,496
1765877485.5764558,494
1765877485.576465,494
1765877485.576473,495
1765877485.576481,494
1765877485.576489,494
1765877485.576498,496
1765877485.5765061,495
1765877485.576514,494
1765877485.5765219,494
1765877485.57653,495
1765877485.576542,495
1765877485.57655,495
1765877485.576558,495
1765877485.576566,494
1765877485.576575,494
1765877485.576583,494
1765877485.576591,495
1765877485.5766,494
1765877485.576611,496
1765877485.576621,495
1765877485.57663,495
1765877485.576639,495
1765877485.5766468,494
1765877485.5766551,494
1765877485.576663,494
1765877485.576672,494
1765877485.57668,494
1765877485.576688,494
1765877485.576697,494
1765877485.576705,494
1765877485.5767128,495
1765877485.576721,495
1765877485.57673,495
1765877485.576738,495
1765877485.576746,495
1765877485.5767539,495
1765877485.576763,494
1765877485.576771,495
1765877485.5767791,494
1765877485.576787,494
1765877485.5767958,494
1765877485.5768042,494
1765877485.576812,495
1765877485.576821,494
1765877485.57683,494
1765877485.576842,495
1765877485.576853,495
1765877485.576878,495
1765877485.576888,495
1765877485.576951,495
1765877485.57696,495
1765877485.5769951,495
1765877485.5770051,495
1765877485.577013,494
1765877485.5770361,494
1765877485.577046,495
1765877485.577054,494
1765877485.577062,495
1765877485.57707,496
1765877485.577079,495
1765877485.577087,495
1765877485.5770948,495
1765877485.5771031,496
1765877485.577112,495
1765877485.577152,495
1765877485.577159,495
1765877485.577167,495
1765877485.5771751,494
1765877485.577182,495
1765877485.57719,495
1765877485.577198,495
1765877485.577205,495
1765877485.577215,495
1765877485.577225,495
1765877485.577232,495
1765877485.57724,495
1765877485.5772538,495
1765877485.5772622,495
1765877485.57727,495
1765877485.577277,495
1765877485.577285,496
1765877485.5772932,495
1765877485.5773,494
1765877485.577308,495
1765877485.577316,494
1765877485.577323,495
1765877485.5773308,495
1765877485.577339,494
1765877485.577346,494
1765877485.577354,494
1765877485.5773609,495
1765877485.577369,494
1765877485.577377,494
1765877485.577385,495
1765877485.5773928,496
1765877485.577544,495
1765877485.5775628,495
1765877485.5775821,495
1765877485.5775921,495
1765877485.577601,495
1765877485.5776079,494
1765877485.577616,494
1765877485.577624,495
1765877485.577631,495
1765877485.577698,495
1765877485.577714,495
1765877485.577728,494
1765877485.57774,495
1765877485.577753,495
1765877485.5777652,494
1765877485.5777879,495
1765877485.577796,495
1765877485.577804,495
1765877485.577812,495
1765877485.5778189,495
1765877485.577827,496
1765877485.577834,495
1765877485.577842,495
1765877485.57785,495
1765877485.577857,495
1765877485.577874,495
1765877485.577881,495
1765877485.577889,495
1765877485.5779252,495
1765877485.5779321,495
1765877485.57796,495
1765877485.577976,495
1765877485.5779982,495
1765877485.578006,495
1765877485.578014,495
1765877485.578022,495
1765877485.5780292,495
1765877485.578037,494
1765877485.578044,495
1765877485.578052,495
1765877485.578059,495
1765877485.5780668,495
1765877485.5780742,495
1765877485.57811,495
1765877485.578124,494
1765877485.5781372,494
1765877485.578149,495
1765877485.578163,496
1765877485.578175,495
1765877485.578188,496
1765877485.5782,496
1765877485.578273,495
1765877485.5782888,495
1765877485.578302,495
1765877485.5784278,494
1765877485.578464,494
1765877485.578482,495
1765877485.578497,495
1765877485.57851,494
1765877485.578523,494
1765877485.578536,494
1765877485.578549,495
1765877485.578562,495
1765877485.5787368,495
1765877485.5787442,495
1765877485.578752,495
1765877485.578759,495
1765877485.578767,495
1765877485.578774,495
1765877485.5787818,495
1765877485.5787892,495
1765877485.578797,495
1765877485.578804,495
1765877485.578811,495
1765877485.578846,495
1765877485.5788548,494
1765877485.5788631,494
1765877485.578871,493
1765877485.5788789,494
1765877485.5788858,496
1765877485.578945,494
1765877485.578957,494
1765877485.578967,494
1765877485.578977,494
1765877485.578985,495
1765877485.5789921,495
1765877485.579,495
1765877485.579007,496
1765877485.579015,496
1765877485.5790231,495
1765877485.57903,495
1765877485.579038,495
1765877485.579045,495
1765877485.579055,495
1765877485.579063,495
1765877485.579071,495
1765877485.579078,495
1765877485.579086,495
1765877485.579093,496
1765877485.5791008,495
1765877485.579108,495
1765877485.5791209,495
1765877485.579129,494
1765877485.579146,495
1765877485.5791948,496
1765877485.579204,496
1765877485.579211,495
1765877485.579228,495
1765877485.579236,496
1765877485.579246,495
1765877485.579254,494
1765877485.5792608,494
1765877485.5792692,494
1765877485.579276,494
1765877485.579284,495
1765877485.5792909,495
1765877485.579299,495
1765877485.579306,495
1765877485.579316,494
1765877485.579326,494
1765877485.579335,494
1765877485.579343,495
1765877485.57935,495
1765877485.5793579,496
1765877485.579365,497
1765877485.5793731,498
1765877485.57938,497
1765877485.579387,496
1765877485.5794141,494
1765877485.579422,493
1765877485.5794299,494
1765877485.579437,495
1765877485.579445,495
1765877485.5794518,494
1765877485.5794601,494
1765877485.5794702,495
1765877485.579478,495
1765877485.579486,494
1765877485.579494,495
1765877485.5795012,495
1765877485.579509,496
1765877485.579516,496
1765877485.579524,495
1765877485.5795321,495
1765877485.579539,495
1765877485.579547,495
1765877485.579554,496
1765877485.579562,496
1765877485.5795689,497
1765877485.579577,497
1765877485.579584,497
1765877485.579592,495
1765877485.5795999,493
1765877485.579607,494
1765877485.5796149,495
1765877485.579624,495
1765877485.579632,496
1765877485.579639,496
1765877485.579647,496
1765877485.579655,496
1765877485.579662,497
1765877485.57967,496
1765877485.579695,495
1765877485.579703,497
1765877485.579711,497
1765877485.5797179,495
1765877485.579726,495
1765877485.579733,496
1765877485.579741,496
1765877485.579749,496
1765877485.579756,496
1765877485.579764,495
1765877485.579772,495
1765877485.5797791,495
1765877485.579787,496
1765877485.579795,495
1765877485.579802,495
1765877485.5798101,495
1765877485.579818,495
1765877485.579825,495
1765877485.579833,496
1765877485.57984,495
1765877485.579848,495
1765877485.5798552,495
1765877485.579863,495
1765877485.579871,495
1765877485.5798779,495
1765877485.5798862,495
1765877485.579898,495
1765877485.5799081,495
1765877485.579915,494
1765877485.579923,495
1765877485.5799308,495
1765877485.579938,495
1765877485.579946,495
1765877485.579954,495
1765877485.579961,496
1765877485.579969,495
1765877485.579977,495
1765877485.579985,495
1765877485.579993,495
1765877485.58,495
1765877485.580008,496
1765877485.5800152,496
1765877485.580023,496
1765877485.58003,495
1765877485.5800378,494
1765877485.5800462,495
1765877485.580053,494
1765877485.580061,495
1765877485.580068,495
1765877485.580076,494
1765877485.580083,494
1765877485.5800908,494
1765877485.580099,494
1765877485.580112,494
1765877485.58012,494
1765877485.580127,495
1765877485.5801349,495
1765877485.580142,495
1765877485.5801501,495
1765877485.580158,495
1765877485.5801651,495
1765877485.580173,494
1765877485.580181,494
1765877485.5801878,494
1765877485.5801961,495
1765877485.580203,495
1765877485.580211,495
1765877485.5802188,495
1765877485.580226,496
1765877485.580234,495
1765877485.580241,496
1765877485.580249,495
1765877485.580257,495
1765877485.580265,495
1765877485.5802722,495
1765877485.58028,494
1765877485.580287,494
1765877485.5802948,494
1765877485.580302,494
1765877485.580317,495
1765877485.5803258,495
1765877485.5803342,495
1765877485.580341,495
1765877485.580349,495
1765877485.580357,495
1765877485.580364,495
1765877485.5803719,495
1765877485.58038,495
1765877485.580387,495
1765877485.580399,495
1765877485.5804071,496
1765877485.580416,495
1765877485.5804229,495
1765877485.5804312,497
1765877485.580439,496
1765877485.580446,496
1765877485.5804539,496
1765877485.580462,497
1765877485.580469,497
1765877485.580477,496
1765877485.580485,495
1765877485.580492,495
1765877485.5805,496
1765877485.5805068,495
1765877485.5805151,494
1765877485.580523,494
1765877485.5805361,494
1765877485.580544,493
1765877485.580554,493
1765877485.5805619,494
1765877485.5805702,495
1765877485.5805771,495
1765877485.580585,495
1765877485.5805922,496
1765877485.5806,496
1765877485.580608,495
1765877485.5806148,495
1765877485.5806231,494
1765877485.580631,495
1765877485.580641,495
1765877485.580649,495
1765877485.580656,495
1765877485.5806642,496
1765877485.580671,496
1765877485.580679,496
1765877485.580687,497
1765877485.580694,497
1765877485.580702,497
1765877485.58071,497
1765877485.580717,495
1765877485.580725,495
1765877485.5807319,494
1765877485.5807402,493
1765877485.580748,494
1765877485.580757,494
1765877485.580767,494
1765877485.580775,494
1765877485.5807831,494
1765877485.58079,493
1765877485.580798,494
1765877485.5808058,495
1765877485.5808132,496
1765877485.580821,496
1765877485.580828,496
1765877485.580836,496
1765877485.580844,495
1765877485.580852,495
1765877485.580859,495
1765877485.580867,493
1765877485.580875,494
1765877485.5808818,495
1765877485.5808902,495
1765877485.580898,494
1765877485.580905,495
1765877485.5809128,496
1765877485.58092,497
1765877485.580928,496
1765877485.580935,495
1765877485.580943,496
1765877485.580951,495
1765877485.580958,494
1765877485.5809689,494
1765877485.580978,494
1765877485.580986,495
1765877485.580993,495
1765877485.581001,495
1765877485.581009,496
1765877485.581016,496
1765877485.581024,496
1765877485.5810308,495
1765877485.5810392,495
1765877485.581047,495
1765877485.581054,495
1765877485.5810618,495
1765877485.5810702,495
1765877485.581078,494
1765877485.581086,494
1765877485.5810938,493
1765877485.581101,494
1765877485.581109,495
1765877485.581117,497
1765877485.581125,498
1765877485.581132,497
1765877485.58114,496
1765877485.581148,495
1765877485.581155,496
1765877485.581163,495
1765877485.5811698,494
1765877485.5811799,495
1765877485.5811892,496
1765877485.581198,495
1765877485.581205,495
1765877485.581213,494
1765877485.5812201,495
1765877485.581228,495
1765877485.581235,496
1765877485.5812428,495
1765877485.5812511,495
1765877485.581258,496
1765877485.581266,495
1765877485.581274,495
1765877485.581281,495
1765877485.581289,495
1765877485.5812962,494
1765877485.581304,495
1765877485.581311,494
1765877485.5813189,493
1765877485.5813272,494
1765877485.581334,494
1765877485.581342,496
1765877485.5813498,495
1765877485.581357,496
1765877485.581366,497
1765877485.581374,497
1765877485.5813818,497
1765877485.5813918,497
1765877485.581399,497
1765877485.581409,499
1765877485.581416,498
1765877485.5814242,495
1765877485.581432,493
1765877485.581439,493
1765877485.581447,493
1765877485.581455,495
1765877485.581462,495
1765877485.58147,495
1765877485.5814772,495
1765877485.581485,496
1765877485.581493,496
1765877485.5814998,495
1765877485.5815082,496
1765877485.581516,496
1765877485.581523,497
1765877485.5815308,498
1765877485.5815392,499
1765877485.581546,497
1765877485.581554,496
1765877485.581562,495
1765877485.5815701,494
1765877485.581578,495
1765877485.581585,494
1765877485.581593,493
1765877485.581603,494
1765877485.581612,495
1765877485.581621,496
1765877485.5816278,496
1765877485.5816362,495
1765877485.581644,494
1765877485.5816529,494
1765877485.581661,495
1765877485.5816681,496
1765877485.581676,495
1765877485.5816839,494
1765877485.5816908,495
1765877485.5816991,496
1765877485.581706,497
1765877485.581714,498
1765877485.581722,496
1765877485.581729,494
1765877485.581737,496
1765877485.581745,495
1765877485.581752,495
1765877485.58176,496
1765877485.581768,496
1765877485.5817752,495
1765877485.581783,494
1765877485.581791,495
1765877485.5817978,496
1765877485.5818062,496
1765877485.581816,496
1765877485.581825,496
1765877485.581833,495
1765877485.581841,496
1765877485.581849,496
1765877485.581857,496
1765877485.581865,496
1765877485.5818722,496
1765877485.58188,496
1765877485.581888,496
1765877485.5818949,496
1765877485.5819032,496
1765877485.581912,495
1765877485.581919,495
1765877485.5819268,495
1765877485.5819352,496
1765877485.581942,495
1765877485.58195,495
1765877485.5819578,496
1765877485.581965,495
1765877485.581973,495
1765877485.581981,495
1765877485.581988,495
1765877485.581996,495
1765877485.582004,495
1765877485.582012,495
1765877485.582019,496
1765877485.582029,495
1765877485.582037,496
1765877485.582046,495
1765877485.582054,495
1765877485.582062,496
1765877485.582069,496
1765877485.582077,496
1765877485.5820851,495
1765877485.582092,495
1765877485.5821,494
1765877485.5821068,495
1765877485.5821152,495
1765877485.582123,495
1765877485.582131,495
1765877485.582138,495
1765877485.582146,496
1765877485.5821528,496
1765877485.582161,496
1765877485.582169,496
1765877485.582176,496
1765877485.5821838,496
1765877485.5821922,496
1765877485.582199,495
1765877485.582207,495
1765877485.5822148,495
1765877485.582222,495
1765877485.58223,496
1765877485.5822442,495
1765877485.582252,495
1765877485.582262,495
1765877485.58227,495
1765877485.5822778,495
1765877485.5822852,495
1765877485.582293,496
1765877485.582301,495
1765877485.582308,496
1765877485.582316,496
1765877485.5823228,495
1765877485.582331,495
1765877485.582339,495
1765877485.582346,495
1765877485.5823538,495
1765877485.582361,496
1765877485.582369,496
1765877485.582377,495
1765877485.5823848,495
1765877485.5823932,495
1765877485.5824,496
1765877485.582408,496
1765877485.582415,496
1765877485.582423,496
1765877485.582431,496
1765877485.582439,496
1765877485.582446,497
1765877485.582456,497
1765877485.582465,497
1765877485.582473,496
1765877485.582481,497
1765877485.582488,497
1765877485.582496,497
1765877485.582504,496
1765877485.5825121,496
1765877485.582519,497
1765877485.582527,496
1765877485.5825338,495
1765877485.5825422,496
1765877485.582549,495
1765877485.582557,495
1765877485.582565,495
1765877485.582572,496
1765877485.5825799,496
1765877485.5825868,496
1765877485.582595,496
1765877485.582602,496
1765877485.58261,496
1765877485.582618,496
1765877485.582625,496
1765877485.582633,496
1765877485.582641,496
1765877485.582648,496
1765877485.582656,496
1765877485.582668,496
1765877485.582676,496
1765877485.582686,496
1765877485.5826938,496
1765877485.5827022,496
1765877485.58271,496
1765877485.582718,495
1765877485.582726,496
1765877485.5827332,496
1765877485.582741,496
1765877485.582749,496
1765877485.5827572,495
1765877485.582765,496
1765877485.582772,496
1765877485.58278,496
1765877485.582788,496
1765877485.582795,496
1765877485.582803,496
1765877485.5828109,496
1765877485.582818,496
1765877485.582826,496
1765877485.582834,496
1765877485.582842,496
1765877485.582849,495
1765877485.582857,495
1765877485.582865,494
1765877485.582873,494
1765877485.5828831,495
1765877485.582891,495
1765877485.582902,496
1765877485.58291,497
1765877485.5829172,496
1765877485.582925,496
1765877485.582932,496
1765877485.5829399,495
1765877485.5829482,495
1765877485.5829551,496
1765877485.582963,495
1765877485.5829709,495
1765877485.582978,496
1765877485.5829859,496
1765877485.582994,495
1765877485.583002,496
1765877485.583009,496
1765877485.583083,496
1765877485.583091,496
1765877485.583099,496
1765877485.583106,496
1765877485.583113,495
1765877485.583146,495
1765877485.583154,495
1765877485.583161,496
1765877485.583168,496
1765877485.583175,496
1765877485.58319,496
1765877485.583199,496
1765877485.583206,496
1765877485.583213,496
1765877485.58322,497
1765877485.5832279,497
1765877485.583236,497
1765877485.583243,496
1765877485.5832498,495
1765877485.5832572,496
1765877485.583265,496
1765877485.583272,496
1765877485.5832791,495
1765877485.583287,495
1765877485.583294,496
1765877485.5833092,495
1765877485.583343,496
1765877485.583361,495
1765877485.583373,496
1765877485.5833862,496
1765877485.5833979,496
1765877485.583411,496
1765877485.583423,495
1765877485.58345,496
1765877485.583457,496
1765877485.583464,496
1765877485.583472,496
1765877485.583482,496
1765877485.583489,495
1765877485.5834959,496
1765877485.583503,495
1765877485.583512,495
1765877485.58352,495
1765877485.583528,496
1765877485.5835352,495
1765877485.583542,495
1765877485.583549,496
1765877485.5835562,495
1765877485.583563,495
1765877485.583571,496
1765877485.583578,496
1765877485.583606,496
1765877485.583613,495
1765877485.58362,496
1765877485.583634,496
1765877485.583642,495
1765877485.583649,496
1765877485.5836558,495
1765877485.583663,496
1765877485.58367,496
1765877485.5836768,495
1765877485.5836842,496
1765877485.583692,495
1765877485.583701,495
1765877485.5837078,495
1765877485.583715,495
1765877485.583723,495
1765877485.58373,495
1765877485.5837371,495
1765877485.583744,495
1765877485.583751,496
1765877485.583758,496
1765877485.583765,496
1765877485.583772,496
1765877485.58378,496
1765877485.583787,495
1765877485.5837939,496
1765877485.583801,496
1765877485.583808,496
1765877485.5838149,496
1765877485.583822,496
1765877485.583829,496
1765877485.583838,496
1765877485.5838451,495
1765877485.583852,495
1765877485.583859,496
1765877485.5838661,496
1765877485.583873,495
1765877485.58388,495
1765877485.583889,496
1765877485.583898,496
1765877485.583905,496
1765877485.583912,496
1765877485.583919,496
1765877485.583926,496
1765877485.5839329,495
1765877485.5839412,495
1765877485.5839481,496
1765877485.583955,495
1765877485.5839622,496
1765877485.583969,495
1765877485.583976,496
1765877485.5839832,495
1765877485.583991,495
1765877485.583998,495
1765877485.584005,495
1765877485.584012,495
1765877485.58402,495
1765877485.5840268,496
1765877485.584034,495
1765877485.584042,495
1765877485.584049,495
1765877485.5840561,495
1765877485.584063,495
1765877485.58407,496
1765877485.584079,495
1765877485.5840871,495
1765877485.584094,496
1765877485.5841012,496
1765877485.584108,496
1765877485.584116,496
1765877485.584123,496
1765877485.58413,496
1765877485.584137,496
1765877485.5841439,496
1765877485.584152,496
1765877485.584159,496
1765877485.5841658,496
1765877485.584173,496
1765877485.5841799,496
1765877485.5841868,496
1765877485.5841951,495
1765877485.584202,495
1765877485.584209,496
1765877485.584216,496
1765877485.584223,495
1765877485.58423,495
1765877485.584238,496
1765877485.584245,495
1765877485.5842519,495
1765877485.584259,496
1765877485.584266,495
1765877485.584278,495
1765877485.584287,496
1765877485.5842938,496
1765877485.584301,496
1765877485.584309,496
1765877485.584316,495
1765877485.5843232,496
1765877485.58433,496
1765877485.584337,496
1765877485.5843441,496
1765877485.584351,495
1765877485.584358,495
1765877485.584366,496
1765877485.584373,495
1765877485.58438,495
1765877485.584387,496
1765877485.584394,495
1765877485.584401,495
1765877485.584408,496
1765877485.584415,495
1765877485.5844228,496
1765877485.58443,496
1765877485.584437,495
1765877485.5844438,496
1765877485.5844522,496
1765877485.584459,496
1765877485.584466,496
1765877485.584476,496
1765877485.584485,495
1765877485.584492,495
1765877485.5845,495
1765877485.584507,496
1765877485.5845141,496
1765877485.584521,496
1765877485.584528,496
1765877485.5845351,496
1765877485.584543,496
1765877485.58455,496
1765877485.584557,496
1765877485.584564,496
1765877485.5845718,496
1765877485.584579,496
1765877485.584586,496
1765877485.5845928,496
1765877485.5846,496
1765877485.584607,496
1765877485.584615,496
1765877485.5846221,496
1765877485.584629,496
1765877485.584636,496
1765877485.5846431,495
1765877485.584652,496
1765877485.5846589,496
1765877485.584666,496
1765877485.584676,495
1765877485.5846841,496
1765877485.584691,496
1765877485.5846982,496
1765877485.584705,495
1765877485.584712,496
1765877485.5847192,496
1765877485.584726,496
1765877485.584734,495
1765877485.584741,496
1765877485.584748,495
1765877485.584755,495
1765877485.584762,496
1765877485.58477,496
1765877485.5847769,496
1765877485.5847838,495
1765877485.584791,496
1765877485.5847979,495
1765877485.584805,495
1765877485.584813,495
1765877485.58482,495
1765877485.584827,495
1765877485.584834,496
1765877485.584841,495
1765877485.584848,496
1765877485.584856,496
1765877485.584865,495
1765877485.584873,495
1765877485.58488,496
1765877485.584887,496
1765877485.584895,496
1765877485.5849018,496
1765877485.584909,497
1765877485.5849159,497
1765877485.5849228,496
1765877485.58493,495
1765877485.584938,495
1765877485.584945,496
1765877485.584952,496
1765877485.584959,495
1765877485.584966,495
1765877485.584973,495
1765877485.58498,495
1765877485.584987,495
1765877485.584995,496
1765877485.585002,495
1765877485.5850089,496
1765877485.585016,495
1765877485.585023,496
1765877485.5850308,496
1765877485.5850382,496
1765877485.585045,496
1765877485.5850549,496
1765877485.585063,496
1765877485.5850701,496
1765877485.585077,496
1765877485.585084,496
1765877485.585092,496
1765877485.585099,495
1765877485.585108,495
1765877485.585115,495
1765877485.585123,495
1765877485.58513,495
1765877485.5851378,496
1765877485.585145,496
1765877485.585152,495
1765877485.5851588,496
1765877485.585166,496
1765877485.585173,496
1765877485.5851798,496
1765877485.585187,496
1765877485.585195,496
1765877485.585202,495
1765877485.5852091,495
1765877485.585216,495
1765877485.585223,496
1765877485.58523,495
1765877485.585237,496
1765877485.5852458,496
1765877485.585254,495
1765877485.585261,495
1765877485.585268,495
1765877485.585276,496
1765877485.585283,496
1765877485.58529,496
1765877485.5852978,497
1765877485.585305,497
1765877485.585313,497
1765877485.58532,497
1765877485.5853271,498
1765877485.585334,497
1765877485.585342,497
1765877485.585349,497
1765877485.585356,497
1765877485.585363,497
1765877485.5853708,497
1765877485.585378,497
1765877485.5853848,498
1765877485.5853922,497
1765877485.5854,497
1765877485.585409,497
1765877485.5854158,496
1765877485.585424,496
1765877485.585431,495
1765877485.585438,495
1765877485.585448,495
1765877485.5854561,496
1765877485.585463,496
1765877485.585471,497
1765877485.5854778,496
1765877485.585485,496
1765877485.585492,496
1765877485.5854988,496
1765877485.585506,495
1765877485.5855129,496
1765877485.58552,495
1765877485.585527,495
1765877485.585535,496
1765877485.585542,496
1765877485.585549,496
1765877485.585556,496
1765877485.585563,495
1765877485.58557,496
1765877485.585578,496
1765877485.5855849,495
1765877485.585592,496
1765877485.585599,496
1765877485.5856059,496
1765877485.585614,496
1765877485.5856209,496
1765877485.5856278,496
1765877485.585637,495
1765877485.5856462,496
1765877485.585653,495
1765877485.58566,496
1765877485.5856671,496
1765877485.585674,496
1765877485.585681,496
1765877485.585688,496
1765877485.585695,496
1765877485.585703,496
1765877485.58577,496
1765877485.5857768,495
1765877485.5857852,495
1765877485.585792,496
1765877485.585799,496
1765877485.5858061,496
1765877485.585813,496
1765877485.585821,496
1765877485.585828,495
1765877485.585835,496
1765877485.585842,495
1765877485.58585,496
1765877485.585857,496
1765877485.5858638,495
1765877485.5858712,496
1765877485.5858781,496
1765877485.585887,496
1765877485.585896,496
1765877485.5859032,496
1765877485.58591,496
1765877485.585917,495
1765877485.5859241,495
1765877485.585932,495
1765877485.585939,495
1765877485.585946,495
1765877485.585953,495
1765877485.58596,496
1765877485.585968,496
1765877485.585975,496
1765877485.5859818,496
1765877485.5859892,496
1765877485.585997,496
1765877485.586004,496
1765877485.586011,495
1765877485.586018,496
1765877485.586025,495
1765877485.5860329,496
1765877485.58604,496
1765877485.586047,496
1765877485.5860538,495
1765877485.586061,495
1765877485.586068,496
1765877485.586076,496
1765877485.586085,495
1765877485.586095,496
1765877485.586102,496
1765877485.586109,495
1765877485.586116,496
1765877485.586124,496
1765877485.5861309,495
1765877485.586138,496
1765877485.586145,496
1765877485.5861518,496
1765877485.5861602,496
1765877485.586167,495
1765877485.586174,496
1765877485.5861812,496
1765877485.586188,496
1765877485.586196,496
1765877485.5862029,495
1765877485.58621,495
1765877485.586217,496
1765877485.586224,495
1765877485.586232,496
1765877485.5862389,496
1765877485.5862458,496
1765877485.586258,496
1765877485.586265,495
1765877485.586272,496
1765877485.586285,495
1765877485.5862951,495
1765877485.586302,495
1765877485.5863092,496
1765877485.586316,496
1765877485.586323,496
1765877485.5863302,496
1765877485.586338,495
1765877485.586345,496
1765877485.586352,496
1765877485.586359,496
1765877485.586367,496
1765877485.5863738,496
1765877485.586381,496
1765877485.5863879,495
1765877485.5863948,496
1765877485.5864031,496
1765877485.58641,496
1765877485.586417,496
1765877485.586424,495
1765877485.586431,495
1765877485.586439,496
1765877485.586446,496
1765877485.586453,496
1765877485.5864599,495
1765877485.586467,495
1765877485.586475,496
1765877485.5865579,496
1765877485.586566,495
1765877485.586574,496
1765877485.586581,495
1765877485.586588,495
1765877485.586595,496
1765877485.586602,496
1765877485.586609,496
1765877485.586616,495
1765877485.586623,495
1765877485.5866299,496
1765877485.586642,495
1765877485.5866501,496
1765877485.586657,496
1765877485.586664,496
1765877485.586671,495
1765877485.586678,496
1765877485.586685,496
1765877485.586692,495
1765877485.586705,496
1765877485.586733,496
1765877485.586741,496
1765877485.586748,496
1765877485.586756,496
1765877485.586763,496
1765877485.5867698,495
1765877485.586781,496
1765877485.5867882,496
1765877485.586795,496
1765877485.586802,495
1765877485.5868092,496
1765877485.586816,495
1765877485.586823,496
1765877485.586831,496
1765877485.586838,495
1765877485.586845,495
1765877485.586852,496
1765877485.586859,496
1765877485.586866,496
1765877485.586873,496
1765877485.58688,496
1765877485.5868921,495
1765877485.586899,496
1765877485.5869062,496
1765877485.586913,496
1765877485.586921,495
1765877485.5869281,496
1765877485.586935,496
1765877485.586942,496
1765877485.586949,496
1765877485.586956,496
1765877485.586963,496
1765877485.586973,496
1765877485.58698,496
1765877485.586987,495
1765877485.586994,496
1765877485.587001,495
1765877485.587008,496
1765877485.587015,496
1765877485.587022,496
1765877485.587029,496
1765877485.587036,495
1765877485.587043,496
1765877485.58705,495
1765877485.5870569,496
1765877485.587064,496
1765877485.587071,496
1765877485.5870779,495
1765877485.587085,496
1765877485.587092,496
1765877485.5870988,496
1765877485.587106,496
1765877485.587113,496
1765877485.58712,496
1765877485.587127,495
1765877485.587134,496
1765877485.587141,496
1765877485.587148,496
1765877485.587157,496
1765877485.587164,496
1765877485.587171,496
1765877485.587178,495
1765877485.587185,496
1765877485.587192,496
1765877485.5872,496
1765877485.5872068,496
1765877485.587214,495
1765877485.587221,496
1765877485.5872278,496
1765877485.587235,496
1765877485.587242,496
1765877485.5872488,495
1765877485.587256,496
1765877485.5872629,496
1765877485.5872698,496
1765877485.5872772,496
1765877485.5872838,496
1765877485.5872908,496
1765877485.5872982,496
1765877485.587305,496
1765877485.5873122,495
1765877485.5873191,496
1765877485.587326,496
1765877485.5873332,496
1765877485.587342,496
1765877485.587351,496
1765877485.587358,496
1765877485.5873652,496
1765877485.587372,496
1765877485.587379,495
1765877485.5873861,495
1765877485.587393,496
1765877485.5874,496
1765877485.5874078,496
1765877485.587415,496
1765877485.587422,496
1765877485.587429,496
1765877485.587436,496
1765877485.5874429,496
1765877485.587451,496
1765877485.5874581,496
1765877485.587465,496
1765877485.587472,496
1765877485.587479,496
1765877485.5874848,496
1765877485.587492,496
1765877485.5875,496
1765877485.587507,496
1765877485.5875142,496
1765877485.587521,496
1765877485.587528,496
1765877485.5875368,496
1765877485.5875452,496
1765877485.5875509,496
1765877485.5875578,496
1765877485.5875661,496
1765877485.587573,496
1765877485.58758,496
1765877485.587587,496
1765877485.587594,496
1765877485.587601,496
1765877485.587608,496
1765877485.587615,496
1765877485.587622,496
1765877485.587629,496
1765877485.587636,496
1765877485.587643,496
1765877485.58765,496
1765877485.587657,496
1765877485.587664,497
1765877485.587671,496
1765877485.587677,496
1765877485.5876842,495
1765877485.587692,496
1765877485.587698,496
1765877485.5877051,496
1765877485.587712,496
1765877485.5877209,495
1765877485.587729,496
1765877485.587738,496
1765877485.587745,496
1765877485.5877519,496
1765877485.587759,497
1765877485.587766,496
1765877485.5877728,496
1765877485.58778,497
1765877485.587787,497
1765877485.5877938,496
1765877485.587801,496
1765877485.587808,496
1765877485.5878148,496
1765877485.5878222,496
1765877485.5878289,496
1765877485.5878358,496
1765877485.5878432,497
1765877485.58785,496
1765877485.587857,497
1765877485.5878642,497
1765877485.587871,497
1765877485.587878,496
1765877485.5878851,497
1765877485.587892,497
1765877485.587899,497
1765877485.5879061,497
1765877485.587913,496
1765877485.58792,496
1765877485.587928,496
1765877485.587935,496
1765877485.587942,496
1765877485.587949,497
1765877485.587956,496
1765877485.5879629,496
1765877485.58797,496
1765877485.587977,496
1765877485.5879838,497
1765877485.587991,496
1765877485.587998,496
1765877485.588005,496
1765877485.588012,497
1765877485.588019,497
1765877485.588026,496
1765877485.588033,497
1765877485.5880399,496
1765877485.588047,496
1765877485.588054,497
1765877485.5880609,497
1765877485.588068,498
1765877485.588075,497
1765877485.5880818,498
1765877485.588089,497
1765877485.588096,497
1765877485.5881028,498
1765877485.58811,497
1765877485.588117,498
1765877485.5881238,498
1765877485.5881312,498
1765877485.5881379,498
1765877485.5881448,497
1765877485.5881522,497
1765877485.588159,497
1765877485.588166,497
1765877485.588174,497
1765877485.588181,497
1765877485.588188,497
1765877485.588195,496
1765877485.588202,496
1765877485.588209,497
1765877485.588216,496
1765877485.588223,496
1765877485.58823,497
1765877485.588237,497
1765877485.588244,496
1765877485.5882509,496
1765877485.588258,496
1765877485.588265,496
1765877485.588272,496
1765877485.588279,497
1765877485.588286,496
1765877485.588293,496
1765877485.5883,496
1765877485.58831,496
1765877485.588317,496
1765877485.588324,495
1765877485.588331,495
1765877485.588338,496
1765877485.588345,496
1765877485.588352,496
1765877485.5883589,496
1765877485.588366,496
1765877485.588373,496
1765877485.5883799,497
1765877485.588387,496
1765877485.588394,496
1765877485.5884008,497
1765877485.588408,496
1765877485.588415,496
1765877485.5884218,496
1765877485.588429,496
1765877485.588436,496
1765877485.5884428,496
1765877485.58845,497
1765877485.58846,496
1765877485.588467,496
1765877485.588474,496
1765877485.5884821,496
1765877485.588489,496
1765877485.588496,496
1765877485.5885031,496
1765877485.58851,496
1765877485.5885172,496
1765877485.588524,496
1765877485.588531,496
1765877485.5885382,496
1765877485.588545,496
1765877485.588552,496
1765877485.5885592,496
1765877485.588566,496
1765877485.588573,496
1765877485.5885801,496
1765877485.588587,496
1765877485.588594,496
1765877485.588601,496
1765877485.588608,496
1765877485.588615,496
1765877485.588622,496
1765877485.58863,496
1765877485.5886369,496
1765877485.588644,496
1765877485.588651,496
1765877485.5886579,496
1765877485.588665,496
1765877485.588672,496
1765877485.5886788,496
1765877485.588686,496
1765877485.588693,496
1765877485.5886998,495
1765877485.588707,496
1765877485.588714,496
1765877485.5887208,496
1765877485.5887291,496
1765877485.588736,496
1765877485.588743,496
1765877485.588753,496
1765877485.5887601,496
1765877485.588768,496
1765877485.588775,496
1765877485.588782,496
1765877485.588789,496
1765877485.588796,496
1765877485.588803,496
1765877485.588811,495
1765877485.5888178,496
1765877485.588825,496
1765877485.588832,496
1765877485.5888388,496
1765877485.5888472,496
1765877485.588854,496
1765877485.588861,496
1765877485.588869,495
1765877485.588876,496
1765877485.588883,496
1765877485.58889,496
1765877485.588897,496
1765877485.588904,496
1765877485.588912,496
1765877485.588919,496
1765877485.5889258,496
1765877485.5889332,495
1765877485.588941,496
1765877485.588948,496
1765877485.588955,495
1765877485.5889611,496
1765877485.588968,496
1765877485.5889752,496
1765877485.588981,496
1765877485.5889878,496
1765877485.589001,496
1765877485.589012,495
1765877485.5890188,496
1765877485.589026,496
1765877485.589032,496
1765877485.589039,496
1765877485.589046,496
1765877485.589052,496
1765877485.589059,495
1765877485.589066,496
1765877485.589073,496
1765877485.5890791,495
1765877485.589086,496
1765877485.5890932,496
1765877485.589953,496
1765877485.5909498,495
1765877485.591912,496
1765877485.592939,496
1765877485.593945,496
1765877485.5950131,496
1765877485.595985,496
1765877485.596939,496
1765877485.597944,496
1765877485.598933,495
1765877485.599964,496
1765877485.600943,496
1765877485.601949,496
1765877485.6029508,495
1765877485.603953,495
1765877485.6049652,495
1765877485.6059651,496
1765877485.606984,496
1765877485.6079822,496
1765877485.6090539,495
1765877485.609986,496
1765877485.610993,496
1765877485.6119978,496
1765877485.613002,496
1765877485.614016,496
1765877485.614996,496
1765877485.615999,495
1765877485.617004,496
1765877485.6180081,496
1765877485.619025,496
1765877485.620029,496
1765877485.6210308,496
1765877485.622014,496
1765877485.6230369,496
1765877485.624039,496
1765877485.6250281,495
1765877485.626026,495
1765877485.627039,496
1765877485.628059,496
1765877485.6290848,496
1765877485.63007,497
1765877485.631078,496
1765877485.632052,495
1765877485.633044,496
1765877485.634049,495
1765877485.635045,496
1765877485.636055,496
1765877485.637109,496
1765877485.638078,496
1765877485.639094,496
1765877485.640084,496
1765877485.641071,496
1765877485.64207,496
1765877485.643132,496
1765877485.644067,496
1765877485.645092,495
1765877485.646079,496
1765877485.647174,495
1765877485.648088,496
1765877485.649111,496
1765877485.650112,496
1765877485.65116,496
1765877485.652123,496
1765877485.653096,496
1765877485.654109,496
1765877485.6551192,497
1765877485.656116,496
1765877485.657127,496
1765877485.6581209,496
1765877485.659168,496
1765877485.660137,496
1765877485.661151,496
1765877485.6621299,496
1765877485.663129,496
1765877485.664145,496
1765877485.665171,496
1765877485.666168,496
1765877485.667181,496
1765877485.668156,496
1765877485.669209,496
1765877485.670161,496
1765877485.6711638,496
1765877485.672211,495
1765877485.673161,496
1765877485.6741672,496
1765877485.675223,496
1765877485.676296,496
1765877485.677266,496
1765877485.678187,496
1765877485.679302,496
1765877485.6803079,495
1765877485.6813078,496
1765877485.682304,496
1765877485.6833038,496
1765877485.684266,496
1765877485.685299,495
1765877485.6862981,495
1765877485.6872902,495
1765877485.6883042,495
1765877485.689294,495
1765877485.6902962,495
1765877485.691266,496
1765877485.69227,496
1765877485.693279,496
1765877485.69429,496
1765877485.695273,496
1765877485.6963148,496
1765877485.6972952,496
1765877485.698293,496
1765877485.699292,496
1765877485.70029,496
1765877485.701296,496
1765877485.702301,496
1765877485.703308,496
1765877485.70431,496
1765877485.705306,496
1765877485.7063,496
1765877485.707297,496
1765877485.708284,496
1765877485.709295,496
1765877485.710318,496
1765877485.7113101,496
1765877485.712329,496
1765877485.713332,496
1765877485.714326,496
1765877485.7153149,496
1765877485.716295,496
1765877485.7172859,496
1765877485.718288,496
1765877485.719338,496
1765877485.720348,496
1765877485.7213151,496
1765877485.722326,496
1765877485.723331,496
1765877485.7243352,496
1765877485.7254028,496
1765877485.726326,496
1765877485.7273102,496
1765877485.728418,496
1765877485.729362,496
1765877485.7303329,496
1765877485.731337,496
1765877485.732328,496
1765877485.7333398,496
1765877485.7343192,496
1765877485.735355,496
1765877485.7363489,496
1765877485.737389,496
1765877485.738367,496
1765877485.7393558,496
1765877485.740353,496
1765877485.741358,496
1765877485.742372,496
1765877485.7434042,496
1765877485.7444842,496
1765877485.746078,496
1765877485.746401,496
1765877485.7474098,496
1765877485.748422,496
1765877485.749419,496
1765877485.750412,496
1765877485.751392,497
1765877485.7524,496
1765877485.7534232,496
1765877485.7544608,496
1765877485.755426,496
1765877485.756416,495
1765877485.7574341,496
1765877485.758406,496
1765877485.759417,495
1765877485.7604449,496
1765877485.761465,496
1765877485.762441,495
1765877485.763427,495
1765877485.764459,496
1765877485.765461,496
1765877485.766475,496
1765877485.767442,496
1765877485.768437,496
1765877485.7694561,496
1765877485.770475,496
1765877485.771466,496
1765877485.77245,496
1765877485.77345,496
1765877485.774465,496
1765877485.775456,496
1765877485.776465,496
1765877485.777457,496
1765877485.7785559,496
1765877485.7794828,496
1765877485.780479,496
1765877485.7814841,496
1765877485.782462,496
1765877485.783484,496
1765877485.784493,496
1765877485.785491,496
1765877485.788425,496
1765877485.788445,496
1765877485.788522,496
1765877485.789526,496
1765877485.790546,497
1765877485.791532,496
1765877485.792516,496
1765877485.793508,495
1765877485.794506,496
1765877485.7955258,496
1765877485.796523,496
1765877485.797524,496
1765877485.7985358,497
1765877485.799531,496
1765877485.8005278,496
1765877485.801534,496
1765877485.802529,496
1765877485.803562,496
1765877485.8045518,496
1765877485.805537,496
1765877485.8065438,496
1765877485.807541,496
1765877485.808576,496
1765877485.809553,497
1765877485.810574,497
1765877485.81158,498
1765877485.812567,498
1765877485.813555,498
1765877485.814555,497
1765877485.815576,498
1765877485.81658,498
1765877485.81758,498
1765877485.8185868,498
1765877485.8195891,498
1765877485.8206038,497
1765877485.821617,497
1765877485.822592,497
1765877485.823614,497
1765877485.8246121,497
1765877485.825608,498
1765877485.826638,496
1765877485.8276339,496
1765877485.8287628,496
1765877485.82964,497
1765877485.8307111,497
1765877485.831648,496
1765877485.8326359,496
1765877485.833638,496
1765877485.834626,496
1765877485.835618,497
1765877485.8366358,497
1765877485.837659,496
1765877485.8386402,496
1765877485.839652,496
1765877485.840651,496
1765877485.841664,496
1765877485.842645,496
1765877485.843659,496
1765877485.8446562,496
1765877485.845691,497
1765877485.8466828,496
1765877485.8476532,496
1765877485.84868,496
1765877485.849654,496
1765877485.850655,496
1765877485.8516831,496
1765877485.852674,496
1765877485.853699,496
1765877485.854688,496
1765877485.855675,497
1765877485.856692,497
1765877485.857683,496
1765877485.8586822,496
1765877485.8596742,495
1765877485.860685,496
1765877485.861875,496
1765877485.862727,496
1765877485.863704,496
1765877485.8647208,496
1765877485.865726,496
1765877485.866712,496
1765877485.867717,496
1765877485.868721,496
1765877485.869785,496
1765877485.870742,496
1765877485.8717382,496
1765877485.872731,496
1765877485.873725,496
1765877485.8747299,496
1765877485.875733,496
1765877485.876739,496
1765877485.877731,495
1765877485.878727,496
1765877485.879759,496
1765877485.88077,496
1765877485.881757,496
1765877485.882741,496
1765877485.883756,495
1765877485.8847558,496
1765877485.8857641,496
1765877485.8867562,496
1765877485.887768,496
1765877485.888763,496
1765877485.889759,496
1765877485.890791,496
1765877485.8917701,496
1765877485.892779,496
1765877485.893791,496
1765877485.894818,495
1765877485.895827,496
1765877485.896797,496
1765877485.8977869,495
1765877485.8988109,495
1765877485.899792,496
1765877485.900804,495
1765877485.901792,496
1765877485.902813,496
1765877485.9038348,496
1765877485.9048362,496
1765877485.905832,496
1765877485.906815,495
1765877485.90782,496
1765877485.9088159,496
1765877485.909826,496
1765877485.9108531,496
1765877485.911932,496
1765877485.9129012,496
1765877485.913868,496
1765877485.914861,496
1765877485.915859,496
1765877485.916852,496
1765877485.917851,495
1765877485.9188569,496
1765877485.919852,496
1765877485.920917,496
1765877485.921872,496
1765877485.9228659,496
1765877485.923862,496
1765877485.9248588,496
1765877485.925892,496
1765877485.926899,495
1765877485.9278662,496
1765877485.9289029,496
1765877485.929905,496
1765877485.9309068,496
1765877485.931892,496
1765877485.9329212,496
1765877485.933894,496
1765877485.934904,496
1765877485.935905,496
1765877485.936939,495
1765877485.93794,495
1765877485.9389372,495
1765877485.939921,496
1765877485.940947,497
1765877485.94192,496
1765877485.942919,497
1765877485.943945,496
1765877485.944952,497
1765877485.945961,496
1765877485.946945,496
1765877485.947964,496
1765877485.948964,496
1765877485.9499688,496
1765877485.950971,496
1765877485.951968,497
1765877485.9532402,496
1765877485.954026,496
1765877485.955032,496
1765877485.9559748,495
1765877485.95699,495
1765877485.958011,496
1765877485.958986,496
1765877485.9599822,495
1765877485.960973,496
1765877485.962006,495
1765877485.9630148,495
1765877485.96399,496
1765877485.964993,495
1765877485.96607,495
1765877485.9670122,495
1765877485.968004,496
1765877485.969037,496
1765877485.9700239,496
1765877485.971046,496
1765877485.972029,496
1765877485.973027,496
1765877485.9740129,496
1765877485.9750102,496
1765877485.97601,496
1765877485.9770298,496
1765877485.9780202,496
1765877485.9790778,497
1765877485.9800441,496
1765877485.981038,495
1765877485.982056,497
1765877485.983049,497
1765877485.984042,496
1765877485.985058,496
1765877485.986052,496
1765877485.987075,496
1765877485.98809,497
1765877485.989053,496
1765877485.99009,496
1765877485.991095,496
1765877485.9920719,496
1765877485.993074,496
1765877485.9940999,496
1765877485.995123,496
1765877485.996188,497
1765877485.997122,495
1765877485.998113,496
1765877485.999105,496
1765877486.000115,496
1765877486.001101,496
1765877486.0021088,496
1765877486.0031161,497
1765877486.004351,496
1765877486.005119,496
1765877486.00612,496
1765877486.007114,496
1765877486.008123,496
1765877486.00912,496
1765877486.010147,496
1765877486.0111518,496
1765877486.012171,497
1765877486.0131662,497
1765877486.0141702,496
1765877486.0151548,496
1765877486.016163,497
1765877486.01715,496
1765877486.018155,496
1765877486.01915,496
1765877486.0201962,495
1765877486.021197,496
1765877486.022203,497
1765877486.0231838,497
1765877486.024193,497
1765877486.025154,497
1765877486.026165,497
1765877486.027173,497
1765877486.028181,496
1765877486.0291939,497
1765877486.030198,499
1765877486.031178,500
1765877486.0322828,500
1765877486.033186,501
1765877486.0342882,499
1765877486.035295,499
1765877486.036306,499
1765877486.0373602,499
1765877486.0383449,498
1765877486.0393238,498
1765877486.040302,495
1765877486.041322,496
1765877486.042315,497
1765877486.043335,497
1765877486.0442932,495
1765877486.045312,496
1765877486.046308,496
1765877486.047286,494
1765877486.048264,495
1765877486.049267,496
1765877486.0502741,496
1765877486.051287,496
1765877486.052285,497
1765877486.0532758,497
1765877486.054315,495
1765877486.055288,494
1765877486.056264,494
1765877486.057264,496
1765877486.058261,496
1765877486.059257,497
1765877486.0602822,499
1765877486.061271,502
1765877486.062316,504
1765877486.063274,504
1765877486.064266,502
1765877486.065284,503
1765877486.0662882,501
1765877486.067282,499
1765877486.068286,500
1765877486.06929,501
1765877486.070305,502
1765877486.071302,502
1765877486.0722969,501
1765877486.073293,494
1765877486.074303,490
1765877486.0753422,489
1765877486.076326,490
1765877486.077384,491
1765877486.078548,491
1765877486.0794082,492
1765877486.0803552,492
1765877486.081339,494
1765877486.0823538,496
1765877486.083361,498
1765877486.084338,500
1765877486.085331,499
1765877486.086355,498
1765877486.0873952,497
1765877486.088344,496
1765877486.089351,497
1765877486.090351,498
1765877486.091359,497
1765877486.092373,495
1765877486.093365,494
1765877486.094369,495
1765877486.095411,496
1765877486.096419,498
1765877486.097379,498
1765877486.098361,499
1765877486.0993679,499
1765877486.100377,497
1765877486.1013849,496
1765877486.102369,497
1765877486.103391,499
1765877486.1044102,499
1765877486.105402,498
1765877486.106405,498
1765877486.1074078,497
1765877486.108408,497
1765877486.1093981,498
1765877486.110406,497
1765877486.111422,501
1765877486.112447,504
1765877486.113418,507
1765877486.114434,508
1765877486.1154509,507
1765877486.116448,503
1765877486.117441,500
1765877486.118452,494
1765877486.1194391,493
1765877486.120484,494
1765877486.121512,492
1765877486.122456,491
1765877486.123456,491
1765877486.124459,489
1765877486.125464,492
1765877486.126455,494
1765877486.127451,495
1765877486.12846,495
1765877486.129478,495
1765877486.130475,495
1765877486.1314728,494
1765877486.1324842,495
1765877486.133482,494
1765877486.134457,494
1765877486.135475,498
1765877486.1364758,499
1765877486.137503,500
1765877486.138496,500
1765877486.139492,499
1765877486.140495,498
1765877486.141505,497
1765877486.142478,498
1765877486.143504,501
1765877486.14449,504
1765877486.145539,504
1765877486.146515,505
1765877486.14752,503
1765877486.148522,502
1765877486.149512,495
1765877486.150534,491
1765877486.1515148,491
1765877486.152521,492
1765877486.153541,491
1765877486.1545448,490
1765877486.1555352,495
1765877486.15653,496
1765877486.157558,499
1765877486.158568,505
1765877486.1595678,506
1765877486.160566,510
1765877486.161644,514
1765877486.162613,517
1765877486.163599,510
1765877486.164578,511
1765877486.165579,511
1765877486.166572,506
1765877486.167573,495
1765877486.1685781,491
1765877486.169579,487
1765877486.170611,488
1765877486.171617,488
1765877486.172599,490
1765877486.1735868,493
1765877486.1746,496
1765877486.175599,496
1765877486.1766279,496
1765877486.1775959,498
1765877486.178623,494
1765877486.1796322,493
1765877486.180607,497
1765877486.181607,499
1765877486.182627,498
1765877486.183624,499
1765877486.184619,501
1765877486.185631,498
1765877486.186657,498
1765877486.187663,497
1765877486.1886232,496
1765877486.189623,495
1765877486.190639,494
1765877486.191649,493
1765877486.1926458,494
1765877486.1936388,493
1765877486.194648,493
1765877486.195698,495
1765877486.196664,497
1765877486.19766,499
1765877486.198664,502
1765877486.1996548,506
1765877486.2006688,509
1765877486.201694,512
1765877486.202677,515
1765877486.203891,502
1765877486.204721,497
1765877486.20573,496
1765877486.206712,498
1765877486.207703,493
1765877486.208693,487
1765877486.209688,490
1765877486.210701,491
1765877486.211688,491
1765877486.21271,494
1765877486.213702,495
1765877486.21471,496
1765877486.215714,495
1765877486.216701,495
1765877486.2177181,495
1765877486.218724,497
1765877486.219717,500
1765877486.2207549,503
1765877486.221743,507
1765877486.22273,506
1765877486.223713,503
1765877486.224751,494
1765877486.225724,495
1765877486.226729,497
1765877486.2277381,497
1765877486.2287638,495
1765877486.2297611,495
1765877486.230748,493
1765877486.231751,494
1765877486.232739,496
1765877486.233747,498
1765877486.2347698,497
1765877486.235766,498
1765877486.2368362,498
1765877486.237785,497
1765877486.2387688,498
1765877486.23979,496
1765877486.240772,498
1765877486.24179,503
1765877486.242798,502
1765877486.2437959,497
1765877486.2449,494
1765877486.245824,492
1765877486.2468338,493
1765877486.247839,493
1765877486.248829,495
1765877486.249831,495
1765877486.250904,495
1765877486.2518568,494
1765877486.252943,495
1765877486.25392,495
1765877486.2556832,496
1765877486.257117,499
1765877486.2571342,501
1765877486.2595541,501
1765877486.25959,502
1765877486.2611551,498
1765877486.261178,495
1765877486.263402,492
1765877486.2634299,495
1765877486.264064,496
1765877486.264864,496
1765877486.2658691,498
1765877486.2670221,499
1765877486.267888,499
1765877486.268873,500
1765877486.270028,500
1765877486.271042,496
1765877486.272,496
1765877486.272923,497
1765877486.27393,498
1765877486.27492,500
1765877486.2759192,501
1765877486.276901,507
1765877486.277905,507
1765877486.279031,503
1765877486.27992,506
1765877486.2809,506
1765877486.281908,490
1765877486.2829142,492
1765877486.2839198,495
1765877486.284936,492
1765877486.285959,490
1765877486.287046,492
1765877486.288067,494
1765877486.288979,495
1765877486.29004,493
1765877486.290966,495
1765877486.291978,495
1765877486.293,495
1765877486.293969,495
1765877486.295043,497
1765877486.2960289,498
1765877486.296979,497
1765877486.297985,497
1765877486.2989938,498
1765877486.300006,496
1765877486.3009589,496
1765877486.3019772,496
1765877486.3030221,498
1765877486.3040059,502
1765877486.3050199,501
1765877486.306004,498
1765877486.3070211,498
1765877486.308144,495
1765877486.3090491,496
1765877486.3101492,496
1765877486.311189,496
1765877486.312085,500
1765877486.313096,502
1765877486.314042,502
1765877486.315137,500
1765877486.316006,497
1765877486.317014,496
1765877486.318018,493
1765877486.318997,493
1765877486.3200169,494
1765877486.321064,492
1765877486.322151,495
1765877486.323052,499
1765877486.324045,502
1765877486.325025,504
1765877486.326032,504
1765877486.327033,501
1765877486.328042,498
1765877486.329037,497
1765877486.3300622,497
1765877486.3310258,492
1765877486.332054,495
1765877486.333055,496
1765877486.33405,490
1765877486.335068,490
1765877486.3360581,494
1765877486.337062,495
1765877486.338082,495
1765877486.339076,496
1765877486.340072,496
1765877486.341065,495
1765877486.342067,495
1765877486.343075,495
1765877486.344085,495
1765877486.345076,496
1765877486.346076,495
1765877486.347106,496
1765877486.3480918,495
1765877486.349098,495
1765877486.350122,495
1765877486.351125,495
1765877486.352113,496
1765877486.353112,498
1765877486.3541272,498
1765877486.3551302,496
1765877486.3561118,494
1765877486.357127,496
1765877486.3582091,496
1765877486.359126,495
1765877486.360121,497
1765877486.361115,495
1765877486.362158,496
1765877486.363146,496
1765877486.3641338,496
1765877486.365122,496
1765877486.3661408,497
1765877486.367136,498
1765877486.3681479,497
1765877486.369153,494
1765877486.37022,495
1765877486.371202,496
1765877486.372183,502
1765877486.373193,505
1765877486.374184,504
1765877486.3752031,502
1765877486.37619,497
1765877486.3771431,496
1765877486.3781629,497
1765877486.379175,493
1765877486.380179,492
1765877486.381165,495
1765877486.382169,497
1765877486.3831732,499
1765877486.384176,499
1765877486.385188,498
1765877486.386209,492
1765877486.387292,493
1765877486.3882911,494
1765877486.389272,496
1765877486.390273,493
1765877486.39127,494
1765877486.392263,494
1765877486.393266,496
1765877486.39427,497
1765877486.395286,497
1765877486.396279,498
1765877486.3972638,501
1765877486.39827,503
1765877486.399269,505
1765877486.4002628,503
1765877486.401269,498
1765877486.402261,495
1765877486.403276,495
1765877486.404275,492
1765877486.4052758,490
1765877486.4062788,492
1765877486.407269,496
1765877486.4082718,497
1765877486.409264,496
1765877486.410272,496
1765877486.4112918,493
1765877486.412377,494
1765877486.413345,495
1765877486.4142919,496
1765877486.4152792,497
1765877486.416266,496
1765877486.417274,494
1765877486.418284,496
1765877486.419275,495
1765877486.4202921,494
1765877486.4212968,495
1765877486.422282,496
1765877486.4232728,495
1765877486.424295,495
1765877486.42531,495
1765877486.426346,495
1765877486.427333,495
1765877486.428324,495
1765877486.429572,495
1765877486.430368,496
1765877486.431332,496
1765877486.432339,496
1765877486.433345,496
1765877486.434347,496
1765877486.435352,496
1765877486.436446,496
1765877486.437386,495
1765877486.438384,497
1765877486.4393659,499
1765877486.440407,501
1765877486.441377,500
1765877486.4424,498
1765877486.443391,496
1765877486.444397,497
1765877486.4454021,495
1765877486.4464152,495
1765877486.447423,495
1765877486.448375,494
1765877486.4493928,496
1765877486.450402,496
1765877486.451394,497
1765877486.4524019,498
1765877486.453505,499
1765877486.454437,499
1765877486.455431,500
1765877486.4564202,498
1765877486.457396,497
1765877486.458422,497
1765877486.459429,495
1765877486.460427,497
1765877486.461428,498
1765877486.462429,501
1765877486.463428,497
1765877486.464434,492
1765877486.4654431,491
1765877486.466441,494
1765877486.467444,495
1765877486.468436,494
1765877486.469461,496
1765877486.470591,496
1765877486.471523,496
1765877486.47247,498
1765877486.473444,497
1765877486.474438,494
1765877486.475447,492
1765877486.476442,495
1765877486.4774442,496
1765877486.4784691,496
1765877486.4794528,497
1765877486.480442,498
1765877486.481458,499
1765877486.482452,500
1765877486.4834392,500
1765877486.484441,499
1765877486.4854348,495
1765877486.4864588,495
1765877486.4874759,497
1765877486.48847,496
1765877486.4894578,499
1765877486.490475,504
1765877486.4914792,502
1765877486.492492,503
1765877486.4934971,502
1765877486.494506,494
1765877486.4955368,494
1765877486.496503,492
1765877486.497498,492
1765877486.4985018,493
1765877486.499495,494
1765877486.5005069,500
1765877486.501503,501
1765877486.50253,501
1765877486.503517,499
1765877486.504508,490
1765877486.505516,492
1765877486.50652,494
1765877486.50755,493
1765877486.508579,493
1765877486.509562,494
1765877486.5105448,495
1765877486.5115678,495
1765877486.512554,496
1765877486.5135539,496
1765877486.514536,495
1765877486.515552,495
1765877486.516551,494
1765877486.517555,495
1765877486.5185542,496
1765877486.519555,495
1765877486.520552,496
1765877486.5215611,497
1765877486.522551,498
1765877486.523563,499
1765877486.524572,502
1765877486.525586,502
1765877486.5265741,501
1765877486.52758,498
1765877486.528587,494
1765877486.529588,495
1765877486.530586,497
1765877486.5315871,495
1765877486.5326002,495
1765877486.5335941,496
1765877486.534601,498
1765877486.535606,498
1765877486.536652,497
1765877486.537633,495
1765877486.5386298,498
1765877486.539639,498
1765877486.540648,499
1765877486.541641,502
1765877486.542617,499
1765877486.543602,495
1765877486.544629,498
1765877486.5456462,496
1765877486.546645,493
1765877486.5476239,494
1765877486.548623,494
1765877486.54964,495
1765877486.5506382,497
1765877486.5516381,496
1765877486.552651,494
1765877486.553632,494
1765877486.5546482,496
1765877486.555658,499
1765877486.5566552,500
1765877486.557656,499
1765877486.558667,498
1765877486.5596569,496
1765877486.560666,494
1765877486.561685,494
1765877486.566338,495
