timestamp,emg_value
1765877474.428703,496
1765877474.428731,496
1765877474.428745,496
1765877474.428756,497
1765877474.428766,494
1765877474.428776,492
1765877474.4287858,494
1765877474.4287958,494
1765877474.4288058,495
1765877474.4288158,496
1765877474.428826,497
1765877474.4288352,497
1765877474.4288452,498
1765877474.428855,498
1765877474.428864,494
1765877474.428874,491
1765877474.428884,493
1765877474.428898,495
1765877474.428908,495
1765877474.428917,494
1765877474.428927,495
1765877474.428937,494
1765877474.428947,493
1765877474.428957,493
1765877474.428993,494
1765877474.4290402,494
1765877474.429054,494
1765877474.429064,495
1765877474.4290738,496
1765877474.4290838,497
1765877474.429095,498
1765877474.4291048,498
1765877474.4291148,496
1765877474.429132,493
1765877474.429143,493
1765877474.429153,494
1765877474.429163,495
1765877474.429173,494
1765877474.429183,494
1765877474.429193,492
1765877474.429203,493
1765877474.4292202,493
1765877474.42923,494
1765877474.42924,493
1765877474.429251,495
1765877474.4292622,495
1765877474.4292722,495
1765877474.429282,497
1765877474.429291,500
1765877474.429301,503
1765877474.429312,501
1765877474.429322,496
1765877474.429337,489
1765877474.4293718,494
1765877474.429384,496
1765877474.429395,495
1765877474.429405,496
1765877474.429415,494
1765877474.429425,494
1765877474.4294348,494
1765877474.429445,493
1765877474.429455,493
1765877474.429465,494
1765877474.429475,495
1765877474.429485,495
1765877474.429873,496
1765877474.4298828,498
1765877474.429893,495
1765877474.429903,493
1765877474.429913,493
1765877474.429923,493
1765877474.429933,493
1765877474.429943,494
1765877474.429953,494
1765877474.429964,494
1765877474.429974,495
1765877474.430039,495
1765877474.4301262,494
1765877474.430193,495
1765877474.430206,495
1765877474.4303942,494
1765877474.4304051,494
1765877474.4304519,495
1765877474.430463,494
1765877474.4304729,495
1765877474.4304829,494
1765877474.430494,494
1765877474.430503,495
1765877474.4305139,495
1765877474.4305239,494
1765877474.430534,495
1765877474.430544,495
1765877474.4305542,495
1765877474.430676,495
1765877474.430709,496
1765877474.430719,494
1765877474.430729,493
1765877474.430739,495
1765877474.4308019,494
1765877474.431107,496
1765877474.431117,496
1765877474.431127,499
1765877474.4312031,501
1765877474.4312131,503
1765877474.431346,501
1765877474.431391,497
1765877474.431465,496
1765877474.431512,496
1765877474.4315221,495
1765877474.4317482,492
1765877474.4317582,491
1765877474.4317682,491
1765877474.431778,493
1765877474.431788,494
1765877474.431798,495
1765877474.431808,495
1765877474.431818,496
1765877474.4318268,496
1765877474.4318368,493
1765877474.4318469,492
1765877474.4318569,494
1765877474.431867,498
1765877474.4318771,498
1765877474.4318862,500
1765877474.431896,497
1765877474.431906,493
1765877474.431916,492
1765877474.431926,495
1765877474.431936,496
1765877474.4321358,494
1765877474.4321458,494
1765877474.432163,494
1765877474.432173,493
1765877474.432183,494
1765877474.432193,494
1765877474.432203,494
1765877474.432213,494
1765877474.432222,494
1765877474.432232,494
1765877474.432242,494
1765877474.432252,494
1765877474.432262,495
1765877474.432272,494
1765877474.4322822,495
1765877474.432292,494
1765877474.432302,495
1765877474.432311,494
1765877474.432321,495
1765877474.432331,495
1765877474.432341,495
1765877474.4323509,495
1765877474.432361,495
1765877474.4324229,494
1765877474.432433,494
1765877474.432443,495
1765877474.4324532,494
1765877474.4324632,494
1765877474.4324758,496
1765877474.4324858,499
1765877474.432496,500
1765877474.432506,501
1765877474.432516,502
1765877474.4325252,498
1765877474.432535,493
1765877474.432545,494
1765877474.432555,499
1765877474.432565,501
1765877474.432574,502
1765877474.432584,504
1765877474.4325938,501
1765877474.4326038,493
1765877474.4326131,488
1765877474.432624,491
1765877474.4326751,491
1765877474.432686,491
1765877474.432697,492
1765877474.432708,492
1765877474.432719,494
1765877474.4327302,494
1765877474.4327412,494
1765877474.4327521,494
1765877474.4327629,495
1765877474.432775,493
1765877474.43279,494
1765877474.4328032,494
1765877474.4328141,495
1765877474.432825,495
1765877474.432836,495
1765877474.432847,494
1765877474.432859,494
1765877474.43287,495
1765877474.4328809,495
1765877474.4328918,494
1765877474.4329028,495
1765877474.432914,495
1765877474.432925,495
1765877474.432936,495
1765877474.4329479,495
1765877474.432959,495
1765877474.43297,495
1765877474.432981,496
1765877474.432992,495
1765877474.433003,495
1765877474.433014,495
1765877474.4330251,495
1765877474.433036,495
1765877474.433047,495
1765877474.433058,496
1765877474.433069,498
1765877474.4330812,501
1765877474.433096,503
1765877474.4331079,505
1765877474.433119,497
1765877474.43313,492
1765877474.433141,493
1765877474.433152,491
1765877474.433163,492
1765877474.4331741,494
1765877474.433185,493
1765877474.433196,495
1765877474.433208,496
1765877474.433219,495
1765877474.4332302,494
1765877474.4332411,496
1765877474.433252,496
1765877474.433263,495
1765877474.433274,495
1765877474.4332852,495
1765877474.433296,496
1765877474.433307,496
1765877474.433318,497
1765877474.4333298,496
1765877474.433341,496
1765877474.4333608,496
1765877474.433372,496
1765877474.433383,496
1765877474.433402,495
1765877474.433415,496
1765877474.433426,495
1765877474.4334369,495
1765877474.4334478,496
1765877474.433459,495
1765877474.43347,494
1765877474.433481,495
1765877474.433492,495
1765877474.433503,495
1765877474.4335139,495
1765877474.433525,495
1765877474.433536,496
1765877474.433547,496
1765877474.433558,497
1765877474.433569,497
1765877474.43358,496
1765877474.4335911,495
1765877474.433602,495
1765877474.433613,496
1765877474.433625,495
1765877474.4336362,497
1765877474.433654,497
1765877474.433665,497
1765877474.433676,496
1765877474.433687,497
1765877474.433698,495
1765877474.433713,496
1765877474.433724,495
1765877474.433735,496
1765877474.433752,493
1765877474.433771,494
1765877474.433794,495
1765877474.433812,497
1765877474.4338229,499
1765877474.433834,497
1765877474.433845,502
1765877474.433856,503
1765877474.433867,495
1765877474.433884,491
1765877474.4338958,495
1765877474.4339058,493
1765877474.433918,494
1765877474.433929,495
1765877474.43394,491
1765877474.433951,492
1765877474.4339619,494
1765877474.433973,494
1765877474.43399,495
1765877474.434002,496
1765877474.434013,495
1765877474.4340239,493
1765877474.434035,493
1765877474.434054,493
1765877474.4340658,494
1765877474.434077,495
1765877474.434088,494
1765877474.434099,494
1765877474.434117,495
1765877474.4341278,494
1765877474.4341388,493
1765877474.43415,493
1765877474.434161,493
1765877474.434172,495
1765877474.4341838,495
1765877474.434195,497
1765877474.434206,497
1765877474.434217,496
1765877474.434228,495
1765877474.434239,495
1765877474.4342499,497
1765877474.434261,498
1765877474.434272,496
1765877474.434292,491
1765877474.434303,492
1765877474.434314,494
1765877474.434325,493
1765877474.434336,494
1765877474.434347,495
1765877474.434366,494
1765877474.43438,494
1765877474.434391,494
1765877474.434402,494
1765877474.434413,495
1765877474.4344242,494
1765877474.4344351,495
1765877474.434446,495
1765877474.434457,494
1765877474.434468,494
1765877474.434486,494
1765877474.434497,495
1765877474.434508,495
1765877474.434519,494
1765877474.43453,495
1765877474.434541,495
1765877474.434552,495
1765877474.4345632,494
1765877474.4345741,494
1765877474.434585,494
1765877474.434596,494
1765877474.434607,494
1765877474.434618,495
1765877474.4346292,496
1765877474.43464,498
1765877474.434651,498
1765877474.4346619,498
1765877474.434677,496
1765877474.434688,492
1765877474.4347,496
1765877474.434711,498
1765877474.434722,496
1765877474.4347332,494
1765877474.4347441,496
1765877474.434756,496
1765877474.434767,496
1765877474.4347782,495
1765877474.4348001,498
1765877474.4348109,501
1765877474.434829,500
1765877474.43484,491
1765877474.4348512,492
1765877474.4348621,492
1765877474.434873,492
1765877474.434884,492
1765877474.434895,494
1765877474.434906,494
1765877474.4349172,493
1765877474.4349282,493
1765877474.434939,493
1765877474.4349499,493
1765877474.4349608,493
1765877474.4349718,492
1765877474.434987,492
1765877474.434999,492
1765877474.43501,493
1765877474.4350212,494
1765877474.4350321,494
1765877474.435043,495
1765877474.435054,495
1765877474.435065,497
1765877474.435076,497
1765877474.4350872,495
1765877474.4350982,495
1765877474.4351091,495
1765877474.43512,493
1765877474.4351318,494
1765877474.435236,495
1765877474.435254,495
1765877474.435267,495
1765877474.4352791,495
1765877474.4352908,494
1765877474.435303,495
1765877474.435315,495
1765877474.435327,494
1765877474.435339,496
1765877474.4353511,497
1765877474.435363,499
1765877474.4353752,499
1765877474.435392,498
1765877474.4354072,490
1765877474.435421,491
1765877474.435433,494
1765877474.435445,493
1765877474.435457,492
1765877474.4354692,493
1765877474.435534,494
1765877474.4355469,495
1765877474.435561,496
1765877474.435592,497
1765877474.4356039,497
1765877474.435616,496
1765877474.435627,495
1765877474.435638,495
1765877474.435651,497
1765877474.435662,496
1765877474.435673,493
1765877474.4356842,492
1765877474.4356961,493
1765877474.4357069,495
1765877474.435719,494
1765877474.43573,494
1765877474.435741,494
1765877474.435752,493
1765877474.435763,494
1765877474.435777,494
1765877474.43579,494
1765877474.435801,494
1765877474.4358358,495
1765877474.4359329,496
1765877474.4359539,496
1765877474.435969,495
1765877474.435988,494
1765877474.436001,493
1765877474.4360478,494
1765877474.43606,494
1765877474.436071,495
1765877474.4360828,496
1765877474.436094,496
1765877474.436105,496
1765877474.436116,496
1765877474.436128,495
1765877474.436139,493
1765877474.43615,494
1765877474.436161,495
1765877474.436173,494
1765877474.4361842,494
1765877474.4361951,492
1765877474.436206,495
1765877474.436217,497
1765877474.436228,500
1765877474.4362419,500
1765877474.436255,498
1765877474.436266,494
1765877474.436278,491
1765877474.436289,493
1765877474.4363,493
1765877474.436312,493
1765877474.4363232,494
1765877474.4363341,494
1765877474.436345,495
1765877474.436356,494
1765877474.436368,494
1765877474.436379,494
1765877474.43639,494
1765877474.4364018,494
1765877474.4364128,494
1765877474.436424,494
1765877474.436436,495
1765877474.436447,495
1765877474.4364579,496
1765877474.436469,495
1765877474.43648,494
1765877474.436491,494
1765877474.436502,494
1765877474.4365141,495
1765877474.436525,496
1765877474.436536,499
1765877474.436552,501
1765877474.436563,502
1765877474.436574,500
1765877474.436585,498
1765877474.436596,495
1765877474.436607,492
1765877474.436619,490
1765877474.43663,492
1765877474.436641,493
1765877474.4366531,494
1765877474.436664,492
1765877474.436675,492
1765877474.436686,494
1765877474.436697,493
1765877474.4367092,494
1765877474.4367201,494
1765877474.4367309,495
1765877474.4367418,493
1765877474.4367528,494
1765877474.436765,495
1765877474.436776,495
1765877474.436787,496
1765877474.4367979,496
1765877474.43681,499
1765877474.436821,500
1765877474.436832,501
1765877474.4368472,499
1765877474.436859,494
1765877474.4368699,492
1765877474.436927,494
1765877474.43698,491
1765877474.4370198,493
1765877474.437035,493
1765877474.437047,492
1765877474.4370592,492
1765877474.4370701,494
1765877474.437082,494
1765877474.437094,495
1765877474.437105,495
1765877474.437116,495
1765877474.4371278,495
1765877474.437139,494
1765877474.437151,495
1765877474.437162,495
1765877474.437173,494
1765877474.437185,494
1765877474.437206,494
1765877474.437218,495
1765877474.43723,495
1765877474.437242,495
1765877474.4372532,495
1765877474.437264,495
1765877474.43728,495
1765877474.437292,496
1765877474.437304,497
1765877474.437315,497
1765877474.4373262,493
1765877474.4373372,494
1765877474.437349,495
1765877474.43736,496
1765877474.437372,496
1765877474.437383,497
1765877474.437394,495
1765877474.4374049,494
1765877474.4374158,494
1765877474.437427,494
1765877474.437439,495
1765877474.43745,495
1765877474.437461,494
1765877474.437473,494
1765877474.437484,494
1765877474.437495,494
1765877474.4375072,494
1765877474.4375181,494
1765877474.43753,494
1765877474.437541,495
1765877474.4375522,495
1765877474.437564,495
1765877474.437577,496
1765877474.437591,495
1765877474.437602,496
1765877474.437613,495
1765877474.437624,495
1765877474.4376361,495
1765877474.437647,495
1765877474.437658,495
1765877474.437669,495
1765877474.4376802,495
1765877474.437692,495
1765877474.437703,495
1765877474.4377139,493
1765877474.437726,494
1765877474.437737,495
1765877474.437749,493
1765877474.43776,494
1765877474.437771,496
1765877474.437783,496
1765877474.437794,495
1765877474.437805,495
1765877474.437817,495
1765877474.437828,495
1765877474.437839,494
1765877474.43785,494
1765877474.437862,494
1765877474.437873,494
1765877474.437888,494
1765877474.437899,494
1765877474.437911,494
1765877474.437922,496
1765877474.437933,496
1765877474.4379451,496
1765877474.437956,496
1765877474.437967,496
1765877474.437979,496
1765877474.43799,496
1765877474.438001,496
1765877474.438012,497
1765877474.438024,497
1765877474.438035,496
1765877474.438046,496
1765877474.438058,497
1765877474.43807,497
1765877474.438081,497
1765877474.438092,496
1765877474.438103,496
1765877474.438116,495
1765877474.438127,495
1765877474.438139,495
1765877474.43815,496
1765877474.438161,495
1765877474.4381719,495
1765877474.438186,496
1765877474.4382,496
1765877474.438211,495
1765877474.4382238,495
1765877474.4382348,495
1765877474.4382458,495
1765877474.438257,496
1765877474.438269,494
1765877474.4382799,495
1765877474.4382908,495
1765877474.438303,495
1765877474.438314,495
1765877474.438325,495
1765877474.438336,495
1765877474.438348,495
1765877474.438359,495
1765877474.43837,495
1765877474.438381,494
1765877474.4383922,494
1765877474.438404,495
1765877474.438415,495
1765877474.438426,495
1765877474.438438,495
1765877474.438449,495
1765877474.4384599,494
1765877474.4384708,495
1765877474.438486,495
1765877474.438499,494
1765877474.438517,494
1765877474.438536,494
1765877474.4385548,495
1765877474.4385731,495
1765877474.438592,495
1765877474.438611,495
1765877474.4386292,496
1765877474.438648,495
1765877474.438667,495
1765877474.438686,495
1765877474.438704,494
1765877474.438723,495
1765877474.438742,495
1765877474.43876,495
1765877474.4387789,494
1765877474.4387982,494
1765877474.438816,495
1765877474.438835,494
1765877474.438854,494
1765877474.438873,494
1765877474.438891,494
1765877474.43891,494
1765877474.438928,495
1765877474.438947,495
1765877474.4389682,494
1765877474.438994,495
1765877474.439013,495
1765877474.4390311,494
1765877474.439059,494
1765877474.4390771,495
1765877474.439096,494
1765877474.439115,495
1765877474.439133,494
1765877474.4391522,494
1765877474.439171,494
1765877474.439189,493
1765877474.439208,495
1765877474.4392262,494
1765877474.439245,494
1765877474.439264,495
1765877474.439282,495
1765877474.439301,495
1765877474.43932,495
1765877474.439339,495
1765877474.439357,495
1765877474.4393759,495
1765877474.4393952,495
1765877474.439413,495
1765877474.439431,495
1765877474.43945,494
1765877474.439469,495
1765877474.4394948,494
1765877474.4395142,495
1765877474.439533,494
1765877474.439552,494
1765877474.43957,495
1765877474.439589,494
1765877474.439608,495
1765877474.439626,496
1765877474.4396448,495
1765877474.4396632,495
1765877474.439682,495
1765877474.439701,494
1765877474.43972,495
1765877474.439738,495
1765877474.439757,495
1765877474.439775,494
1765877474.4397938,494
1765877474.439827,494
1765877474.439847,494
1765877474.439865,495
1765877474.439884,495
1765877474.439903,495
1765877474.439923,495
1765877474.439939,495
1765877474.439955,494
1765877474.439971,495
1765877474.43999,495
1765877474.4400058,495
1765877474.440022,495
1765877474.440037,495
1765877474.440053,495
1765877474.4400692,494
1765877474.440083,494
1765877474.440094,495
1765877474.440105,494
1765877474.440116,494
1765877474.440128,494
1765877474.440139,494
1765877474.440151,494
1765877474.440162,495
1765877474.4401731,496
1765877474.440184,496
1765877474.440196,495
1765877474.440208,494
1765877474.440219,495
1765877474.44023,494
1765877474.4402409,494
1765877474.440298,495
1765877474.440314,494
1765877474.440327,495
1765877474.4403389,494
1765877474.440351,494
1765877474.440366,494
1765877474.440382,495
1765877474.440395,495
1765877474.440407,494
1765877474.440419,494
1765877474.440431,495
1765877474.4404428,494
1765877474.440455,495
1765877474.440467,495
1765877474.440484,494
1765877474.4404979,494
1765877474.44051,494
1765877474.440522,494
1765877474.440534,494
1765877474.440547,494
1765877474.440562,494
1765877474.440576,494
1765877474.440589,494
1765877474.440601,495
1765877474.440612,495
1765877474.4406242,495
1765877474.440636,494
1765877474.4406478,494
1765877474.44066,494
1765877474.440672,495
1765877474.4406881,495
1765877474.4407082,495
1765877474.440722,495
1765877474.440736,494
1765877474.440747,495
1765877474.440759,494
1765877474.440771,495
1765877474.440783,495
1765877474.440795,495
1765877474.440806,495
1765877474.440825,494
1765877474.440856,494
1765877474.440893,495
1765877474.440908,494
1765877474.440921,494
1765877474.4409332,494
1765877474.440945,495
1765877474.4409568,495
1765877474.440969,495
1765877474.44098,494
1765877474.4409971,494
1765877474.441012,494
1765877474.441025,495
1765877474.441036,494
1765877474.4410481,494
1765877474.441064,494
1765877474.441078,494
1765877474.441094,494
1765877474.441109,494
1765877474.441122,494
1765877474.441139,494
1765877474.441153,494
1765877474.4411662,494
1765877474.441178,495
1765877474.44119,495
1765877474.441201,495
1765877474.441213,494
1765877474.4412448,494
1765877474.441257,494
1765877474.441269,494
1765877474.44128,494
1765877474.441292,495
1765877474.441304,496
1765877474.4413152,496
1765877474.441327,495
1765877474.4413388,494
1765877474.441354,493
1765877474.4413671,493
1765877474.4413812,493
1765877474.441393,494
1765877474.441406,494
1765877474.441417,495
1765877474.441429,495
1765877474.441448,495
1765877474.441463,495
1765877474.441476,495
1765877474.44149,494
1765877474.441504,494
1765877474.441518,494
1765877474.441532,495
1765877474.441546,496
1765877474.4415581,495
1765877474.441571,495
1765877474.4415832,496
1765877474.4415948,496
1765877474.441607,495
1765877474.441619,495
1765877474.441631,495
1765877474.441644,494
1765877474.441657,494
1765877474.44167,495
1765877474.4416819,494
1765877474.441695,494
1765877474.441708,495
1765877474.4417212,495
1765877474.441735,495
1765877474.441747,495
1765877474.441758,494
1765877474.44177,494
1765877474.4417841,494
1765877474.441799,494
1765877474.441818,494
1765877474.4418309,495
1765877474.441843,495
1765877474.4418612,495
1765877474.44194,494
1765877474.4419572,494
1765877474.441973,494
1765877474.4419909,494
1765877474.442006,495
1765877474.4420211,495
1765877474.442037,494
1765877474.4420521,495
1765877474.442067,495
1765877474.4420831,495
1765877474.442098,495
1765877474.442113,494
1765877474.442129,495
1765877474.442144,494
1765877474.4421601,494
1765877474.442175,495
1765877474.4421928,495
1765877474.442208,494
1765877474.442224,494
1765877474.442239,495
1765877474.442261,495
1765877474.4422789,495
1765877474.4422941,495
1765877474.4423099,495
1765877474.4423249,495
1765877474.442343,495
1765877474.442359,495
1765877474.442374,495
1765877474.442389,495
1765877474.4424052,495
1765877474.442421,494
1765877474.442436,494
1765877474.442451,495
1765877474.442467,495
1765877474.442482,495
1765877474.442497,495
1765877474.442513,494
1765877474.442528,494
1765877474.4425442,495
1765877474.442559,495
1765877474.442574,495
1765877474.442589,495
1765877474.442605,495
1765877474.4426198,495
1765877474.442635,495
1765877474.4426508,495
1765877474.442672,495
1765877474.4426901,495
1765877474.442705,495
1765877474.44272,495
1765877474.4427361,495
1765877474.442751,495
1765877474.4427671,494
1765877474.442782,494
1765877474.442805,494
1765877474.442831,494
1765877474.442846,494
1765877474.442865,495
1765877474.44288,495
1765877474.442896,495
1765877474.442911,494
1765877474.4429262,495
1765877474.442941,494
1765877474.4429572,494
1765877474.442972,495
1765877474.442988,495
1765877474.443003,494
1765877474.443019,495
1765877474.4430342,494
1765877474.44305,494
1765877474.4430652,494
1765877474.443081,494
1765877474.4430962,495
1765877474.443119,495
1765877474.443134,495
1765877474.44315,495
1765877474.4431648,495
1765877474.44318,494
1765877474.4431958,495
1765877474.443211,494
1765877474.4432268,495
1765877474.443242,495
1765877474.443257,496
1765877474.443274,495
1765877474.44329,495
1765877474.443305,494
1765877474.44332,494
1765877474.443336,494
1765877474.443351,494
1765877474.4433658,495
1765877474.443382,495
1765877474.443397,495
1765877474.443413,496
1765877474.4434292,496
1765877474.443444,496
1765877474.44346,496
1765877474.443475,496
1765877474.44349,496
1765877474.443506,496
1765877474.443525,496
1765877474.443588,496
1765877474.443601,496
1765877474.44365,496
1765877474.443667,496
1765877474.4436831,496
1765877474.443698,496
1765877474.443728,496
1765877474.443747,495
1765877474.4437602,495
1765877474.443775,495
1765877474.4437902,495
1765877474.443833,495
1765877474.443897,496
1765877474.443937,495
1765877474.443958,494
1765877474.4439738,494
1765877474.44399,494
1765877474.444006,495
1765877474.444022,495
1765877474.444056,496
1765877474.444222,495
1765877474.44425,495
1765877474.444282,495
1765877474.44433,495
1765877474.444361,495
1765877474.444384,495
1765877474.444396,495
1765877474.4444082,495
1765877474.44442,495
1765877474.4444318,495
1765877474.444443,494
1765877474.444454,494
1765877474.444465,495
1765877474.4444768,495
1765877474.444488,495
1765877474.444499,494
1765877474.444511,495
1765877474.444522,495
1765877474.444533,495
1765877474.444544,495
1765877474.444555,494
1765877474.444567,495
1765877474.444578,495
1765877474.4445891,495
1765877474.4446,495
1765877474.444612,494
1765877474.444623,495
1765877474.4446342,494
1765877474.4446452,494
1765877474.4446568,494
1765877474.4446678,494
1765877474.444681,494
1765877474.444694,494
1765877474.444705,494
1765877474.4447172,494
1765877474.4447281,494
1765877474.44474,494
1765877474.4447548,494
1765877474.444771,495
1765877474.444787,496
1765877474.444802,495
1765877474.444818,495
1765877474.444833,495
1765877474.444849,495
1765877474.444865,495
1765877474.4448798,495
1765877474.444895,495
1765877474.444911,494
1765877474.444926,494
1765877474.444941,495
1765877474.444957,494
1765877474.444972,494
1765877474.4449868,495
1765877474.445003,495
1765877474.445018,496
1765877474.445034,496
1765877474.445049,494
1765877474.445067,496
1765877474.445083,495
1765877474.445099,495
1765877474.4451141,495
1765877474.445247,496
1765877474.4452639,495
1765877474.44528,495
1765877474.445295,495
1765877474.445311,494
1765877474.445327,494
1765877474.445343,494
1765877474.445358,494
1765877474.445374,494
1765877474.445389,494
1765877474.445463,494
1765877474.445507,494
1765877474.445525,494
1765877474.4455411,494
1765877474.445556,495
1765877474.4455721,495
1765877474.445587,496
1765877474.445602,495
1765877474.4456582,494
1765877474.4456801,494
1765877474.445696,495
1765877474.4457128,495
1765877474.445728,495
1765877474.44575,495
1765877474.445765,494
1765877474.445781,494
1765877474.445809,494
1765877474.445825,494
1765877474.4458392,494
1765877474.445853,494
1765877474.4458659,494
1765877474.445879,494
1765877474.445892,494
1765877474.445906,495
1765877474.445919,495
1765877474.4459321,495
1765877474.445945,495
1765877474.445958,495
1765877474.445971,495
1765877474.445985,495
1765877474.4459982,494
1765877474.4460108,495
1765877474.446025,494
1765877474.446038,494
1765877474.4460511,494
1765877474.446089,494
1765877474.446103,493
1765877474.4461172,494
1765877474.44613,494
1765877474.446149,495
1765877474.446162,495
1765877474.4461749,495
1765877474.446188,495
1765877474.446201,495
1765877474.446215,495
1765877474.446228,496
1765877474.4462411,495
1765877474.446254,495
1765877474.446267,495
1765877474.44628,495
1765877474.446294,495
1765877474.4463072,495
1765877474.44632,496
1765877474.446334,496
1765877474.446347,495
1765877474.44636,495
1765877474.4463732,495
1765877474.446387,495
1765877474.4464,495
1765877474.446413,495
1765877474.4464262,495
1765877474.446439,494
1765877474.446453,495
1765877474.446466,495
1765877474.446479,495
1765877474.446496,495
1765877474.44651,495
1765877474.446523,495
1765877474.446537,494
1765877474.4465501,494
1765877474.4465642,494
1765877474.4465768,495
1765877474.44659,495
1765877474.446604,495
1765877474.446618,495
1765877474.446631,495
1765877474.446644,495
1765877474.446657,496
1765877474.446671,496
1765877474.4466848,496
1765877474.446698,495
1765877474.446711,495
1765877474.4467251,495
1765877474.446738,496
1765877474.4467509,496
1765877474.446764,496
1765877474.446778,496
1765877474.446791,495
1765877474.446804,496
1765877474.446818,496
1765877474.446831,495
1765877474.446856,495
1765877474.446869,495
1765877474.446883,495
1765877474.446896,495
1765877474.446909,494
1765877474.446923,494
1765877474.4469361,494
1765877474.446949,495
1765877474.4469628,495
1765877474.446976,494
1765877474.446989,495
1765877474.447003,495
1765877474.447016,495
1765877474.4470289,495
1765877474.4470432,495
1765877474.4470558,494
1765877474.447069,495
1765877474.447083,494
1765877474.447096,494
1765877474.4471092,495
1765877474.4471219,495
1765877474.447136,494
1765877474.447149,494
1765877474.4471629,494
1765877474.447181,495
1765877474.447194,495
1765877474.44721,495
1765877474.4472241,495
1765877474.447238,495
1765877474.4472508,495
1765877474.447264,495
1765877474.447277,496
1765877474.447291,496
1765877474.447304,496
1765877474.447317,495
1765877474.4473312,495
1765877474.447344,495
1765877474.447357,495
1765877474.44737,494
1765877474.447383,496
1765877474.4473972,495
1765877474.4474099,495
1765877474.447424,494
1765877474.447437,495
1765877474.4474509,494
1765877474.447464,495
1765877474.447477,495
1765877474.4474912,495
1765877474.4475038,495
1765877474.447517,495
1765877474.44753,495
1765877474.4475431,495
1765877474.4475589,495
1765877474.447573,494
1765877474.447586,495
1765877474.4475992,494
1765877474.447613,495
1765877474.4476259,495
1765877474.4476402,495
1765877474.447653,495
1765877474.447667,495
1765877474.44768,495
1765877474.447693,496
1765877474.4477062,495
1765877474.4477189,496
1765877474.447733,497
1765877474.447746,496
1765877474.4477592,496
1765877474.447773,496
1765877474.447786,495
1765877474.447799,495
1765877474.447813,494
1765877474.447826,494
1765877474.447839,494
1765877474.447853,493
1765877474.4478662,494
1765877474.4478788,494
1765877474.447892,495
1765877474.447906,495
1765877474.447922,495
1765877474.4479349,495
1765877474.4479492,496
1765877474.447962,496
1765877474.447975,496
1765877474.447988,496
1765877474.448002,496
1765877474.4480152,496
1765877474.4480278,496
1765877474.448042,496
1765877474.448055,496
1765877474.4480681,496
1765877474.4480808,496
1765877474.448095,496
1765877474.448108,496
1765877474.448122,496
1765877474.448135,497
1765877474.448148,496
1765877474.4481611,495
1765877474.448174,494
1765877474.4481869,494
1765877474.4482,494
1765877474.448214,495
1765877474.4482281,495
1765877474.448241,496
1765877474.4482539,496
1765877474.448272,495
1765877474.4482849,495
1765877474.448298,494
1765877474.448312,495
1765877474.4483252,496
1765877474.448339,496
1765877474.448352,496
1765877474.448365,495
1765877474.4483788,494
1765877474.448392,494
1765877474.4484081,494
1765877474.448421,494
1765877474.4484322,495
1765877474.448444,495
1765877474.4484549,496
1765877474.448467,497
1765877474.448478,496
1765877474.44849,496
1765877474.448501,497
1765877474.448513,496
1765877474.448524,493
1765877474.448535,493
1765877474.4485471,493
1765877474.448559,493
1765877474.44857,493
1765877474.448582,493
1765877474.448597,495
1765877474.44861,495
1765877474.448621,496
1765877474.4486332,497
1765877474.4486442,497
1765877474.4486551,496
1765877474.448666,495
1765877474.4486778,496
1765877474.44869,497
1765877474.448701,496
1765877474.448713,496
1765877474.448724,496
1765877474.448736,495
1765877474.448747,495
1765877474.448759,494
1765877474.448771,494
1765877474.448782,495
1765877474.4487941,496
1765877474.448861,495
1765877474.4489138,494
1765877474.448972,495
1765877474.448985,494
1765877474.448998,493
1765877474.449012,496
1765877474.449025,495
1765877474.449038,494
1765877474.449055,495
1765877474.44907,496
1765877474.4490829,497
1765877474.449097,497
1765877474.44911,496
1765877474.4491231,496
1765877474.449136,496
1765877474.449149,496
1765877474.449162,496
1765877474.449176,496
1765877474.4491892,496
1765877474.4492018,496
1765877474.449215,496
1765877474.449228,496
1765877474.4492412,497
1765877474.4492538,498
1765877474.449267,498
1765877474.44928,498
1765877474.4492931,498
1765877474.449306,498
1765877474.449319,495
1765877474.449333,493
1765877474.449346,492
1765877474.449454,494
1765877474.449468,494
1765877474.449481,494
1765877474.449497,494
1765877474.4495108,495
1765877474.4495249,495
1765877474.449538,495
1765877474.449551,496
1765877474.449565,495
1765877474.449578,496
1765877474.449591,496
1765877474.4496052,496
1765877474.4496179,496
1765877474.449632,497
1765877474.449645,496
1765877474.4496582,495
1765877474.449672,493
1765877474.449685,493
1765877474.449698,494
1765877474.449711,494
1765877474.449724,494
1765877474.449738,495
1765877474.4497511,495
1765877474.4497652,495
1765877474.4497778,496
1765877474.449791,496
1765877474.449805,497
1765877474.4498181,497
1765877474.449831,497
1765877474.4498591,495
1765877474.449873,495
1765877474.4498858,496
1765877474.4499002,496
1765877474.449913,495
1765877474.449926,494
1765877474.449939,494
1765877474.449953,494
1765877474.4499662,495
1765877474.4499788,495
1765877474.449992,495
1765877474.450006,496
1765877474.4500191,496
1765877474.4500322,495
1765877474.450046,495
1765877474.450059,495
1765877474.450072,495
1765877474.4500852,494
1765877474.450099,495
1765877474.450112,495
1765877474.450125,496
1765877474.450138,495
1765877474.450151,495
1765877474.450165,496
1765877474.4501781,496
1765877474.450191,495
1765877474.450207,495
1765877474.450221,496
1765877474.4502342,495
1765877474.450248,495
1765877474.4502609,495
1765877474.450274,495
1765877474.450288,495
1765877474.450301,495
1765877474.450314,495
1765877474.4503272,496
1765877474.4503412,496
1765877474.4503539,495
1765877474.450367,497
1765877474.450381,497
1765877474.4503942,497
1765877474.450407,496
1765877474.45042,497
1765877474.450434,496
1765877474.450447,495
1765877474.450461,495
1765877474.450474,494
1765877474.4504871,494
1765877474.4505012,494
1765877474.4505138,495
1765877474.450527,495
1765877474.45054,494
1765877474.4505541,494
1765877474.450571,495
1765877474.4505842,496
1765877474.450597,496
1765877474.4506109,497
1765877474.450624,496
1765877474.450637,495
1765877474.4506502,496
1765877474.450664,496
1765877474.450678,495
1765877474.450691,494
1765877474.4507039,494
1765877474.450717,495
1765877474.45073,495
1765877474.4507442,496
1765877474.450757,495
1765877474.4507709,494
1765877474.450784,494
1765877474.450798,495
1765877474.450811,495
1765877474.450824,495
1765877474.450837,496
1765877474.450851,496
1765877474.450864,496
1765877474.450878,496
1765877474.450891,497
1765877474.4509041,496
1765877474.450923,497
1765877474.450937,496
1765877474.45095,495
1765877474.450963,494
1765877474.450977,495
1765877474.4509912,495
1765877474.4510038,496
1765877474.451018,495
1765877474.451031,494
1765877474.451044,494
1765877474.451058,494
1765877474.451073,494
1765877474.451086,494
1765877474.4510999,495
1765877474.451113,495
1765877474.451126,495
1765877474.4511402,495
1765877474.4511528,495
1765877474.4511669,495
1765877474.45118,494
1765877474.451193,495
1765877474.451206,495
1765877474.45122,495
1765877474.451233,494
1765877474.451246,495
1765877474.451259,495
1765877474.4512792,495
1765877474.4512918,495
1765877474.451305,495
1765877474.451318,495
1765877474.451332,496
1765877474.451345,495
1765877474.4513578,495
1765877474.451371,495
1765877474.451385,495
1765877474.451398,494
1765877474.451411,495
1765877474.451424,495
1765877474.4514382,495
1765877474.4514508,495
1765877474.451464,495
1765877474.451477,495
1765877474.451491,495
1765877474.4515042,496
1765877474.4515169,495
1765877474.451531,495
1765877474.451544,495
1765877474.4515579,495
1765877474.451571,494
1765877474.451584,495
1765877474.451597,495
1765877474.4516108,495
1765877474.451627,495
1765877474.451641,495
1765877474.451654,495
1765877474.4516668,494
1765877474.4516811,495
1765877474.451694,495
1765877474.4517078,495
1765877474.451721,495
1765877474.451735,495
1765877474.4517481,495
1765877474.451762,495
1765877474.451773,495
1765877474.4517848,495
1765877474.451796,495
1765877474.451807,496
1765877474.451818,495
1765877474.45183,495
1765877474.451842,495
1765877474.451853,495
1765877474.451864,495
1765877474.4518762,495
1765877474.4518871,495
1765877474.4518988,495
1765877474.4519098,495
1765877474.451921,495
1765877474.451933,495
1765877474.451947,495
1765877474.451958,495
1765877474.45197,495
1765877474.451981,495
1765877474.451993,495
1765877474.4520042,495
1765877474.4520152,495
1765877474.4520268,495
1765877474.4520378,495
1765877474.45205,495
1765877474.452061,495
1765877474.452072,495
1765877474.452084,495
1765877474.452095,495
1765877474.452106,495
1765877474.452117,495
1765877474.4521291,495
1765877474.45214,495
1765877474.452152,495
1765877474.452163,495
1765877474.4521742,496
1765877474.4521852,495
1765877474.452197,495
1765877474.452208,496
1765877474.4522188,496
1765877474.452231,495
1765877474.452244,495
1765877474.452257,496
1765877474.4522681,495
1765877474.452279,495
1765877474.45229,494
1765877474.452302,494
1765877474.4523132,493
1765877474.4523242,495
1765877474.452336,496
1765877474.4523468,495
1765877474.452359,496
1765877474.45237,495
1765877474.4523818,495
1765877474.452398,495
1765877474.4524102,495
1765877474.4524212,495
1765877474.4524329,495
1765877474.452445,495
1765877474.452457,496
1765877474.452468,495
1765877474.452479,495
1765877474.452491,496
1765877474.452502,495
1765877474.452514,497
1765877474.4525251,496
1765877474.452537,496
1765877474.452548,495
1765877474.452567,495
1765877474.452578,494
1765877474.452589,495
1765877474.4526,494
1765877474.4526122,494
1765877474.4526231,494
1765877474.452634,494
1765877474.452645,495
1765877474.452657,494
1765877474.452668,495
1765877474.452679,495
1765877474.4526908,496
1765877474.452702,495
1765877474.452713,495
1765877474.452724,495
1765877474.452735,496
1765877474.4528,495
1765877474.452811,495
1765877474.452823,495
1765877474.452835,495
1765877474.452846,495
1765877474.4528582,495
1765877474.4528692,495
1765877474.4528809,495
1765877474.4528918,495
1765877474.4529028,495
1765877474.452918,495
1765877474.452929,495
1765877474.45294,494
1765877474.452951,495
1765877474.452963,495
1765877474.452974,495
1765877474.452985,495
1765877474.452996,495
1765877474.453008,495
1765877474.453019,495
1765877474.4530299,495
1765877474.453042,495
1765877474.453053,495
1765877474.453065,495
1765877474.453076,496
1765877474.453088,495
1765877474.453099,495
1765877474.45311,495
1765877474.453121,495
1765877474.453132,495
1765877474.4531431,495
1765877474.453155,495
1765877474.453166,496
1765877474.4531782,496
1765877474.4531891,495
1765877474.4531999,495
1765877474.453214,496
1765877474.453227,495
1765877474.453238,495
1765877474.45325,494
1765877474.4532611,495
1765877474.453272,496
1765877474.453283,495
1765877474.453295,495
1765877474.4533062,495
1765877474.4533179,495
1765877474.4533288,495
1765877474.453341,495
1765877474.453352,495
1765877474.453363,495
1765877474.4533749,495
1765877474.453387,496
1765877474.453398,495
1765877474.4534101,496
1765877474.453421,496
1765877474.453432,495
1765877474.453444,496
1765877474.4534552,496
1765877474.453467,496
1765877474.45348,496
1765877474.453491,495
1765877474.453503,494
1765877474.453517,495
1765877474.4535291,495
1765877474.453541,496
1765877474.4535522,495
1765877474.453564,495
1765877474.453575,495
1765877474.4535859,495
1765877474.453598,495
1765877474.453609,495
1765877474.45362,495
1765877474.453632,496
1765877474.453643,496
1765877474.453655,496
1765877474.453666,496
1765877474.4536781,497
1765877474.453689,497
1765877474.4537,496
1765877474.453712,496
1765877474.453723,497
1765877474.453734,497
1765877474.453745,497
1765877474.4537568,496
1765877474.453768,496
1765877474.453779,496
1765877474.453791,496
1765877474.4538019,496
1765877474.453813,496
1765877474.453828,497
1765877474.453839,496
1765877474.45385,496
1765877474.4538612,496
1765877474.453873,496
1765877474.453884,496
1765877474.4538949,495
1765877474.4539058,495
1765877474.453918,496
1765877474.453929,496
1765877474.453941,496
1765877474.453952,496
1765877474.453963,495
1765877474.453974,495
1765877474.453986,495
1765877474.4539971,495
1765877474.454008,495
1765877474.45402,495
1765877474.454031,495
1765877474.454043,495
1765877474.4540539,495
1765877474.4540648,495
1765877474.454077,495
1765877474.454088,495
1765877474.4541,495
1765877474.4541109,495
1765877474.4541261,495
1765877474.454138,495
1765877474.454149,495
1765877474.454161,496
1765877474.454172,495
1765877474.4541838,495
1765877474.454195,495
1765877474.454207,495
1765877474.454218,495
1765877474.45423,495
1765877474.454241,495
1765877474.454252,494
1765877474.4542642,495
1765877474.4542751,495
1765877474.454287,495
1765877474.454298,495
1765877474.45431,496
1765877474.454321,495
1765877474.4543328,495
1765877474.454344,494
1765877474.454356,494
1765877474.454367,494
1765877474.454379,494
1765877474.45439,495
1765877474.454402,494
1765877474.4544141,494
1765877474.4544268,495
1765877474.4544399,495
1765877474.4544508,495
1765877474.454463,494
1765877474.454475,495
1765877474.4544861,495
1765877474.454498,495
1765877474.454509,495
1765877474.4545212,495
1765877474.4545321,495
1765877474.4545438,495
1765877474.4545548,495
1765877474.454567,494
1765877474.454578,495
1765877474.454589,495
1765877474.454601,495
1765877474.454613,495
1765877474.454624,494
1765877474.454636,495
1765877474.454647,495
1765877474.454659,495
1765877474.4546702,494
1765877474.4546812,495
1765877474.4546921,495
1765877474.454704,495
1765877474.4547148,495
1765877474.454727,494
1765877474.454742,494
1765877474.454753,494
1765877474.454765,494
1765877474.454777,495
1765877474.4547882,494
1765877474.4548,494
1765877474.4548109,495
1765877474.454823,494
1765877474.454834,495
1765877474.454845,494
1765877474.4548569,494
1765877474.454868,494
1765877474.45488,494
1765877474.454891,494
1765877474.4549031,494
1765877474.454915,494
1765877474.454926,494
1765877474.4549382,494
1765877474.4549491,495
1765877474.45496,494
1765877474.4549708,495
1765877474.454983,494
1765877474.454995,494
1765877474.455006,495
1765877474.4550169,494
1765877474.455028,495
1765877474.4550421,494
1765877474.455055,495
1765877474.4550662,496
1765877474.4550772,495
1765877474.4550889,495
1765877474.4550998,494
1765877474.455111,495
1765877474.455123,495
1765877474.455134,495
1765877474.455145,495
1765877474.4551558,495
1765877474.455167,495
1765877474.455179,495
1765877474.45519,496
1765877474.455202,495
1765877474.455213,495
1765877474.455224,495
1765877474.455235,496
1765877474.455246,495
1765877474.4552581,495
1765877474.455269,495
1765877474.45528,495
1765877474.455292,495
1765877474.455304,496
1765877474.4553149,495
1765877474.4553258,495
1765877474.455355,494
1765877474.455368,495
1765877474.455379,495
1765877474.45539,495
1765877474.455401,495
1765877474.455412,495
1765877474.455424,495
1765877474.455436,495
1765877474.455447,494
1765877474.4554582,495
1765877474.45547,495
1765877474.455541,494
1765877474.455553,495
1765877474.455564,495
1765877474.4555762,495
1765877474.4555871,494
1765877474.455598,495
1765877474.455609,495
1765877474.455621,494
1765877474.455632,494
1765877474.455644,495
1765877474.4556549,495
1765877474.455667,495
1765877474.455678,495
1765877474.455689,495
1765877474.4557009,495
1765877474.455712,495
1765877474.455728,494
1765877474.4557388,494
1765877474.455751,494
1765877474.455762,495
1765877474.455774,494
1765877474.455785,494
1765877474.455797,494
1765877474.455808,494
1765877474.4559202,494
1765877474.455932,495
1765877474.4559429,494
1765877474.455955,495
1765877474.455966,494
1765877474.455977,495
1765877474.455989,495
1765877474.456,495
1765877474.456012,495
1765877474.456023,494
1765877474.4560351,495
1765877474.456046,494
1765877474.456057,495
1765877474.4560692,495
1765877474.45608,495
1765877474.456092,494
1765877474.4561028,495
1765877474.456115,495
1765877474.456129,494
1765877474.456141,494
1765877474.456152,494
1765877474.4561632,494
1765877474.456175,495
1765877474.456186,494
1765877474.456197,494
1765877474.456209,494
1765877474.45622,494
1765877474.4562318,495
1765877474.456243,495
1765877474.456254,494
1765877474.456266,495
1765877474.456277,495
1765877474.456288,494
1765877474.456299,495
1765877474.456311,494
1765877474.456322,494
1765877474.456334,494
1765877474.456345,494
1765877474.456357,495
1765877474.4563682,495
1765877474.456379,495
1765877474.4563909,495
1765877474.4564018,495
1765877474.456413,495
1765877474.456427,495
1765877474.456439,495
1765877474.45645,495
1765877474.4564621,494
1765877474.456473,494
1765877474.456484,494
1765877474.456495,494
1765877474.456507,493
1765877474.456518,494
1765877474.456529,495
1765877474.4565408,494
1765877474.456552,494
1765877474.456563,494
1765877474.456575,495
1765877474.456587,495
1765877474.456598,495
1765877474.45661,495
1765877474.4566212,495
1765877474.4566321,495
1765877474.456643,494
1765877474.456655,494
1765877474.4566662,494
1765877474.4566772,494
1765877474.456689,495
1765877474.4566998,495
1765877474.4567108,495
1765877474.456725,495
1765877474.456737,495
1765877474.456748,495
1765877474.4567602,495
1765877474.4567711,495
1765877474.456783,495
1765877474.456794,495
1765877474.4568052,494
1765877474.4568162,494
1765877474.4568279,495
1765877474.4568388,495
1765877474.4568498,495
1765877474.456861,495
1765877474.456872,495
1765877474.456884,495
1765877474.4568949,495
1765877474.456906,495
1765877474.456917,495
1765877474.456929,495
1765877474.45694,495
1765877474.4569511,495
1765877474.456962,495
1765877474.456973,495
1765877474.456985,495
1765877474.4569962,495
1765877474.4570072,494
1765877474.4570198,495
1765877474.457033,495
1765877474.457044,495
1765877474.457055,495
1765877474.457066,495
1765877474.457078,494
1765877474.457089,495
1765877474.4571,495
1765877474.4571111,494
1765877474.457123,494
1765877474.457134,494
1765877474.457145,494
1765877474.4571562,495
1765877474.4571679,495
1765877474.4571788,495
1765877474.4571898,495
1765877474.457201,495
1765877474.457212,495
1765877474.457224,495
1765877474.4572349,495
1765877474.457246,495
1765877474.457258,495
1765877474.457269,495
1765877474.45728,494
1765877474.4572911,495
1765877474.457303,495
1765877474.457314,495
1765877474.45733,495
1765877474.457341,495
1765877474.4573529,495
1765877474.457365,495
1765877474.457376,495
1765877474.457387,495
1765877474.4573991,495
1765877474.45741,495
1765877474.457422,495
1765877474.457433,495
1765877474.4574451,495
1765877474.457456,495
1765877474.4574668,495
1765877474.4574778,495
1765877474.45749,495
1765877474.457501,494
1765877474.457512,495
1765877474.457524,495
1765877474.457535,495
1765877474.457547,495
1765877474.457558,495
1765877474.4575691,495
1765877474.45758,495
1765877474.457592,495
1765877474.457603,495
1765877474.4576142,495
1765877474.457629,495
1765877474.45764,495
1765877474.457651,495
1765877474.4576619,495
1765877474.457673,494
1765877474.457684,495
1765877474.457696,494
1765877474.457706,494
1765877474.457715,495
1765877474.4577248,495
1765877474.4577348,495
1765877474.4577448,495
1765877474.4577549,495
1765877474.457765,495
1765877474.457775,495
1765877474.4577851,495
1765877474.4577951,495
1765877474.457804,495
1765877474.457814,495
1765877474.457824,495
1765877474.457835,495
1765877474.457844,495
1765877474.457854,495
1765877474.457865,495
1765877474.459489,495
1765877474.4595,495
1765877474.4595149,495
1765877474.459529,495
1765877474.459539,496
1765877474.459549,496
1765877474.459559,496
1765877474.459569,496
1765877474.459579,496
1765877474.459589,497
1765877474.459599,496
1765877474.459609,496
1765877474.459619,497
1765877474.459629,497
1765877474.45964,497
1765877474.45965,497
1765877474.45966,496
1765877474.4596689,497
1765877474.459679,497
1765877474.45969,496
1765877474.4596999,496
1765877474.45971,496
1765877474.45972,495
1765877474.45973,495
1765877474.4597409,496
1765877474.45975,496
1765877474.459761,496
1765877474.4599721,496
1765877474.459983,495
1765877474.459997,495
1765877474.460008,496
1765877474.460018,495
1765877474.460028,495
1765877474.460038,496
1765877474.460048,495
1765877474.4600582,496
1765877474.460068,495
1765877474.4600792,496
1765877474.4600892,496
1765877474.460099,495
1765877474.460109,496
1765877474.460119,495
1765877474.46013,495
1765877474.46014,495
1765877474.46015,496
1765877474.46016,495
1765877474.460178,495
1765877474.460188,495
1765877474.460198,496
1765877474.460209,496
1765877474.460219,495
1765877474.4602292,495
1765877474.4602392,495
1765877474.4602492,495
1765877474.460259,496
1765877474.460272,495
1765877474.4602828,495
1765877474.460293,496
1765877474.4603038,495
1765877474.460314,495
1765877474.460324,495
1765877474.460334,495
1765877474.460345,495
1765877474.460355,495
1765877474.460365,495
1765877474.460375,495
1765877474.460386,495
1765877474.460396,496
1765877474.460406,496
1765877474.460416,495
1765877474.460426,496
1765877474.460437,496
1765877474.460447,495
1765877474.4604568,495
1765877474.4604669,495
1765877474.4604769,495
1765877474.4604878,495
1765877474.4604979,495
1765877474.4605079,495
1765877474.4605188,496
1765877474.4605289,495
1765877474.460542,495
1765877474.460652,496
1765877474.4606621,495
1765877474.460672,495
1765877474.460682,495
1765877474.460693,496
1765877474.460703,496
1765877474.460713,496
1765877474.460723,496
1765877474.460734,495
1765877474.460744,495
1765877474.460754,495
1765877474.460765,495
1765877474.460775,495
1765877474.460785,495
1765877474.460795,495
1765877474.4608052,495
1765877474.4608152,495
1765877474.4608252,495
1765877474.460835,495
1765877474.460845,495
1765877474.460855,496
1765877474.460865,495
1765877474.460875,495
1765877474.460885,496
1765877474.460895,496
1765877474.460908,496
1765877474.4609191,496
1765877474.460929,495
1765877474.460939,496
1765877474.460949,495
1765877474.460959,496
1765877474.460969,496
1765877474.460979,496
1765877474.460989,495
1765877474.461,495
1765877474.4610088,495
1765877474.4610188,495
1765877474.46103,495
1765877474.461039,496
1765877474.461049,496
1765877474.46106,496
1765877474.46107,495
1765877474.46108,495
1765877474.46109,496
1765877474.4611,495
1765877474.46111,495
1765877474.46112,495
1765877474.461129,495
1765877474.461139,496
1765877474.461149,496
1765877474.461159,496
1765877474.461171,496
1765877474.4611871,496
1765877474.4611971,496
1765877474.4612072,495
1765877474.461217,496
1765877474.461227,495
1765877474.461237,495
1765877474.461247,495
1765877474.461257,496
1765877474.461268,495
1765877474.461277,495
1765877474.461288,495
1765877474.461298,495
1765877474.461308,496
1765877474.4613178,497
1765877474.4613278,496
1765877474.461338,496
1765877474.461348,496
1765877474.461358,496
1765877474.461368,496
1765877474.461378,496
1765877474.461388,496
1765877474.4613981,496
1765877474.461408,496
1765877474.461418,496
1765877474.461428,496
1765877474.461438,495
1765877474.461451,495
1765877474.4614599,496
1765877474.46147,496
1765877474.46148,496
1765877474.46149,495
1765877474.4615,496
1765877474.461511,496
1765877474.461521,495
1765877474.461531,495
1765877474.4615412,495
1765877474.4615512,496
1765877474.4615622,496
1765877474.4615722,495
1765877474.4615831,495
1765877474.4615932,496
1765877474.4616032,495
1765877474.461613,494
1765877474.461623,495
1765877474.4616342,495
1765877474.461644,495
1765877474.461654,496
1765877474.461664,496
1765877474.461675,495
1765877474.461685,496
1765877474.461695,497
1765877474.461705,496
1765877474.461717,496
1765877474.461729,495
1765877474.461739,496
1765877474.461749,496
1765877474.461759,495
1765877474.46177,496
1765877474.46178,497
1765877474.4617898,495
1765877474.4617999,495
1765877474.4618099,495
1765877474.46182,496
1765877474.46183,496
1765877474.46184,496
1765877474.4618502,495
1765877474.4618602,496
1765877474.4618711,496
1765877474.46188,496
1765877474.4618912,496
1765877474.461901,496
1765877474.461911,495
1765877474.461921,495
1765877474.461931,495
1765877474.461942,496
1765877474.461951,495
1765877474.461962,495
1765877474.461972,496
1765877474.461984,495
1765877474.4619951,495
1765877474.462005,496
1765877474.462015,496
1765877474.462025,496
1765877474.462036,495
1765877474.462046,496
1765877474.462056,495
1765877474.462066,495
1765877474.462076,495
1765877474.462087,496
1765877474.462097,496
1765877474.462107,495
1765877474.462116,495
1765877474.4621272,495
1765877474.462137,495
1765877474.462147,495
1765877474.462157,495
1765877474.462168,496
1765877474.462178,496
1765877474.462188,495
1765877474.462198,495
1765877474.462208,496
1765877474.462218,496
1765877474.462228,496
1765877474.4622378,496
1765877474.4622478,496
1765877474.462261,496
1765877474.462272,496
1765877474.462282,496
1765877474.462292,496
1765877474.462302,496
1765877474.462312,495
1765877474.462322,496
1765877474.462332,495
1765877474.462343,495
1765877474.462353,495
1765877474.4623628,495
1765877474.462373,495
1765877474.462383,495
1765877474.462393,496
1765877474.462404,496
1765877474.462414,496
1765877474.462425,496
1765877474.462435,496
1765877474.462445,495
1765877474.462456,496
1765877474.462466,495
1765877474.462477,495
1765877474.462487,495
1765877474.462498,496
1765877474.462508,495
1765877474.462518,496
1765877474.4625332,495
1765877474.462544,496
1765877474.4625542,495
1765877474.462564,495
1765877474.462574,495
1765877474.462585,495
1765877474.462595,495
1765877474.462605,495
1765877474.462615,496
1765877474.462625,495
1765877474.462635,496
1765877474.462645,495
1765877474.462656,495
1765877474.462666,496
1765877474.462676,496
1765877474.462687,495
1765877474.462697,495
1765877474.462707,495
1765877474.462718,496
1765877474.462729,495
1765877474.462739,496
1765877474.462749,496
1765877474.46276,495
1765877474.46277,496
1765877474.46278,495
1765877474.4627898,496
1765877474.462805,496
1765877474.462817,495
1765877474.462827,495
1765877474.462837,495
1765877474.462847,495
1765877474.4628632,495
1765877474.462873,495
1765877474.462883,496
1765877474.462894,495
1765877474.462904,495
1765877474.462914,496
1765877474.462924,496
1765877474.462934,495
1765877474.462944,495
1765877474.462954,496
1765877474.462964,495
1765877474.4629738,495
1765877474.4629838,495
1765877474.4629939,495
1765877474.4630039,496
1765877474.463014,496
1765877474.4630241,495
1765877474.4630342,495
1765877474.4630442,495
1765877474.4630542,495
1765877474.463064,496
1765877474.463132,495
1765877474.463146,495
1765877474.463156,495
1765877474.463166,495
1765877474.463189,495
1765877474.4632,495
1765877474.4632099,495
1765877474.46322,495
1765877474.46323,495
1765877474.46324,496
1765877474.46325,495
1765877474.46326,496
1765877474.463271,495
1765877474.463281,496
1765877474.4632902,495
1765877474.4633012,495
1765877474.4633112,495
1765877474.463321,495
1765877474.463331,495
1765877474.463341,496
1765877474.463373,496
1765877474.463383,496
1765877474.463393,495
1765877474.463403,495
1765877474.463413,495
1765877474.463423,495
1765877474.463435,495
1765877474.463446,496
1765877474.463456,496
1765877474.463466,496
1765877474.463476,496
1765877474.463486,496
1765877474.463496,496
1765877474.463506,497
1765877474.463516,496
1765877474.4635258,495
1765877474.463536,495
1765877474.463546,496
1765877474.463556,496
1765877474.463566,496
1765877474.463576,497
1765877474.463586,497
1765877474.463596,497
1765877474.463606,497
1765877474.463616,496
1765877474.463626,497
1765877474.463636,497
1765877474.463646,496
1765877474.463655,496
1765877474.463666,497
1765877474.4636748,497
1765877474.463685,497
1765877474.463695,497
1765877474.463708,497
1765877474.463718,496
1765877474.4637282,496
1765877474.4637382,496
1765877474.463748,495
1765877474.463758,496
1765877474.463768,496
1765877474.463778,496
1765877474.463788,496
1765877474.463798,496
1765877474.463808,496
1765877474.463818,496
1765877474.463828,496
1765877474.4638379,496
1765877474.4638479,496
1765877474.463858,496
1765877474.463868,496
1765877474.4638772,496
1765877474.4638872,496
1765877474.463897,496
1765877474.463907,495
1765877474.463917,496
1765877474.463927,496
1765877474.463937,496
1765877474.463947,496
1765877474.463957,496
1765877474.463969,496
1765877474.46398,496
1765877474.46399,496
1765877474.464,496
1765877474.46401,496
1765877474.46402,496
1765877474.46403,496
1765877474.46404,496
1765877474.4640489,496
1765877474.4640589,496
1765877474.4640691,495
1765877474.4640791,496
1765877474.4640892,495
1765877474.4641001,495
1765877474.464109,495
1765877474.464119,495
1765877474.464129,495
1765877474.464139,496
1765877474.464149,496
1765877474.464159,496
1765877474.464169,496
1765877474.464179,496
1765877474.46419,496
1765877474.4642,495
1765877474.46421,496
1765877474.4642198,495
1765877474.464232,496
1765877474.464243,496
1765877474.464253,496
1765877474.464263,495
1765877474.464273,496
1765877474.464283,495
1765877474.464293,495
1765877474.464303,496
1765877474.464312,496
1765877474.464322,496
1765877474.464332,496
1765877474.464342,495
1765877474.464352,496
1765877474.464362,496
1765877474.464372,495
1765877474.464382,496
1765877474.464391,496
1765877474.464401,495
1765877474.4644108,496
1765877474.464421,496
1765877474.464431,495
1765877474.464442,496
1765877474.464451,496
1765877474.464461,496
1765877474.464471,496
1765877474.464481,496
1765877474.464491,495
1765877474.464504,496
1765877474.464514,496
1765877474.464524,496
1765877474.464534,496
1765877474.464544,496
1765877474.464554,496
1765877474.464564,495
1765877474.4645739,495
1765877474.4645839,495
1765877474.464594,496
1765877474.464604,496
1765877474.464614,496
1765877474.4646242,496
1765877474.4646342,496
1765877474.4646442,496
1765877474.464654,496
1765877474.464664,495
1765877474.464674,495
1765877474.464684,496
1765877474.464694,496
1765877474.464703,496
1765877474.4647129,496
1765877474.4647229,496
1765877474.464733,496
1765877474.464743,496
1765877474.464753,496
1765877474.4647648,495
1765877474.464776,496
1765877474.4647858,496
1765877474.4647958,496
1765877474.4648058,496
1765877474.464816,496
1765877474.464826,496
1765877474.4648352,496
1765877474.464845,496
1765877474.464855,496
1765877474.464865,496
1765877474.464875,496
1765877474.464885,496
1765877474.464895,495
1765877474.464905,495
1765877474.464915,495
1765877474.4649248,496
1765877474.4649348,496
1765877474.4649448,496
1765877474.4649541,496
1765877474.4649642,496
1765877474.4649742,496
1765877474.4649842,496
1765877474.464994,496
1765877474.465004,496
1765877474.465014,495
1765877474.465024,496
1765877474.465037,496
1765877474.4650471,496
1765877474.465058,496
1765877474.465068,497
1765877474.465077,496
1765877474.465087,496
1765877474.465097,496
1765877474.465107,496
1765877474.465117,497
1765877474.465127,496
1765877474.465137,496
1765877474.4651468,496
1765877474.465157,496
1765877474.465167,495
1765877474.465177,496
1765877474.465187,496
1765877474.465197,496
1765877474.465207,496
1765877474.465217,495
1765877474.465228,496
1765877474.465238,496
1765877474.465248,496
1765877474.465257,496
1765877474.465267,496
1765877474.465277,495
1765877474.465287,496
1765877474.465299,496
1765877474.4653099,496
1765877474.4653199,496
1765877474.46533,496
1765877474.46534,496
1765877474.46535,496
1765877474.46536,497
1765877474.4653702,496
1765877474.4653802,496
1765877474.46539,496
1765877474.4654,496
1765877474.4654112,496
1765877474.465423,496
1765877474.4654322,497
1765877474.465441,496
1765877474.46545,496
1765877474.4654589,496
1765877474.465468,496
1765877474.465476,496
1765877474.465485,496
1765877474.465494,496
1765877474.465503,496
1765877474.465512,496
1765877474.4655209,496
1765877474.4655302,496
1765877474.4655402,496
1765877474.465554,496
1765877474.4655628,496
1765877474.465572,496
1765877474.465581,496
1765877474.46559,496
1765877474.465599,495
1765877474.465608,496
1765877474.465617,496
1765877474.465626,496
1765877474.465635,495
1765877474.4656441,496
1765877474.465653,496
1765877474.465662,497
1765877474.4656708,496
1765877474.46568,496
1765877474.4656892,496
1765877474.465698,496
1765877474.4674828,496
1765877474.467493,496
1765877474.467502,496
1765877474.467511,496
1765877474.467521,496
1765877474.46753,496
1765877474.4675388,495
1765877474.467548,496
1765877474.4675572,496
1765877474.467566,496
1765877474.4675782,496
1765877474.4675882,496
1765877474.467598,496
1765877474.467607,496
1765877474.467616,496
1765877474.467625,496
1765877474.467634,496
1765877474.4676428,496
1765877474.467652,496
1765877474.4676611,496
1765877474.4676712,496
1765877474.467694,496
1765877474.467704,496
1765877474.467713,496
1765877474.467722,496
1765877474.467731,496
1765877474.4677398,496
1765877474.4677482,496
1765877474.467757,496
1765877474.467766,496
1765877474.4677749,496
1765877474.467784,496
1765877474.467793,495
1765877474.467802,495
1765877474.467811,495
1765877474.46782,495
1765877474.4678311,495
1765877474.46784,495
1765877474.46785,495
1765877474.467861,496
1765877474.46787,496
1765877474.4678788,496
1765877474.467888,496
1765877474.4678972,496
1765877474.467906,496
1765877474.467915,496
1765877474.4679239,496
1765877474.467933,496
1765877474.467941,496
1765877474.46795,496
1765877474.467959,496
1765877474.467968,496
1765877474.467977,496
1765877474.467987,496
1765877474.467996,496
1765877474.4680052,496
1765877474.468014,495
1765877474.468023,496
1765877474.468032,496
1765877474.468042,496
1765877474.46805,496
1765877474.4680588,496
1765877474.4680698,495
1765877474.46808,495
1765877474.4680908,496
1765877474.468101,496
1765877474.46811,495
1765877474.4681191,495
1765877474.468128,495
1765877474.468137,496
1765877474.468147,495
1765877474.4681559,496
1765877474.4681652,496
1765877474.468174,496
1765877474.468183,495
1765877474.468193,495
1765877474.4682019,495
1765877474.468211,496
1765877474.46822,495
1765877474.4682298,496
1765877474.468239,496
1765877474.4682481,495
1765877474.468257,496
1765877474.468266,496
1765877474.4682748,495
1765877474.468284,496
1765877474.468294,495
1765877474.4683032,495
1765877474.468312,495
1765877474.468321,495
1765877474.468331,495
1765877474.468343,496
1765877474.468352,496
1765877474.468361,496
1765877474.46837,496
1765877474.4683788,496
1765877474.468388,496
1765877474.4683971,496
1765877474.4684072,496
1765877474.468416,495
1765877474.468425,496
1765877474.4684339,496
1765877474.468443,495
1765877474.4684522,495
1765877474.468462,495
1765877474.468471,495
1765877474.46848,495
1765877474.468489,495
1765877474.468498,496
1765877474.4685068,495
1765877474.468516,495
1765877474.4685252,496
1765877474.468534,496
1765877474.468543,495
1765877474.4685519,495
1765877474.468561,496
1765877474.46857,495
1765877474.468582,495
1765877474.468593,496
1765877474.4686022,495
1765877474.468611,495
1765877474.468621,495
1765877474.46863,496
1765877474.468639,495
1765877474.468648,496
1765877474.4686568,496
1765877474.4686668,495
1765877474.468676,495
1765877474.4686852,495
1765877474.468694,495
1765877474.468704,496
1765877474.468713,495
1765877474.4687219,496
1765877474.468731,495
1765877474.4687412,496
1765877474.46875,496
1765877474.468759,497
1765877474.468768,497
1765877474.468777,497
1765877474.468787,496
1765877474.468796,497
1765877474.468805,497
1765877474.4688141,497
1765877474.468823,496
1765877474.468836,496
1765877474.468846,497
1765877474.4688551,497
1765877474.468864,496
1765877474.468873,495
1765877474.468883,497
1765877474.4688919,496
1765877474.4689012,497
1765877474.46891,496
1765877474.468919,497
1765877474.468928,496
1765877474.4689379,496
1765877474.468957,495
1765877474.4689658,496
1765877474.468975,495
1765877474.4689841,495
1765877474.468993,496
1765877474.469002,495
1765877474.4690108,495
1765877474.4690208,495
1765877474.46903,496
1765877474.4690392,495
1765877474.469048,495
1765877474.469057,495
1765877474.469066,495
1765877474.469075,495
1765877474.469087,495
1765877474.469097,495
1765877474.469106,495
1765877474.4691148,495
1765877474.469124,496
1765877474.4691331,495
1765877474.469142,495
1765877474.469152,495
1765877474.469161,495
1765877474.4691699,495
1765877474.469179,495
1765877474.4691882,495
1765877474.469197,495
1765877474.469206,495
1765877474.469215,495
1765877474.469224,495
1765877474.4692328,496
1765877474.469242,495
1765877474.4692512,495
1765877474.4692612,495
1765877474.46927,495
1765877474.469279,495
1765877474.4692879,495
1765877474.469297,495
1765877474.4693062,495
1765877474.469315,495
1765877474.4693298,495
1765877474.4693398,495
1765877474.4693491,495
1765877474.469358,496
1765877474.469367,496
1765877474.469376,495
1765877474.469385,495
1765877474.469394,495
1765877474.4694028,495
1765877474.469412,495
1765877474.4694211,496
1765877474.469431,495
1765877474.46944,496
1765877474.469449,495
1765877474.469459,495
1765877474.4694679,496
1765877474.4694772,496
1765877474.469486,495
1765877474.469495,495
1765877474.469505,495
1765877474.469514,495
1765877474.469523,495
1765877474.469532,496
1765877474.469541,495
1765877474.4695501,495
1765877474.4695601,495
1765877474.469575,495
1765877474.469585,495
1765877474.469594,495
1765877474.469603,495
1765877474.4696121,495
1765877474.469621,495
1765877474.469631,495
1765877474.46964,495
1765877474.4696488,495
1765877474.4696581,495
1765877474.4696681,495
1765877474.469677,495
1765877474.469686,495
1765877474.469695,496
1765877474.4697049,495
1765877474.469714,495
1765877474.469723,495
1765877474.469732,495
1765877474.469741,495
1765877474.46975,495
1765877474.46976,495
1765877474.469769,495
1765877474.4697778,495
1765877474.469787,495
1765877474.4697962,495
1765877474.469805,495
1765877474.4698172,495
1765877474.4698272,496
1765877474.469836,496
1765877474.469845,496
1765877474.4698539,496
1765877474.469863,495
1765877474.469888,495
1765877474.4699001,496
1765877474.46991,496
1765877474.469919,495
1765877474.469928,496
1765877474.4699368,495
1765877474.4699461,496
1765877474.469955,496
1765877474.469964,495
1765877474.469974,496
1765877474.4699829,496
1765877474.469992,496
1765877474.470001,495
1765877474.47001,496
1765877474.470019,495
1765877474.470028,496
1765877474.4700391,496
1765877474.4700491,495
1765877474.470057,495
1765877474.470067,496
1765877474.4700758,496
1765877474.470091,495
1765877474.4701319,496
1765877474.470141,495
1765877474.47015,495
1765877474.470159,496
1765877474.470168,495
1765877474.470177,495
1765877474.470186,495
1765877474.470195,495
1765877474.4702039,495
1765877474.4702132,495
1765877474.470222,495
1765877474.470231,495
1765877474.47024,495
1765877474.470249,496
1765877474.4702568,495
1765877474.470266,496
1765877474.4702752,495
1765877474.470285,495
1765877474.470294,496
1765877474.470303,495
1765877474.4703119,495
1765877474.470321,496
1765877474.47033,495
1765877474.470339,495
1765877474.4703481,495
1765877474.47036,495
1765877474.47037,496
1765877474.470379,495
1765877474.470388,495
1765877474.470397,496
1765877474.4704058,495
1765877474.470415,496
1765877474.4704242,495
1765877474.470433,496
1765877474.470442,496
1765877474.4704509,495
1765877474.47046,496
1765877474.4704692,495
1765877474.470478,495
1765877474.470487,495
1765877474.470496,495
1765877474.470505,495
1765877474.4705138,495
1765877474.4705229,495
1765877474.4705322,495
1765877474.470541,496
1765877474.47055,496
1765877474.470559,495
1765877474.47057,495
1765877474.470579,496
1765877474.4705868,495
1765877474.470598,495
1765877474.470609,496
1765877474.470618,495
1765877474.470627,495
1765877474.4706361,495
1765877474.470647,496
1765877474.470656,495
1765877474.470665,496
1765877474.470674,496
1765877474.4706829,495
1765877474.4706922,496
1765877474.470701,495
1765877474.47071,495
1765877474.4707189,496
1765877474.470728,496
1765877474.470737,496
1765877474.470746,496
1765877474.470755,495
1765877474.470764,496
1765877474.470773,496
1765877474.470782,495
1765877474.4707909,495
1765877474.4708,495
1765877474.470808,496
1765877474.470818,495
1765877474.470827,495
1765877474.470836,496
1765877474.470846,495
1765877474.470857,495
1765877474.470866,495
1765877474.4708748,495
1765877474.4708831,495
1765877474.470892,496
1765877474.470901,496
1765877474.4709098,495
1765877474.470919,496
1765877474.470927,496
1765877474.470936,495
1765877474.4709451,495
1765877474.470954,495
1765877474.470963,495
1765877474.4709718,496
1765877474.4709811,495
1765877474.4709902,495
1765877474.470999,495
1765877474.471008,496
1765877474.471016,495
1765877474.471025,495
1765877474.471034,495
1765877474.471043,496
1765877474.471052,495
1765877474.471061,495
1765877474.47107,495
1765877474.471082,495
1765877474.471092,496
1765877474.471101,496
1765877474.4711099,496
1765877474.471118,495
1765877474.471127,495
1765877474.471136,495
1765877474.471145,495
1765877474.471154,495
1765877474.4711628,495
1765877474.471172,496
1765877474.4711812,495
1765877474.47119,495
1765877474.471199,496
1765877474.4712079,496
1765877474.471217,496
1765877474.4712262,496
1765877474.471235,496
1765877474.471244,496
1765877474.471253,496
1765877474.471262,496
1765877474.4712708,496
1765877474.47128,496
1765877474.4712892,496
1765877474.471298,496
1765877474.471307,496
1765877474.471318,496
1765877474.471328,495
1765877474.4713368,495
1765877474.471346,496
1765877474.471354,496
1765877474.471652,496
1765877474.471662,496
1765877474.471671,496
1765877474.47168,495
1765877474.471688,496
1765877474.4716969,495
1765877474.4717062,495
1765877474.471715,496
1765877474.471725,495
1765877474.471734,495
1765877474.471742,495
1765877474.471751,496
1765877474.4717598,495
1765877474.471769,496
1765877474.4717782,495
1765877474.471788,495
1765877474.471797,496
1765877474.471806,496
1765877474.4718149,496
1765877474.471824,496
1765877474.471833,496
1765877474.471842,495
1765877474.4718552,496
1765877474.471864,495
1765877474.471873,496
1765877474.4718819,495
1765877474.471891,496
1765877474.4719,495
1765877474.471909,495
1765877474.471918,495
1765877474.4719281,495
1765877474.471937,495
1765877474.471946,495
1765877474.471955,496
1765877474.471964,497
1765877474.4719732,496
1765877474.471982,495
1765877474.471991,495
1765877474.472001,495
1765877474.47226,496
1765877474.4722712,495
1765877474.47228,496
1765877474.47229,496
1765877474.472299,496
1765877474.472308,496
1765877474.472317,496
1765877474.4723258,496
1765877474.472335,496
1765877474.4723468,496
1765877474.472357,496
1765877474.472366,496
1765877474.472374,495
1765877474.472383,496
1765877474.4723918,496
1765877474.472401,496
1765877474.4724102,496
1765877474.472419,495
1765877474.472428,496
1765877474.472437,496
1765877474.472446,496
1765877474.472455,496
1765877474.4724638,496
1765877474.4724731,495
1765877474.472482,496
1765877474.472491,496
1765877474.4725,496
1765877474.472509,496
1765877474.472518,496
1765877474.472527,496
1765877474.472536,496
1765877474.472545,496
1765877474.472554,496
1765877474.472563,495
1765877474.472571,496
1765877474.4725819,496
1765877474.4725919,496
1765877474.4726012,496
1765877474.47261,497
1765877474.472619,497
1765877474.4726279,497
1765877474.472637,497
1765877474.472646,497
1765877474.472655,497
1765877474.472665,497
1765877474.4726741,497
1765877474.472682,497
1765877474.472691,497
1765877474.4726999,496
1765877474.4727092,497
1765877474.4727192,497
1765877474.472727,498
1765877474.472736,497
1765877474.472747,497
1765877474.472756,496
1765877474.472765,497
1765877474.4727738,495
1765877474.472783,496
1765877474.4727921,497
1765877474.472801,496
1765877474.47281,497
1765877474.4728189,497
1765877474.47283,496
1765877474.4728398,496
1765877474.472849,496
1765877474.4728582,496
1765877474.472866,496
1765877474.472875,496
1765877474.472884,496
1765877474.472893,496
1765877474.472908,496
1765877474.472917,496
1765877474.472926,496
1765877474.472935,496
1765877474.472944,496
1765877474.472953,496
1765877474.4729621,496
1765877474.47297,496
1765877474.4729788,496
1765877474.472988,496
1765877474.4729972,496
1765877474.473013,496
1765877474.473022,496
1765877474.4730299,496
1765877474.4730392,496
1765877474.473048,496
1765877474.473057,496
1765877474.473067,496
1765877474.473078,496
1765877474.473088,495
1765877474.4730968,495
1765877474.473106,496
1765877474.473116,495
1765877474.473127,495
1765877474.4731379,495
1765877474.4731479,496
1765877474.473154,496
1765877474.473161,496
1765877474.473168,496
1765877474.473174,496
1765877474.4731789,496
1765877474.473184,496
1765877474.473189,496
1765877474.473195,496
1765877474.4732,496
1765877474.473205,496
1765877474.47321,496
1765877474.4732149,496
1765877474.473221,496
1765877474.473226,496
1765877474.473231,496
1765877474.473236,496
1765877474.473242,496
1765877474.473247,495
1765877474.473252,496
1765877474.473259,496
1765877474.473265,496
1765877474.47327,495
1765877474.473276,496
1765877474.473281,496
1765877474.473286,496
1765877474.473291,496
1765877474.473296,496
1765877474.4733021,496
1765877474.473307,496
1765877474.473312,496
1765877474.4733171,496
1765877474.473322,496
1765877474.473328,497
1765877474.473333,496
1765877474.4733381,496
1765877474.473343,496
1765877474.473349,496
1765877474.473354,496
1765877474.473359,496
1765877474.4733639,496
1765877474.4733691,496
1765877474.473375,496
1765877474.47338,496
1765877474.473386,495
1765877474.473393,495
1765877474.473399,496
1765877474.473408,496
1765877474.473415,495
1765877474.4734201,496
1765877474.473425,496
1765877474.473431,496
1765877474.4734359,496
1765877474.4734411,496
1765877474.473446,496
1765877474.473451,495
1765877474.4734569,495
1765877474.473462,496
1765877474.4734669,496
1765877474.473472,496
1765877474.4734771,496
1765877474.473483,496
1765877474.4734879,496
1765877474.473493,496
1765877474.473498,496
1765877474.4735029,496
1765877474.473509,496
1765877474.473514,496
1765877474.473519,495
1765877474.4735239,496
1765877474.473529,495
1765877474.473535,496
1765877474.47354,496
1765877474.473546,496
1765877474.473553,496
1765877474.473558,496
1765877474.473563,495
1765877474.473569,495
1765877474.473574,495
1765877474.473579,496
1765877474.4735842,496
1765877474.473589,496
1765877474.473595,496
1765877474.4736,495
1765877474.4736052,495
1765877474.47361,496
1765877474.4736152,495
1765877474.473621,495
1765877474.4736261,496
1765877474.473631,496
1765877474.4736362,495
1765877474.4736419,495
1765877474.473647,495
1765877474.473652,495
1765877474.4736571,496
1765877474.473662,496
1765877474.473668,496
1765877474.4736729,496
1765877474.473678,495
1765877474.4736829,495
1765877474.47369,496
1765877474.473697,496
1765877474.473703,496
1765877474.473709,496
1765877474.4737139,496
1765877474.47372,496
1765877474.473726,495
1765877474.473731,495
1765877474.473737,496
1765877474.4737432,496
1765877474.473749,496
1765877474.4737542,496
1765877474.47376,496
1765877474.4737659,496
1765877474.473772,496
1765877474.4737768,495
1765877474.473783,495
1765877474.473789,495
1765877474.4737952,495
1765877474.4738,495
1765877474.4738061,495
1765877474.4743109,496
1765877474.4743161,496
1765877474.4743218,496
1765877474.474327,496
1765877474.4743319,496
1765877474.474337,496
1765877474.474344,495
1765877474.4743512,496
1765877474.474356,495
1765877474.4743612,496
1765877474.474366,496
1765877474.4743721,495
1765877474.474377,496
1765877474.4743822,496
1765877474.474387,496
1765877474.4743922,496
1765877474.474397,495
1765877474.4744031,495
1765877474.474408,496
1765877474.4744132,496
1765877474.474418,496
1765877474.474423,495
1765877474.47595,496
1765877474.475956,495
1765877474.4759622,495
1765877474.475968,495
1765877474.4759738,495
1765877474.47598,496
1765877474.475986,495
1765877474.475992,495
1765877474.475997,496
1765877474.4760032,495
1765877474.476009,496
1765877474.476017,495
1765877474.4760242,496
1765877474.4760299,496
1765877474.476036,495
1765877474.476042,496
1765877474.4760478,495
1765877474.476054,495
1765877474.47606,495
1765877474.476066,496
1765877474.4760718,496
1765877474.476078,495
1765877474.476083,495
1765877474.476089,496
1765877474.476095,496
1765877474.4761012,495
1765877474.4761071,495
1765877474.4761128,496
1765877474.476119,496
1765877474.476125,496
1765877474.476131,495
1765877474.476137,495
1765877474.4761431,495
1765877474.476149,496
1765877474.476154,495
1765877474.47616,496
1765877474.4761658,495
1765877474.476174,496
1765877474.476181,495
1765877474.476187,496
1765877474.476193,496
1765877474.476199,495
1765877474.476205,496
1765877474.4762108,495
1765877474.476217,495
1765877474.476223,495
1765877474.4762292,495
1765877474.476235,495
1765877474.4762409,495
1765877474.476249,495
1765877474.476256,495
1765877474.4762628,496
1765877474.4762702,496
1765877474.476278,495
1765877474.476285,495
1765877474.4762921,496
1765877474.476299,495
1765877474.476307,495
1765877474.476314,495
1765877474.476321,495
1765877474.476328,496
1765877474.4763362,495
1765877474.4763432,495
1765877474.4763489,495
1765877474.476356,495
1765877474.476363,495
1765877474.476369,495
1765877474.476375,496
1765877474.4763808,495
1765877474.476388,495
1765877474.476395,495
1765877474.4764018,496
1765877474.4764092,495
1765877474.476417,495
1765877474.476424,495
1765877474.4764311,495
1765877474.476438,495
1765877474.476444,495
1765877474.47645,495
1765877474.476456,496
1765877474.4764621,495
1765877474.476468,495
1765877474.476474,495
1765877474.47648,496
1765877474.476486,496
1765877474.476491,496
1765877474.476497,496
1765877474.4765031,496
1765877474.4765089,496
1765877474.476515,495
1765877474.476521,495
1765877474.4765282,496
1765877474.476535,495
1765877474.476541,496
1765877474.476547,495
1765877474.476553,495
1765877474.4765592,495
1765877474.476565,496
1765877474.476588,495
1765877474.476594,496
1765877474.476599,496
1765877474.476605,495
1765877474.476613,495
1765877474.47662,495
1765877474.476628,496
1765877474.476635,495
1765877474.4766421,495
1765877474.47665,496
1765877474.476657,495
1765877474.476664,495
1765877474.47667,496
1765877474.476676,495
1765877474.476682,496
1765877474.476688,495
1765877474.476696,496
1765877474.476703,496
1765877474.4767098,496
1765877474.476717,495
1765877474.476726,495
1765877474.476734,495
1765877474.4767401,496
1765877474.476746,495
1765877474.4767518,495
1765877474.476758,496
1765877474.476764,496
1765877474.4767702,496
1765877474.476777,496
1765877474.476785,495
1765877474.476792,495
1765877474.476799,496
1765877474.4768069,495
1765877474.476814,495
1765877474.476822,496
1765877474.4768288,495
1765877474.4768372,496
1765877474.476844,495
1765877474.476851,495
1765877474.4768581,496
1765877474.476866,496
1765877474.476872,496
1765877474.4768798,495
1765877474.4768908,495
1765877474.476898,496
1765877474.476906,496
1765877474.476915,495
1765877474.476924,496
1765877474.476932,495
1765877474.476938,496
1765877474.476945,495
1765877474.476952,495
1765877474.47696,495
1765877474.4769669,496
1765877474.476974,495
1765877474.476981,496
1765877474.476989,495
1765877474.4769962,496
1765877474.477003,496
1765877474.4770088,497
1765877474.477015,496
1765877474.477021,497
1765877474.4770272,497
1765877474.477033,496
1765877474.477039,496
1765877474.477045,496
1765877474.4770508,496
1765877474.477057,496
1765877474.4770648,496
1765877474.4770718,496
1765877474.4770792,496
1765877474.477087,498
1765877474.477094,496
1765877474.477103,496
1765877474.477111,497
1765877474.477118,496
1765877474.4771242,496
1765877474.47713,496
1765877474.477136,496
1765877474.477143,496
1765877474.47715,495
1765877474.477157,495
1765877474.477164,495
1765877474.477172,495
1765877474.4771788,496
1765877474.4771872,495
1765877474.477194,495
1765877474.4771998,495
1765877474.477206,496
1765877474.477212,495
1765877474.4772182,496
1765877474.477223,495
1765877474.477229,495
1765877474.4772348,495
1765877474.477241,495
1765877474.477247,495
1765877474.4772532,495
1765877474.47726,495
1765877474.477268,495
1765877474.477275,495
1765877474.4772842,495
1765877474.477292,495
1765877474.477299,495
1765877474.4773061,495
1765877474.477313,495
1765877474.477319,495
1765877474.4773262,495
1765877474.4773319,495
1765877474.477338,495
1765877474.477344,495
1765877474.47735,495
1765877474.477356,495
1765877474.477362,495
1765877474.477368,494
1765877474.4773738,495
1765877474.47738,495
1765877474.477386,495
1765877474.477392,496
1765877474.477398,496
1765877474.4774039,495
1765877474.47741,495
1765877474.4774148,496
1765877474.477421,495
1765877474.477427,496
1765877474.4774332,496
1765877474.477439,495
1765877474.4774468,495
1765877474.4774542,495
1765877474.477461,495
1765877474.4774668,495
1765877474.477473,494
1765877474.477479,495
1765877474.477485,495
1765877474.477491,495
1765877474.477497,495
1765877474.477512,495
1765877474.477519,495
1765877474.477526,495
1765877474.4775329,494
1765877474.47754,495
1765877474.4775481,496
1765877474.477555,494
1765877474.4775622,496
1765877474.477568,495
1765877474.4775739,495
1765877474.47758,495
1765877474.477586,495
1765877474.477613,495
1765877474.477619,495
1765877474.4776251,496
1765877474.477631,495
1765877474.477637,495
1765877474.477644,495
1765877474.477651,495
1765877474.477658,495
1765877474.477664,495
1765877474.4776692,496
1765877474.477674,495
1765877474.4776802,495
1765877474.477685,495
1765877474.4776902,495
1765877474.477696,494
1765877474.4777012,495
1765877474.477707,495
1765877474.477712,495
1765877474.477717,495
1765877474.477723,495
1765877474.477728,495
1765877474.4777331,495
1765877474.477739,495
1765877474.477744,495
1765877474.477749,495
1765877474.4777548,495
1765877474.47776,495
1765877474.4777658,495
1765877474.477771,495
1765877474.4777758,494
1765877474.477782,495
1765877474.4777868,495
1765877474.477792,494
1765877474.477799,495
1765877474.477806,495
1765877474.4778109,495
1765877474.477817,494
1765877474.477822,494
1765877474.477827,495
1765877474.4778318,496
1765877474.477838,496
1765877474.477843,495
1765877474.477848,495
1765877474.477854,495
1765877474.477859,494
1765877474.477864,495
1765877474.47787,495
1765877474.477875,495
1765877474.4778812,496
1765877474.477886,495
1765877474.4778922,495
1765877474.477897,495
1765877474.4779031,495
1765877474.477908,494
1765877474.477914,495
1765877474.4779189,494
1765877474.477924,495
1765877474.47793,495
1765877474.477935,495
1765877474.47794,495
1765877474.477948,495
1765877474.4779541,495
1765877474.4779599,495
1765877474.477965,494
1765877474.477973,495
1765877474.4779782,495
1765877474.477984,495
1765877474.4779892,495
1765877474.477994,495
1765877474.4780002,495
1765877474.478005,495
1765877474.478011,494
1765877474.4780211,495
1765877474.478028,495
1765877474.478036,495
1765877474.4780438,495
1765877474.4780512,495
1765877474.478059,495
1765877474.478066,495
1765877474.4780722,495
1765877474.478078,495
1765877474.4780831,495
1765877474.478088,495
1765877474.478094,495
1765877474.4780989,495
1765877474.478104,495
1765877474.478112,494
1765877474.478118,495
1765877474.4781241,495
1765877474.4781299,495
1765877474.4781382,495
1765877474.4781451,495
1765877474.478153,495
1765877474.47816,495
1765877474.478168,495
1765877474.478176,495
1765877474.4781818,494
1765877474.478187,494
1765877474.4781928,494
1765877474.478198,495
1765877474.478204,495
1765877474.478209,495
1765877474.4782138,495
1765877474.47822,495
1765877474.478227,495
1765877474.478234,495
1765877474.4782422,495
1765877474.478249,494
1765877474.478275,494
1765877474.478281,495
1765877474.478286,495
1765877474.478291,495
1765877474.478297,495
1765877474.478304,494
1765877474.4783099,494
1765877474.478316,495
1765877474.4783208,495
1765877474.478326,495
1765877474.4783318,495
1765877474.478337,495
1765877474.4783418,495
1765877474.478348,495
1765877474.4783528,495
1765877474.478359,494
1765877474.478364,495
1765877474.478369,495
1765877474.4783769,495
1765877474.478384,494
1765877474.4783921,495
1765877474.478399,495
1765877474.478407,495
1765877474.478414,495
1765877474.478422,495
1765877474.478427,494
1765877474.4784331,495
1765877474.478438,495
1765877474.478443,495
1765877474.4784489,495
1765877474.478454,495
1765877474.478459,494
1765877474.4784698,495
1765877474.4784782,495
1765877474.478486,495
1765877474.478494,495
1765877474.478501,494
1765877474.478509,495
1765877474.478517,494
1765877474.478524,494
1765877474.4785311,494
1765877474.4785368,494
1765877474.478542,495
1765877474.478548,494
1765877474.478553,495
1765877474.478559,494
1765877474.478564,495
1765877474.478569,495
1765877474.478575,495
1765877474.47858,495
1765877474.478585,495
1765877474.478591,495
1765877474.4785962,494
1765877474.478602,495
1765877474.4786072,495
1765877474.478613,494
1765877474.4786181,495
1765877474.478624,495
1765877474.478632,495
1765877474.478652,495
1765877474.478657,495
1765877474.4786618,495
1765877474.478668,495
1765877474.478673,495
1765877474.478678,495
1765877474.478684,494
1765877474.478689,494
1765877474.478695,495
1765877474.478701,494
1765877474.4787068,495
1765877474.478713,494
1765877474.478719,495
1765877474.4787252,495
1765877474.47873,494
1765877474.478736,495
1765877474.4787421,495
1765877474.4787478,495
1765877474.478754,494
1765877474.47876,495
1765877474.478766,495
1765877474.478772,495
1765877474.4787781,495
1765877474.478784,495
1765877474.4787898,495
1765877474.4787982,495
1765877474.478805,495
1765877474.4788108,495
1765877474.478817,495
1765877474.478823,495
1765877474.4788291,494
1765877474.4788349,495
1765877474.478841,494
1765877474.478847,495
1765877474.4788532,495
1765877474.478859,495
1765877474.478865,495
1765877474.478871,495
1765877474.4788759,495
1765877474.478882,495
1765877474.478888,495
1765877474.478894,494
1765877474.4789,494
1765877474.4789069,495
1765877474.478913,495
1765877474.478919,495
1765877474.478925,495
1765877474.478931,495
1765877474.4789371,495
1765877474.4789429,495
1765877474.478949,495
1765877474.478955,495
1765877474.478963,495
1765877474.4789708,495
1765877474.478976,495
1765877474.478982,495
1765877474.478988,495
1765877474.478994,495
1765877474.479001,495
1765877474.479007,495
1765877474.479014,494
1765877474.47902,495
1765877474.4790258,495
1765877474.479033,495
1765877474.47904,495
1765877474.479048,495
1765877474.479054,495
1765877474.47906,495
1765877474.4790661,495
1765877474.479072,495
1765877474.4790778,495
1765877474.479084,495
1765877474.47909,494
1765877474.4790962,495
1765877474.479102,495
1765877474.479108,495
1765877474.4791522,494
1765877474.479159,494
1765877474.4791648,496
1765877474.479178,495
1765877474.4791849,495
1765877474.479191,495
1765877474.479197,495
1765877474.479203,495
1765877474.479209,495
1765877474.4792142,495
1765877474.47922,495
1765877474.4792252,495
1765877474.47923,495
1765877474.4792361,495
1765877474.479241,496
1765877474.4792461,496
1765877474.479253,497
1765877474.47926,497
1765877474.479268,496
1765877474.479276,496
1765877474.4792829,496
1765877474.479291,496
1765877474.479298,496
1765877474.4793038,496
1765877474.479309,496
1765877474.4793139,497
1765877474.47932,496
1765877474.4793248,496
1765877474.47933,496
1765877474.479336,496
1765877474.4793432,496
1765877474.479349,496
1765877474.4793549,495
1765877474.47936,496
1765877474.479365,495
1765877474.479371,495
1765877474.479379,496
1765877474.479386,495
1765877474.479394,495
1765877474.4794009,495
1765877474.479409,495
1765877474.4794161,495
1765877474.479424,496
1765877474.479429,495
1765877474.479435,495
1765877474.47944,495
1765877474.479446,495
1765877474.479451,495
1765877474.479456,495
1765877474.479462,495
1765877474.479467,495
1765877474.4794729,495
1765877474.4794781,495
1765877474.4794838,495
1765877474.479489,495
1765877474.4794939,495
1765877474.4795,495
1765877474.479507,495
1765877474.4795132,495
1765877474.479519,495
1765877474.4795241,495
1765877474.479529,495
1765877474.479535,495
1765877474.4795399,495
1765877474.479545,495
1765877474.479551,495
1765877474.479556,495
1765877474.4795609,495
1765877474.479566,495
1765877474.479572,495
1765877474.479577,494
1765877474.4795818,495
1765877474.479588,494
1765877474.479593,495
1765877474.479599,496
1765877474.479604,495
1765877474.479609,495
1765877474.479614,495
1765877474.47962,495
1765877474.479625,494
1765877474.47963,495
1765877474.479635,495
1765877474.4796412,495
1765877474.479648,496
1765877474.479655,496
1765877474.47966,494
1765877474.479666,495
1765877474.479671,496
1765877474.479676,495
1765877474.479682,495
1765877474.479687,495
1765877474.479692,495
1765877474.479698,495
1765877474.479703,495
1765877474.479708,495
1765877474.4797142,495
1765877474.479719,495
1765877474.479724,495
1765877474.479729,495
1765877474.4797351,495
1765877474.47974,495
1765877474.479745,495
1765877474.4797509,495
1765877474.479756,495
1765877474.479761,496
1765877474.479767,495
1765877474.4797719,495
1765877474.479777,495
1765877474.4797819,495
1765877474.479788,495
1765877474.479795,495
1765877474.4798028,495
1765877474.479809,495
1765877474.4798138,494
1765877474.47982,494
1765877474.479826,495
1765877474.4798322,495
1765877474.479838,495
1765877474.479844,495
1765877474.47985,495
1765877474.47986,495
1765877474.479866,494
1765877474.479872,495
1765877474.479878,494
1765877474.479883,494
1765877474.479889,494
1765877474.479895,494
1765877474.4799008,495
1765877474.479907,495
1765877474.479913,495
1765877474.4799192,496
1765877474.479925,495
1765877474.4799309,495
1765877474.479937,495
1765877474.4799428,496
1765877474.479949,495
1765877474.479954,495
1765877474.479962,495
1765877474.479969,495
1765877474.479975,496
1765877474.479981,495
1765877474.479986,495
1765877474.4799922,495
1765877474.4799979,495
1765877474.480004,495
1765877474.48001,495
1765877474.4800158,495
1765877474.480022,495
1765877474.480028,495
1765877474.480034,495
1765877474.4800398,496
1765877474.480046,495
1765877474.480052,495
1765877474.4800582,495
1765877474.480064,495
1765877474.4800699,495
1765877474.480076,495
1765877474.480082,495
1765877474.480088,495
1765877474.480094,495
1765877474.480099,495
1765877474.480105,495
1765877474.4801111,495
1765877474.480117,495
1765877474.480124,495
1765877474.4801311,495
1765877474.4801369,495
1765877474.480143,495
1765877474.480149,495
1765877474.480155,494
1765877474.480161,495
1765877474.480166,495
1765877474.480172,495
1765877474.4801779,495
1765877474.480184,495
1765877474.48019,495
1765877474.480196,495
1765877474.480202,495
1765877474.480208,495
1765877474.480214,495
1765877474.4802198,495
1765877474.480226,495
1765877474.4802308,495
1765877474.480237,495
1765877474.480243,495
1765877474.4802492,495
1765877474.480255,495
1765877474.480261,496
1765877474.480267,495
1765877474.480273,495
1765877474.480278,495
1765877474.480286,496
1765877474.480294,495
1765877474.480302,495
1765877474.480309,495
1765877474.480316,495
1765877474.4803221,495
1765877474.4803278,495
1765877474.480333,495
1765877474.480339,495
1765877474.480345,495
1765877474.480351,495
1765877474.4803572,496
1765877474.480363,495
1765877474.4803689,495
1765877474.480375,495
1765877474.480381,495
1765877474.480387,495
1765877474.480393,495
1765877474.4803991,495
1765877474.480404,495
1765877474.48041,495
1765877474.480416,495
1765877474.480423,495
1765877474.4804301,495
1765877474.480437,495
1765877474.480445,495
1765877474.480452,495
1765877474.480459,495
1765877474.480465,494
1765877474.4804711,495
1765877474.4804769,494
1765877474.480483,495
1765877474.480489,495
1765877474.4804952,495
1765877474.480501,495
1765877474.480507,495
1765877474.480513,494
1765877474.4805188,495
1765877474.480524,494
1765877474.48053,495
1765877474.480536,495
1765877474.480542,495
1765877474.4805481,495
1765877474.4805539,495
1765877474.48056,495
1765877474.48057,495
1765877474.480577,495
1765877474.480584,495
1765877474.4805918,495
1765877474.480599,496
1765877474.480605,495
1765877474.4806101,495
1765877474.4806159,495
1765877474.4806242,495
1765877474.480631,495
1765877474.4806368,495
1765877474.480643,495
1765877474.480649,495
1765877474.4806552,495
1765877474.48066,495
1765877474.4806662,495
1765877474.480672,495
1765877474.4806788,494
1765877474.4806871,495
1765877474.480698,495
1765877474.480704,495
1765877474.4807098,495
1765877474.480717,495
1765877474.480723,494
1765877474.480729,494
1765877474.4807339,495
1765877474.48074,495
1765877474.480746,495
1765877474.4807522,495
1765877474.480758,495
1765877474.480764,495
1765877474.48077,495
1765877474.4807758,495
1765877474.480782,495
1765877474.480788,495
1765877474.480798,495
1765877474.4808059,495
1765877474.480812,495
1765877474.4808168,495
1765877474.480823,495
1765877474.4808278,494
1765877474.480834,495
1765877474.480839,495
1765877474.480844,495
1765877474.48085,495
1765877474.480855,495
1765877474.480861,495
1765877474.480866,495
1765877474.480871,495
1765877474.4808772,495
1765877474.480882,495
1765877474.480887,495
1765877474.480893,495
1765877474.4808981,495
1765877474.4809039,495
1765877474.480909,495
1765877474.4809148,495
1765877474.480921,495
1765877474.480927,496
1765877474.480939,495
1765877474.4809449,495
1765877474.480953,495
1765877474.48096,496
1765877474.4809659,495
1765877474.480973,495
1765877474.4809809,495
1765877474.4809878,495
1765877474.4809961,495
1765877474.481002,494
1765877474.481008,495
1765877474.481014,495
1765877474.48102,495
1765877474.481026,495
1765877474.481032,495
1765877474.481038,495
1765877474.481044,494
1765877474.48105,495
1765877474.481056,495
1765877474.481062,495
1765877474.4810681,495
1765877474.4810739,495
1765877474.481079,495
1765877474.4810848,495
1765877474.481091,496
1765877474.481097,495
1765877474.4811032,495
1765877474.481109,495
1765877474.4811149,495
1765877474.481127,494
1765877474.4811342,495
1765877474.481141,495
1765877474.481148,495
1765877474.4811552,495
1765877474.481162,495
1765877474.4811678,495
1765877474.481174,495
1765877474.48118,495
1765877474.481188,495
1765877474.4812212,494
1765877474.481227,494
1765877474.481233,495
1765877474.481239,495
1765877474.481245,495
1765877474.481251,495
1765877474.481257,495
1765877474.4812632,495
1765877474.481272,495
1765877474.48128,495
1765877474.481287,495
1765877474.481295,495
1765877474.481302,495
1765877474.48131,495
1765877474.481317,495
1765877474.481323,495
1765877474.481328,495
1765877474.481335,495
1765877474.481341,495
1765877474.4813461,495
1765877474.4813519,495
1765877474.481357,495
1765877474.4813619,495
1765877474.481368,495
1765877474.481374,495
1765877474.4813812,495
1765877474.48139,495
1765877474.481398,495
1765877474.4814038,495
1765877474.48141,495
1765877474.481416,495
1765877474.4814222,495
1765877474.481428,495
1765877474.481434,496
1765877474.48144,496
1765877474.4814458,496
1765877474.481452,496
1765877474.481458,496
1765877474.4814641,496
1765877474.481469,496
1765877474.481475,496
1765877474.481494,496
1765877474.4815,496
1765877474.481507,497
1765877474.481514,496
1765877474.4815202,496
1765877474.481526,496
1765877474.481531,497
1765877474.481537,496
1765877474.4815428,496
1765877474.481549,495
1765877474.481555,495
1765877474.4815612,496
1765877474.481567,495
1765877474.481575,495
1765877474.481581,495
1765877474.481587,495
1765877474.4815931,496
1765877474.481599,495
1765877474.481605,496
1765877474.481611,495
1765877474.481617,495
1765877474.481623,495
1765877474.481629,496
1765877474.481635,495
1765877474.481641,495
1765877474.481647,496
1765877474.481653,495
1765877474.481659,495
1765877474.4816651,495
1765877474.481672,495
1765877474.4816792,495
1765877474.481685,495
1765877474.481691,495
1765877474.481697,495
1765877474.4817028,495
1765877474.481709,495
1765877474.481715,495
1765877474.4817212,496
1765877474.481727,495
1765877474.4817321,496
1765877474.481738,495
1765877474.4817438,495
1765877474.48175,495
1765877474.481756,495
1765877474.4817631,495
1765877474.481771,495
1765877474.481778,495
1765877474.481786,496
1765877474.481792,495
1765877474.4817972,495
1765877474.4818041,495
1765877474.4818099,495
1765877474.481816,495
1765877474.481822,495
1765877474.4818282,496
1765877474.481834,495
1765877474.4818408,495
1765877474.4818492,495
1765877474.481855,495
1765877474.481861,495
1765877474.481866,494
1765877474.4818718,495
1765877474.481878,495
1765877474.481885,496
1765877474.481893,496
1765877474.4819,495
1765877474.481907,495
1765877474.481913,495
1765877474.481919,495
1765877474.481925,495
1765877474.481931,495
1765877474.481937,495
1765877474.4819431,495
1765877474.4819489,495
1765877474.481955,495
1765877474.481961,496
1765877474.4819672,495
1765877474.481973,495
1765877474.481979,495
1765877474.481985,495
1765877474.4819908,496
1765877474.481997,495
1765877474.482003,496
1765877474.482013,495
1765877474.482021,495
1765877474.482028,495
1765877474.482034,495
1765877474.4820402,495
1765877474.482046,495
1765877474.482052,495
1765877474.482058,496
1765877474.4820638,496
1765877474.48207,496
1765877474.482076,495
1765877474.4820821,495
1765877474.4820879,495
1765877474.482094,496
1765877474.4821,495
1765877474.4821062,495
1765877474.482112,495
1765877474.482118,495
1765877474.482124,496
1765877474.4821289,495
1765877474.482135,495
1765877474.482141,495
1765877474.482147,495
1765877474.482153,495
1765877474.4821591,496
1765877474.482165,495
1765877474.482172,495
1765877474.4821792,495
1765877474.482186,495
1765877474.482193,495
1765877474.482201,495
1765877474.482208,495
1765877474.482214,495
1765877474.48222,495
1765877474.482226,495
1765877474.482232,496
1765877474.482238,495
1765877474.482244,495
1765877474.48225,495
1765877474.482256,495
1765877474.4822621,495
1765877474.4822679,495
1765877474.482274,495
1765877474.48228,495
1765877474.482286,495
1765877474.482291,495
1765877474.4822972,495
1765877474.482304,495
1765877474.482311,495
1765877474.4823182,495
1765877474.482324,495
1765877474.48233,496
1765877474.48234,495
1765877474.482347,495
1765877474.4823549,495
1765877474.4823601,495
1765877474.4823658,495
1765877474.482372,495
1765877474.482378,495
1765877474.482384,496
1765877474.48239,495
1765877474.482396,495
1765877474.482402,495
1765877474.482408,496
1765877474.482414,496
1765877474.482422,495
1765877474.482429,495
1765877474.4824362,495
1765877474.482442,496
1765877474.4824479,495
1765877474.482454,495
1765877474.48246,496
1765877474.482466,495
1765877474.482472,495
1765877474.4824781,495
1765877474.482483,495
1765877474.482489,495
1765877474.482495,495
1765877474.482501,495
1765877474.482507,495
1765877474.482514,495
1765877474.482521,494
1765877474.482527,495
1765877474.4825332,495
1765877474.482538,495
1765877474.4825442,495
1765877474.48255,495
1765877474.4825559,495
1765877474.482562,495
1765877474.482568,495
1765877474.482574,495
1765877474.48258,495
1765877474.4825861,496
1765877474.482592,495
1765877474.4825978,495
1765877474.482603,495
1765877474.4826088,495
1765877474.482615,495
1765877474.482621,495
1765877474.4826272,495
1765877474.4826329,495
1765877474.482639,495
1765877474.482645,495
1765877474.482651,495
1765877474.482657,495
1765877474.482663,495
1765877474.482669,495
1765877474.482676,495
1765877474.482683,495
1765877474.4826891,495
1765877474.4826949,495
1765877474.4827,495
1765877474.4827058,496
1765877474.482712,495
1765877474.482718,495
1765877474.4827242,495
1765877474.48273,495
1765877474.482736,494
1765877474.482742,495
1765877474.4827478,495
1765877474.482754,496
1765877474.48276,495
1765877474.4827662,495
1765877474.4827719,495
1765877474.482778,495
1765877474.482784,495
1765877474.482789,495
1765877474.482795,495
1765877474.482801,495
1765877474.482807,495
1765877474.482813,495
1765877474.482819,495
1765877474.482825,495
1765877474.482833,495
1765877474.48284,495
1765877474.482846,495
1765877474.482852,495
1765877474.482858,495
1765877474.4828641,496
1765877474.48287,495
1765877474.4828758,495
1765877474.482882,495
1765877474.482888,495
1765877474.4828942,495
1765877474.4829,495
1765877474.482906,495
1765877474.482912,495
1765877474.482917,495
1765877474.482923,495
1765877474.482929,495
1765877474.482935,495
1765877474.482941,495
1765877474.482947,495
1765877474.482954,495
1765877474.482959,495
1765877474.482965,495
1765877474.482971,495
1765877474.482977,495
1765877474.4829838,495
1765877474.482989,495
1765877474.482997,495
1765877474.4830039,495
1765877474.48301,495
1765877474.483016,495
1765877474.483022,495
1765877474.483027,496
1765877474.4830332,495
1765877474.483039,496
1765877474.483045,495
1765877474.483051,495
1765877474.4830568,495
1765877474.483063,495
1765877474.483073,495
1765877474.483079,495
1765877474.4830852,495
1765877474.4830909,495
1765877474.483097,495
1765877474.483103,495
1765877474.483108,495
1765877474.483114,495
1765877474.4831202,495
1765877474.483126,495
1765877474.483132,495
1765877474.483138,495
1765877474.483144,495
1765877474.48315,495
1765877474.483156,495
1765877474.4831629,495
1765877474.48317,495
1765877474.483176,495
1765877474.4831822,496
1765877474.483188,496
1765877474.483194,495
1765877474.4832,495
1765877474.4832058,495
1765877474.483212,496
1765877474.483218,496
1765877474.4832242,495
1765877474.4832299,495
1765877474.4832351,495
1765877474.4832408,495
1765877474.483247,496
1765877474.483253,495
1765877474.483259,495
1765877474.483265,495
1765877474.483271,496
1765877474.483278,495
1765877474.483286,495
1765877474.4832919,495
1765877474.483298,496
1765877474.483304,495
1765877474.48331,495
1765877474.483316,495
1765877474.4833221,495
1765877474.48333,495
1765877474.4833379,495
1765877474.4833448,496
1765877474.483352,495
1765877474.483358,496
1765877474.483364,495
1765877474.48337,495
1765877474.483376,495
1765877474.483382,495
1765877474.483388,495
1765877474.483393,495
1765877474.483399,495
1765877474.483405,495
1765877474.4834108,495
1765877474.483417,495
1765877474.483422,494
1765877474.483428,495
1765877474.483434,495
1765877474.4834402,495
1765877474.4834461,495
1765877474.483454,495
1765877474.4834611,495
1765877474.483467,495
1765877474.4834728,495
1765877474.483478,495
1765877474.4834838,495
1765877474.4834921,495
1765877474.483499,495
1765877474.483505,495
1765877474.483511,495
1765877474.483517,495
1765877474.4835231,495
1765877474.4835289,496
1765877474.483535,495
1765877474.483541,495
1765877474.483546,495
1765877474.483553,495
1765877474.4835598,496
1765877474.483567,495
1765877474.483574,495
1765877474.4835808,495
1765877474.483588,495
1765877474.483595,495
1765877474.4836009,495
1765877474.483606,495
1765877474.4836118,495
1765877474.483618,495
1765877474.483624,495
1765877474.483632,495
1765877474.483639,496
1765877474.483645,497
1765877474.4836512,497
1765877474.483657,496
1765877474.4836638,496
1765877474.483671,497
1765877474.483677,497
1765877474.483683,496
1765877474.483689,496
1765877474.483695,496
1765877474.483701,496
1765877474.483707,497
1765877474.483713,496
1765877474.4837189,497
1765877474.483725,496
1765877474.483731,497
1765877474.483737,496
1765877474.483743,496
1765877474.4837492,495
1765877474.483755,495
1765877474.4837608,496
1765877474.483768,495
1765877474.483774,495
1765877474.4837801,495
1765877474.4837859,496
1765877474.4837918,495
1765877474.483798,496
1765877474.483804,495
1765877474.48381,495
1765877474.483816,495
1765877474.483822,495
1765877474.483829,496
1765877474.483836,495
1765877474.4838421,496
1765877474.4838479,495
1765877474.483854,496
1765877474.48386,495
1765877474.4838662,495
1765877474.483872,495
1765877474.483878,495
1765877474.483884,495
1765877474.4838898,496
1765877474.483896,495
1765877474.483902,495
1765877474.483948,495
1765877474.483954,495
1765877474.4839602,495
1765877474.483967,495
1765877474.483973,495
1765877474.483979,495
1765877474.483985,495
1765877474.4839911,495
1765877474.4839969,495
1765877474.484003,495
1765877474.484009,495
1765877474.484015,495
1765877474.484021,495
1765877474.4840279,495
1765877474.484035,495
1765877474.484041,495
1765877474.4840472,495
1765877474.484053,496
1765877474.4840589,495
1765877474.484066,495
1765877474.484072,495
1765877474.4840782,495
1765877474.484083,495
1765877474.4840891,495
1765877474.4840949,495
1765877474.484101,495
1765877474.484107,495
1765877474.484113,495
1765877474.484119,495
1765877474.484125,495
1765877474.484131,495
1765877474.484137,495
1765877474.484143,495
1765877474.484149,495
1765877474.484155,495
1765877474.4841611,495
1765877474.4841669,496
1765877474.484172,495
1765877474.4841778,495
1765877474.484184,495
1765877474.484191,495
1765877474.4841988,495
1765877474.484205,495
1765877474.484211,495
1765877474.4842172,495
1765877474.484223,495
1765877474.484229,495
1765877474.484235,495
1765877474.484241,495
1765877474.484246,494
1765877474.484252,495
1765877474.484258,496
1765877474.484264,495
1765877474.484271,495
1765877474.484277,495
1765877474.484283,495
1765877474.484289,495
1765877474.484295,495
1765877474.484301,495
1765877474.484307,494
1765877474.484312,494
1765877474.484319,495
1765877474.4843268,495
1765877474.484334,495
1765877474.484342,496
1765877474.484349,495
1765877474.484355,495
1765877474.484362,495
1765877474.4843688,495
1765877474.484375,495
1765877474.484381,495
1765877474.4843872,495
1765877474.484393,495
1765877474.484399,495
1765877474.484405,495
1765877474.48441,495
1765877474.484416,495
1765877474.484422,495
1765877474.484428,495
1765877474.484434,496
1765877474.48444,495
1765877474.4844532,495
1765877474.484459,495
1765877474.484465,496
1765877474.484471,495
1765877474.484477,495
1765877474.484482,495
1765877474.484488,495
1765877474.484494,495
1765877474.484502,495
1765877474.484509,495
1765877474.4845152,496
1765877474.48452,495
1765877474.4845262,494
1765877474.4845319,495
1765877474.4845388,495
1765877474.484544,495
1765877474.484549,495
1765877474.484554,495
1765877474.4845598,495
1765877474.484565,495
1765877474.484571,495
1765877474.4845781,495
1765877474.484586,495
1765877474.484593,496
1765877474.4846,495
1765877474.484608,496
1765877474.4846148,495
1765877474.484622,496
1765877474.484629,495
1765877474.484637,495
1765877474.4846442,495
1765877474.484651,495
1765877474.484659,495
1765877474.484666,495
1765877474.484673,495
1765877474.484681,495
1765877474.4846878,495
1765877474.4846961,495
1765877474.4847019,495
1765877474.484714,495
1765877474.4847229,495
1765877474.484732,495
1765877474.484739,495
1765877474.484746,495
1765877474.4847538,495
1765877474.484761,495
1765877474.484768,495
1765877474.484776,495
1765877474.4847832,495
1765877474.484789,495
1765877474.4847941,495
1765877474.484801,495
1765877474.484809,495
1765877474.4848158,495
1765877474.484823,495
1765877474.484831,495
1765877474.4848378,495
1765877474.4848452,495
1765877474.484852,495
1765877474.484859,495
1765877474.484864,495
1765877474.484869,495
1765877474.484875,495
1765877474.48488,495
1765877474.484885,495
1765877474.4848902,495
1765877474.4848971,495
1765877474.4849029,495
1765877474.484909,495
1765877474.4849138,495
1765877474.484919,495
1765877474.4849238,495
1765877474.48493,495
1765877474.4849348,495
1765877474.48494,495
1765877474.4849448,495
1765877474.484951,496
1765877474.4849558,495
1765877474.484961,495
1765877474.4849658,495
1765877474.484972,495
1765877474.484977,495
1765877474.484982,495
1765877474.4849868,496
1765877474.484993,495
1765877474.485,495
1765877474.485006,494
1765877474.485013,495
1765877474.485019,494
1765877474.485025,495
1765877474.48503,496
1765877474.485035,495
1765877474.4850402,495
1765877474.485047,495
1765877474.485054,495
1765877474.485059,495
1765877474.485064,495
1765877474.485069,495
1765877474.4850738,495
1765877474.48508,495
1765877474.485085,495
1765877474.48509,495
1765877474.485095,495
1765877474.4851,495
1765877474.4851048,495
1765877474.485111,495
1765877474.485116,495
1765877474.485121,495
1765877474.4851258,496
1765877474.485131,495
1765877474.485137,495
1765877474.485142,495
1765877474.4851468,495
1765877474.485152,495
1765877474.485157,495
1765877474.485163,495
1765877474.4851682,496
1765877474.485173,495
1765877474.485178,496
1765877474.485184,495
1765877474.4851909,495
1765877474.485198,495
1765877474.485204,495
1765877474.4852102,495
1765877474.485215,496
1765877474.4852211,495
1765877474.485227,495
1765877474.485232,495
1765877474.485238,495
1765877474.4852438,495
1765877474.48525,496
1765877474.485255,495
1765877474.485261,495
1765877474.485267,495
1765877474.4852731,495
1765877474.485278,495
1765877474.485284,495
1765877474.48529,495
1765877474.485296,495
1765877474.485301,495
1765877474.485307,495
1765877474.485312,495
1765877474.485318,494
1765877474.485323,494
1765877474.485328,495
1765877474.485333,495
1765877474.4853382,495
1765877474.4853451,495
1765877474.4853508,495
1765877474.485357,496
1765877474.485365,495
1765877474.485373,495
1765877474.4853811,495
1765877474.485389,495
1765877474.485399,495
1765877474.485408,495
1765877474.485416,494
1765877474.485424,495
1765877474.485433,496
1765877474.485441,495
1765877474.485449,495
1765877474.485457,495
1765877474.485465,495
1765877474.485473,495
1765877474.485481,495
1765877474.485489,495
1765877474.485497,495
1765877474.485505,495
1765877474.485514,495
1765877474.485522,495
1765877474.4855301,495
1765877474.485539,495
1765877474.485547,496
1765877474.485555,495
1765877474.48557,496
1765877474.48558,495
1765877474.485588,496
1765877474.485596,495
1765877474.485604,495
1765877474.485613,495
1765877474.485625,496
1765877474.4856331,495
1765877474.485642,495
1765877474.4856498,495
1765877474.4856582,496
1765877474.485667,495
1765877474.485675,495
1765877474.485683,495
1765877474.4856918,495
1765877474.4857001,495
1765877474.485708,495
1765877474.4857159,495
1765877474.485725,495
1765877474.485733,495
1765877474.4857411,495
1765877474.485749,495
1765877474.4857569,496
1765877474.485766,496
1765877474.485774,495
1765877474.485782,495
1765877474.485792,496
1765877474.485802,496
1765877474.4858098,495
1765877474.4858181,495
1765877474.485827,495
1765877474.485835,495
1765877474.485843,495
1765877474.4858508,495
1765877474.4858592,495
1765877474.485867,495
1765877474.485875,495
1765877474.485884,495
1765877474.485892,495
1765877474.4859,495
1765877474.485909,495
1765877474.4859169,496
1765877474.4859252,496
1765877474.485933,495
1765877474.485941,495
1765877474.485949,495
1765877474.4859579,495
1765877474.485966,495
1765877474.485974,495
1765877474.485982,495
1765877474.4859898,496
1765877474.485999,496
1765877474.486007,496
1765877474.486018,496
1765877474.486027,495
1765877474.4860349,496
1765877474.486043,496
1765877474.486051,498
1765877474.4860601,497
1765877474.486068,497
1765877474.4860759,496
1765877474.486084,496
1765877474.486092,497
1765877474.486101,497
1765877474.486109,496
1765877474.4861171,496
1765877474.486125,497
1765877474.486133,497
1765877474.486141,497
1765877474.486149,496
1765877474.4861581,495
1765877474.486166,495
1765877474.4861739,497
1765877474.486182,496
1765877474.48619,495
1765877474.486198,496
1765877474.486206,496
1765877474.4862149,495
1765877474.4862232,495
1765877474.486231,495
1765877474.486241,495
1765877474.486252,495
1765877474.48626,496
1765877474.486269,496
1765877474.486277,495
1765877474.486285,495
1765877474.486293,495
1765877474.486301,495
1765877474.486309,495
1765877474.4863172,495
1765877474.486325,495
1765877474.486333,495
1765877474.486342,495
1765877474.48635,495
1765877474.486358,496
1765877474.486366,496
1765877474.486374,495
1765877474.486382,496
1765877474.48639,494
1765877474.486398,496
1765877474.4864058,495
1765877474.4864142,495
1765877474.486422,496
1765877474.486431,495
1765877474.486439,495
1765877474.486447,495
1765877474.486455,495
1765877474.486465,495
1765877474.486475,495
1765877474.4864829,495
1765877474.486491,496
1765877474.486499,496
1765877474.486507,496
1765877474.486515,495
1765877474.486523,495
1765877474.486531,495
1765877474.4865391,495
1765877474.486547,495
1765877474.4865549,495
1765877474.4865658,495
1765877474.4865978,495
1765877474.4866061,495
1765877474.486614,495
1765877474.486623,495
1765877474.486631,495
1765877474.486639,495
1765877474.4866471,495
1765877474.486655,495
1765877474.4866629,496
1765877474.4866712,495
1765877474.48668,496
1765877474.486688,495
1765877474.486696,495
1765877474.486708,495
1765877474.486718,495
1765877474.4867258,495
1765877474.4867342,495
1765877474.486742,495
1765877474.48675,495
1765877474.486758,495
1765877474.486766,495
1765877474.486774,495
1765877474.4867818,495
1765877474.48679,495
1765877474.486799,495
1765877474.486807,495
1765877474.486815,495
1765877474.4868228,495
1765877474.4868312,496
1765877474.486839,495
1765877474.486847,495
1765877474.486855,495
1765877474.4868631,495
1765877474.486871,495
1765877474.4868789,496
1765877474.486888,495
1765877474.486896,495
1765877474.4869041,496
1765877474.486912,496
1765877474.486922,495
1765877474.486932,495
1765877474.48694,495
1765877474.486948,495
1765877474.486955,495
1765877474.486963,495
1765877474.4869702,495
1765877474.486978,495
1765877474.486985,495
1765877474.4869928,494
1765877474.487,495
1765877474.487008,495
1765877474.487016,495
1765877474.487023,495
1765877474.487031,495
1765877474.487039,495
1765877474.487047,495
1765877474.487054,495
1765877474.487062,495
1765877474.4870698,495
1765877474.4870772,495
1765877474.487085,495
1765877474.487093,495
1765877474.4871008,495
1765877474.487108,495
1765877474.487116,495
1765877474.487123,495
1765877474.487133,495
1765877474.4871418,495
1765877474.487149,495
1765877474.487157,495
1765877474.487164,495
1765877474.4871721,495
1765877474.48718,495
1765877474.4871879,495
1765877474.487196,495
1765877474.4872031,495
1765877474.487211,495
1765877474.4872189,496
1765877474.487227,495
1765877474.487234,495
1765877474.487242,495
1765877474.487249,495
1765877474.487257,495
1765877474.487264,495
1765877474.487272,495
1765877474.4872792,495
1765877474.487287,494
1765877474.487294,495
1765877474.4873018,495
1765877474.4873102,495
1765877474.487318,495
1765877474.487325,495
1765877474.487335,495
1765877474.487344,496
1765877474.4873521,495
1765877474.487359,495
1765877474.487367,495
1765877474.487374,495
1765877474.487382,494
1765877474.48739,494
1765877474.4873972,495
1765877474.487405,495
1765877474.487413,495
1765877474.4874198,495
1765877474.4874282,495
1765877474.487435,496
1765877474.487443,495
1765877474.4874501,495
1765877474.487458,495
1765877474.487465,495
1765877474.487473,495
1765877474.487481,495
1765877474.487489,495
1765877474.487496,495
1765877474.4875038,495
1765877474.4875112,495
1765877474.487519,496
1765877474.487526,495
1765877474.487534,495
1765877474.487543,495
1765877474.487552,495
1765877474.4875588,495
1765877474.4875672,495
1765877474.487574,495
1765877474.487582,495
1765877474.4875898,495
1765877474.487597,495
1765877474.487605,495
1765877474.487613,494
1765877474.48762,495
1765877474.487628,495
1765877474.487635,495
1765877474.4876428,495
1765877474.4876502,495
1765877474.487658,495
1765877474.4876952,496
1765877474.487703,495
1765877474.48771,495
1765877474.4877179,495
1765877474.487726,495
1765877474.487734,495
1765877474.487741,495
1765877474.487749,495
1765877474.487757,495
1765877474.487765,495
1765877474.487772,495
1765877474.487781,495
1765877474.48779,495
1765877474.487798,495
1765877474.487805,495
1765877474.487812,495
1765877474.4878201,496
1765877474.487828,495
1765877474.487835,495
1765877474.487843,495
1765877474.48785,495
1765877474.4878578,495
1765877474.487865,495
1765877474.487873,495
1765877474.487881,495
1765877474.4878879,495
1765877474.487896,495
1765877474.487904,495
1765877474.487911,495
1765877474.487919,495
1765877474.487926,495
1765877474.487935,495
1765877474.487942,495
1765877474.48795,494
1765877474.487958,495
1765877474.487966,496
1765877474.4879732,495
1765877474.4879858,495
1765877474.4879942,495
1765877474.488002,495
1765877474.48801,495
1765877474.4880588,495
1765877474.488068,495
1765877474.488079,495
1765877474.488086,495
1765877474.4880939,495
1765877474.488102,495
1765877474.48811,496
1765877474.488117,495
1765877474.4881248,495
1765877474.4881332,495
1765877474.48814,495
1765877474.488148,495
1765877474.488155,495
1765877474.488163,495
1765877474.488171,495
1765877474.488178,495
1765877474.4881861,495
1765877474.488194,496
1765877474.488201,496
1765877474.488209,495
1765877474.488217,495
1765877474.488225,495
1765877474.488232,495
1765877474.4882429,495
1765877474.488251,495
1765877474.488259,495
1765877474.488266,495
1765877474.4882739,495
1765877474.4882822,495
1765877474.488289,495
1765877474.488297,496
1765877474.4883049,495
1765877474.488312,495
1765877474.48832,495
1765877474.488328,495
1765877474.4883351,495
1765877474.488343,495
1765877474.4883509,495
1765877474.4883578,495
1765877474.4883661,495
1765877474.488374,496
1765877474.488381,495
1765877474.488389,495
1765877474.4883971,495
1765877474.488404,495
1765877474.488412,495
1765877474.488419,495
1765877474.488427,496
1765877474.488435,495
1765877474.4884439,495
1765877474.4884539,495
1765877474.488461,495
1765877474.48847,495
1765877474.488477,496
1765877474.488485,495
1765877474.488493,495
1765877474.488501,495
1765877474.488508,495
1765877474.488516,495
1765877474.488524,495
1765877474.488532,495
1765877474.488539,496
1765877474.488547,495
1765877474.488555,496
1765877474.4885619,496
1765877474.4885702,495
1765877474.4885771,495
1765877474.488585,495
1765877474.4885929,495
1765877474.4886,495
1765877474.488608,495
1765877474.488616,495
1765877474.488624,495
1765877474.488631,495
1765877474.4886389,495
1765877474.488647,495
1765877474.488657,495
1765877474.488666,495
1765877474.4886742,495
1765877474.489322,496
1765877474.4893298,495
1765877474.4893382,495
1765877474.489345,496
1765877474.489353,495
1765877474.4893608,495
1765877474.489368,495
1765877474.489376,495
1765877474.489384,496
1765877474.489391,496
1765877474.489399,496
1765877474.489407,495
1765877474.489415,496
1765877474.489422,495
1765877474.48943,495
1765877474.489438,495
1765877474.4894452,495
1765877474.489453,496
1765877474.489461,495
1765877474.4894679,495
1765877474.4894762,495
1765877474.489484,496
1765877474.489491,496
1765877474.489501,495
1765877474.4895098,495
1765877474.4895182,495
1765877474.489525,495
1765877474.489533,494
1765877474.489541,495
1765877474.489548,495
1765877474.489556,496
1765877474.489564,496
1765877474.489572,496
1765877474.489579,497
1765877474.4895868,496
1765877474.4895942,496
1765877474.489602,496
1765877474.489609,497
1765877474.4896169,496
1765877474.489625,496
1765877474.489632,497
1765877474.48964,497
1765877474.4896472,496
1765877474.489655,496
1765877474.489663,496
1765877474.4896698,496
1765877474.4896781,497
1765877474.489686,495
1765877474.489693,496
1765877474.489701,496
1765877474.48971,496
1765877474.4897192,495
1765877474.489727,496
1765877474.489734,495
1765877474.489742,495
1765877474.489749,496
1765877474.4897568,495
1765877474.4897652,495
1765877474.489773,495
1765877474.489781,495
1765877474.4897878,495
1765877474.4897962,495
1765877474.489803,495
1765877474.489811,495
1765877474.4898188,495
1765877474.489826,495
1765877474.489834,495
1765877474.489841,495
1765877474.489849,495
1765877474.489857,496
1765877474.4898639,496
1765877474.489872,495
1765877474.4898791,495
1765877474.489888,495
1765877474.4898958,495
1765877474.4899042,495
1765877474.489912,496
1765877474.489922,496
1765877474.48993,495
1765877474.4899368,495
1765877474.4899452,496
1765877474.489952,496
1765877474.48996,496
1765877474.489967,495
1765877474.489975,495
1765877474.489983,496
1765877474.48999,496
1765877474.489998,495
1765877474.490006,496
1765877474.490013,495
1765877474.4900212,496
1765877474.490029,495
1765877474.490036,495
1765877474.4900439,495
1765877474.490052,495
1765877474.49006,495
1765877474.490068,495
1765877474.4900758,495
1765877474.4900842,496
1765877474.490091,495
1765877474.490099,495
1765877474.4901068,495
1765877474.490114,495
1765877474.490124,495
1765877474.490133,495
1765877474.49014,495
1765877474.490148,495
1765877474.490156,495
1765877474.490164,495
1765877474.490171,495
1765877474.490179,495
1765877474.490187,495
1765877474.490195,495
1765877474.4902022,495
1765877474.49021,495
1765877474.490218,495
1765877474.490226,495
1765877474.4902332,495
1765877474.490241,495
1765877474.490248,495
1765877474.4902558,495
1765877474.4902642,495
1765877474.490272,495
1765877474.490279,496
1765877474.490287,495
1765877474.490294,495
1765877474.4903018,495
1765877474.49031,495
1765877474.490317,495
1765877474.490325,495
1765877474.490334,495
1765877474.4903429,495
1765877474.49035,495
1765877474.490358,495
1765877474.490366,495
1765877474.490765,495
1765877474.490773,495
1765877474.4907808,495
1765877474.490788,495
1765877474.490796,495
1765877474.490804,496
1765877474.4908118,495
1765877474.490819,495
1765877474.490827,495
1765877474.490834,495
1765877474.490842,495
1765877474.49085,494
1765877474.490858,495
1765877474.490865,495
1765877474.490873,494
1765877474.490881,494
1765877474.4908879,494
1765877474.490896,495
1765877474.490904,495
1765877474.490911,495
1765877474.4909189,495
1765877474.4909298,495
1765877474.490939,495
1765877474.490947,495
1765877474.490954,495
1765877474.490962,496
1765877474.4909701,495
1765877474.490977,495
1765877474.490985,495
1765877474.4909928,495
1765877474.4910002,495
1765877474.491008,495
1765877474.491016,495
1765877474.4910238,495
1765877474.491031,496
1765877474.491039,495
1765877474.491046,494
1765877474.491054,495
1765877474.491061,495
1765877474.4910688,495
1765877474.4910772,495
1765877474.491084,495
1765877474.491092,495
1765877474.4910998,495
1765877474.491107,495
1765877474.491115,495
1765877474.491122,495
1765877474.49113,495
1765877474.4911401,495
1765877474.491148,495
1765877474.4911559,495
1765877474.491164,495
1765877474.4911711,495
1765877474.491179,495
1765877474.4911869,495
1765877474.491194,495
1765877474.491202,495
1765877474.49121,495
1765877474.491217,495
1765877474.491225,495
1765877474.491232,495
1765877474.49124,494
1765877474.4912481,495
1765877474.491255,495
1765877474.491263,496
1765877474.4912698,496
1765877474.4912782,495
1765877474.491286,495
1765877474.491293,495
1765877474.491301,495
1765877474.4913092,495
1765877474.491317,495
1765877474.491324,496
1765877474.491332,495
1765877474.491342,496
1765877474.4913511,495
1765877474.491359,495
1765877474.4913669,495
1765877474.491374,495
1765877474.4913821,495
1765877474.49139,495
1765877474.4913971,495
1765877474.491405,495
1765877474.491412,495
1765877474.4914198,495
1765877474.4914281,495
1765877474.491435,494
1765877474.491443,495
1765877474.49145,495
1765877474.491458,495
1765877474.491466,495
1765877474.491473,495
1765877474.491481,496
1765877474.491489,495
1765877474.4914958,495
1765877474.4915042,495
1765877474.491511,495
1765877474.491519,496
1765877474.4915268,495
1765877474.4915352,495
1765877474.491542,495
1765877474.491552,495
1765877474.49156,495
1765877474.491568,495
1765877474.491576,495
1765877474.4915829,495
1765877474.491591,495
1765877474.491599,495
1765877474.491607,496
1765877474.4916139,495
1765877474.491622,495
1765877474.49163,495
1765877474.491637,495
1765877474.4916449,495
1765877474.4916532,495
1765877474.49166,496
1765877474.491668,495
1765877474.4916759,495
1765877474.491683,495
1765877474.491691,495
1765877474.491704,495
1765877474.491712,495
1765877474.491719,495
1765877474.491727,495
1765877474.491735,495
1765877474.491743,495
1765877474.49175,495
1765877474.49176,495
1765877474.4917681,495
1765877474.491776,495
1765877474.4917839,495
1765877474.491791,495
1765877474.491799,495
1765877474.491807,495
1765877474.491814,495
1765877474.491822,495
1765877474.491829,495
1765877474.491837,495
1765877474.4918451,494
1765877474.491852,495
1765877474.49186,495
