timestamp,emg_value
1765877500.094651,494
1765877500.094671,494
1765877500.094684,494
1765877500.094694,494
1765877500.0947049,494
1765877500.0947149,494
1765877500.0947251,495
1765877500.0947351,495
1765877500.0947452,494
1765877500.0947561,494
1765877500.0947661,493
1765877500.0947762,494
1765877500.0947871,495
1765877500.0947971,495
1765877500.0948071,495
1765877500.094817,496
1765877500.094827,498
1765877500.094839,500
1765877500.094849,497
1765877500.0948591,495
1765877500.094869,490
1765877500.094879,493
1765877500.094889,494
1765877500.094899,493
1765877500.094909,494
1765877500.0949278,495
1765877500.09494,494
1765877500.09495,494
1765877500.0949602,495
1765877500.0949702,495
1765877500.09498,495
1765877500.09499,495
1765877500.095,495
1765877500.0950122,494
1765877500.095022,493
1765877500.095032,493
1765877500.095042,494
1765877500.095052,495
1765877500.095062,494
1765877500.095072,495
1765877500.095082,495
1765877500.095094,494
1765877500.095105,495
1765877500.095115,495
1765877500.095125,495
1765877500.095135,495
1765877500.095145,495
1765877500.095155,495
1765877500.095165,494
1765877500.095175,494
1765877500.0951848,494
1765877500.095197,494
1765877500.095211,494
1765877500.0952241,494
1765877500.0952342,494
1765877500.095244,495
1765877500.095254,494
1765877500.095263,495
1765877500.095274,495
1765877500.095284,495
1765877500.095295,495
1765877500.095306,495
1765877500.095316,495
1765877500.095326,495
1765877500.095336,495
1765877500.0953531,494
1765877500.0953631,494
1765877500.0953732,496
1765877500.095383,496
1765877500.095393,495
1765877500.095403,494
1765877500.095413,494
1765877500.095423,493
1765877500.095433,495
1765877500.095444,497
1765877500.095454,497
1765877500.095466,496
1765877500.095488,495
1765877500.095503,493
1765877500.0955148,494
1765877500.095527,496
1765877500.0955389,498
1765877500.0955489,499
1765877500.095559,499
1765877500.095569,497
1765877500.095579,497
1765877500.0955892,496
1765877500.0955992,493
1765877500.0956092,495
1765877500.095619,495
1765877500.095629,494
1765877500.095639,495
1765877500.095649,493
1765877500.09566,494
1765877500.0956721,494
1765877500.0956821,496
1765877500.095692,495
1765877500.095702,496
1765877500.095712,497
1765877500.095722,495
1765877500.095732,492
1765877500.095742,494
1765877500.095752,494
1765877500.095762,496
1765877500.095775,500
1765877500.095789,500
1765877500.095799,500
1765877500.095809,499
1765877500.095825,498
1765877500.095841,495
1765877500.095851,498
1765877500.095861,495
1765877500.095871,494
1765877500.095881,494
1765877500.0958989,493
1765877500.0959098,495
1765877500.09592,496
1765877500.0959308,496
1765877500.095947,491
1765877500.095957,494
1765877500.095967,494
1765877500.095978,493
1765877500.095988,492
1765877500.095998,493
1765877500.0960078,494
1765877500.0960178,494
1765877500.09603,494
1765877500.09604,494
1765877500.09605,494
1765877500.096065,495
1765877500.096075,495
1765877500.09609,493
1765877500.0961,493
1765877500.09611,494
1765877500.09612,494
1765877500.0961301,495
1765877500.0961401,495
1765877500.09615,495
1765877500.09616,495
1765877500.09617,495
1765877500.09618,493
1765877500.09619,494
1765877500.096201,494
1765877500.096211,495
1765877500.096221,494
1765877500.096231,494
1765877500.096241,494
1765877500.0962508,494
1765877500.096261,494
1765877500.096271,495
1765877500.096282,495
1765877500.096292,495
1765877500.096302,495
1765877500.096312,494
1765877500.096322,494
1765877500.096332,494
1765877500.096342,494
1765877500.096354,494
1765877500.0963662,494
1765877500.0963762,494
1765877500.096386,495
1765877500.096396,494
1765877500.096406,494
1765877500.096416,495
1765877500.096426,495
1765877500.096436,495
1765877500.096446,495
1765877500.096456,494
1765877500.0964658,495
1765877500.0964758,493
1765877500.0964859,494
1765877500.096496,496
1765877500.096506,497
1765877500.0965178,498
1765877500.0965278,496
1765877500.096538,494
1765877500.096548,495
1765877500.096558,495
1765877500.096568,496
1765877500.0965781,495
1765877500.096589,495
1765877500.096599,494
1765877500.096609,495
1765877500.096622,496
1765877500.0966341,495
1765877500.0966442,493
1765877500.0966542,493
1765877500.096664,492
1765877500.096674,493
1765877500.096684,493
1765877500.096694,493
1765877500.096704,494
1765877500.096714,495
1765877500.096725,495
1765877500.0967412,494
1765877500.0967512,495
1765877500.096761,495
1765877500.096771,493
1765877500.096781,494
1765877500.096791,493
1765877500.096802,494
1765877500.096812,494
1765877500.096822,495
1765877500.096832,495
1765877500.0968478,495
1765877500.096858,494
1765877500.096868,494
1765877500.096878,494
1765877500.096888,494
1765877500.096898,494
1765877500.0969129,495
1765877500.0969229,495
1765877500.0969331,495
1765877500.0969431,496
1765877500.0969532,495
1765877500.0969632,493
1765877500.096973,495
1765877500.096982,495
1765877500.096992,494
1765877500.097002,495
1765877500.097012,495
1765877500.097022,495
1765877500.0970318,493
1765877500.0970418,495
1765877500.0970519,495
1765877500.0970619,494
1765877500.0970721,495
1765877500.0970821,495
1765877500.0970922,495
1765877500.0971022,495
1765877500.0971122,494
1765877500.097121,495
1765877500.097138,496
1765877500.0971498,497
1765877500.0971599,498
1765877500.0971699,501
1765877500.097183,504
1765877500.097195,502
1765877500.097205,500
1765877500.097215,495
1765877500.097226,489
1765877500.097238,491
1765877500.09725,493
1765877500.0972621,491
1765877500.0972722,491
1765877500.097282,492
1765877500.097292,494
1765877500.097302,494
1765877500.097312,494
1765877500.097322,494
1765877500.097332,494
1765877500.097342,493
1765877500.097352,494
1765877500.0973618,494
1765877500.0973718,493
1765877500.0973818,494
1765877500.097392,495
1765877500.097402,494
1765877500.097412,495
1765877500.0974221,494
1765877500.097433,494
1765877500.097443,494
1765877500.097455,495
1765877500.097467,494
1765877500.0974772,495
1765877500.0974872,495
1765877500.097497,494
1765877500.097506,494
1765877500.097516,495
1765877500.097526,494
1765877500.097536,495
1765877500.097546,495
1765877500.0975559,495
1765877500.097566,495
1765877500.097576,495
1765877500.097586,495
1765877500.097596,495
1765877500.097606,494
1765877500.097616,494
1765877500.0976262,494
1765877500.097636,494
1765877500.097646,494
1765877500.097656,494
1765877500.097665,494
1765877500.097676,494
1765877500.097686,494
1765877500.097696,494
1765877500.097706,497
1765877500.0977159,498
1765877500.0977302,500
1765877500.09774,505
1765877500.09775,506
1765877500.09776,500
1765877500.09777,489
1765877500.09778,489
1765877500.09779,490
1765877500.0978,492
1765877500.09781,493
1765877500.0978198,493
1765877500.0978298,494
1765877500.09784,495
1765877500.09785,495
1765877500.09786,493
1765877500.09787,494
1765877500.0978801,494
1765877500.0978901,493
1765877500.0979,493
1765877500.09791,493
1765877500.09792,494
1765877500.097933,494
1765877500.097943,495
1765877500.097954,495
1765877500.097964,494
1765877500.097974,495
1765877500.097983,494
1765877500.097996,495
1765877500.098007,494
1765877500.098017,495
1765877500.098028,495
1765877500.098038,495
1765877500.098048,495
1765877500.098058,495
1765877500.098068,495
1765877500.098078,495
1765877500.098088,495
1765877500.0980978,495
1765877500.0981078,495
1765877500.0981178,495
1765877500.0981278,495
1765877500.098138,495
1765877500.098154,495
1765877500.098164,495
1765877500.0981739,494
1765877500.0981839,495
1765877500.098194,495
1765877500.098204,495
1765877500.098214,495
1765877500.0982242,495
1765877500.0982342,495
1765877500.098243,495
1765877500.098253,494
1765877500.0982661,495
1765877500.0982761,495
1765877500.098289,494
1765877500.098308,494
1765877500.098326,495
1765877500.098345,495
1765877500.098363,495
1765877500.098382,496
1765877500.0984,497
1765877500.098418,499
1765877500.098437,500
1765877500.098463,501
1765877500.098482,498
1765877500.0985012,495
1765877500.098519,493
1765877500.098538,492
1765877500.098557,490
1765877500.0985758,494
1765877500.098594,494
1765877500.098613,493
1765877500.098631,495
1765877500.098649,497
1765877500.098668,495
1765877500.098686,495
1765877500.0987048,495
1765877500.0987232,494
1765877500.098742,493
1765877500.098766,494
1765877500.098785,495
1765877500.098803,495
1765877500.0988219,496
1765877500.09884,495
1765877500.0988579,496
1765877500.098877,495
1765877500.098895,495
1765877500.0989141,494
1765877500.098933,495
1765877500.0989509,494
1765877500.0989702,494
1765877500.098989,495
1765877500.099007,495
1765877500.099026,494
1765877500.099044,495
1765877500.0990632,494
1765877500.099081,495
1765877500.0990999,495
1765877500.099118,494
1765877500.099136,495
1765877500.099155,495
1765877500.099173,495
1765877500.0991921,495
1765877500.099211,495
1765877500.09923,495
1765877500.099253,495
1765877500.099273,495
1765877500.0992908,495
1765877500.099309,495
1765877500.099328,495
1765877500.0993469,495
1765877500.0993652,495
1765877500.099385,496
1765877500.099403,496
1765877500.099422,495
1765877500.0994408,495
1765877500.0994592,494
1765877500.099478,494
1765877500.0994968,494
1765877500.099516,496
1765877500.099534,497
1765877500.099552,499
1765877500.099571,500
1765877500.099589,498
1765877500.0996082,497
1765877500.099627,496
1765877500.0996459,495
1765877500.099664,497
1765877500.099682,498
1765877500.099701,498
1765877500.09972,497
1765877500.0997372,493
1765877500.099751,494
1765877500.0997639,495
1765877500.099777,492
1765877500.09979,494
1765877500.099803,494
1765877500.099815,493
1765877500.099828,494
1765877500.099842,494
1765877500.0998552,495
1765877500.0998678,495
1765877500.099881,494
1765877500.099894,496
1765877500.0999072,495
1765877500.0999198,495
1765877500.099933,496
1765877500.099945,496
1765877500.099958,496
1765877500.099971,496
1765877500.099984,496
1765877500.099997,496
1765877500.10001,497
1765877500.100023,496
1765877500.1000361,495
1765877500.1000488,496
1765877500.100062,496
1765877500.1000772,497
1765877500.100092,497
1765877500.100105,495
1765877500.100118,495
1765877500.100131,495
1765877500.1001441,497
1765877500.100157,497
1765877500.10017,496
1765877500.100183,496
1765877500.1001961,496
1765877500.100209,495
1765877500.100223,494
1765877500.100236,495
1765877500.100249,495
1765877500.100262,496
1765877500.100275,495
1765877500.100288,495
1765877500.100301,496
1765877500.1003141,496
1765877500.100327,496
1765877500.10034,496
1765877500.100353,496
1765877500.100366,496
1765877500.100379,496
1765877500.1003919,496
1765877500.100405,495
1765877500.100418,496
1765877500.100435,498
1765877500.100448,497
1765877500.100461,496
1765877500.100474,495
1765877500.100487,492
1765877500.1004999,493
1765877500.100513,495
1765877500.100526,495
1765877500.100539,494
1765877500.1005518,495
1765877500.100565,495
1765877500.100578,495
1765877500.1005912,495
1765877500.1006038,495
1765877500.100616,495
1765877500.100629,496
1765877500.100642,495
1765877500.100655,495
1765877500.100668,496
1765877500.100681,496
1765877500.100696,497
1765877500.1007092,496
1765877500.100723,496
1765877500.100735,496
1765877500.100748,495
1765877500.1007612,495
1765877500.100779,496
1765877500.1007931,494
1765877500.100806,494
1765877500.1008189,495
1765877500.100832,495
1765877500.100845,494
1765877500.1008582,494
1765877500.100872,494
1765877500.100885,495
1765877500.100898,495
1765877500.1009102,496
1765877500.100924,496
1765877500.100937,496
1765877500.10095,496
1765877500.100963,496
1765877500.1009762,496
1765877500.1009889,495
1765877500.101002,494
1765877500.101015,496
1765877500.1010282,495
1765877500.1010408,495
1765877500.101053,496
1765877500.1010659,496
1765877500.101079,496
1765877500.101092,496
1765877500.101105,494
1765877500.101126,495
1765877500.10114,495
1765877500.1011531,496
1765877500.101166,496
1765877500.101179,496
1765877500.101192,495
1765877500.101205,495
1765877500.1012192,496
1765877500.101232,495
1765877500.101244,497
1765877500.1012568,497
1765877500.10127,498
1765877500.101283,497
1765877500.1012962,496
1765877500.1013088,495
1765877500.101322,494
1765877500.101335,495
1765877500.1013482,496
1765877500.1014678,495
1765877500.101485,496
1765877500.1014981,496
1765877500.101511,495
1765877500.1015239,494
1765877500.101537,495
1765877500.1015491,495
1765877500.101561,496
1765877500.1015759,496
1765877500.101592,495
1765877500.1016371,496
1765877500.1016672,496
1765877500.101685,495
1765877500.101699,495
1765877500.101712,494
1765877500.1017249,494
1765877500.1017401,495
1765877500.101753,495
1765877500.1017659,496
1765877500.101778,495
1765877500.101791,496
1765877500.101804,497
1765877500.1018171,497
1765877500.10183,497
1765877500.1018429,498
1765877500.101855,497
1765877500.101868,496
1765877500.101881,494
1765877500.101894,495
1765877500.101908,495
1765877500.10192,495
1765877500.101933,494
1765877500.101946,494
1765877500.10196,495
1765877500.101977,495
1765877500.101992,494
1765877500.102004,495
1765877500.102017,495
1765877500.10203,495
1765877500.102043,495
1765877500.102056,495
1765877500.102069,496
1765877500.102082,496
1765877500.1020951,496
1765877500.102108,496
1765877500.1021209,496
1765877500.102134,496
1765877500.102147,496
1765877500.10216,497
1765877500.1021729,497
1765877500.102237,496
1765877500.10225,495
1765877500.102263,496
1765877500.102276,496
1765877500.102289,494
1765877500.1023018,496
1765877500.102315,496
1765877500.102327,496
1765877500.10234,495
1765877500.1023529,496
1765877500.102365,494
1765877500.102384,493
1765877500.102397,495
1765877500.10241,495
1765877500.102423,496
1765877500.102436,495
1765877500.102449,496
1765877500.1024609,496
1765877500.102474,497
1765877500.102487,496
1765877500.1025002,496
1765877500.1025128,499
1765877500.102526,501
1765877500.102539,501
1765877500.1025522,497
1765877500.102565,496
1765877500.102578,495
1765877500.102592,492
1765877500.1026042,494
1765877500.102617,494
1765877500.10263,494
1765877500.102643,494
1765877500.102656,496
1765877500.102669,496
1765877500.102682,495
1765877500.102695,496
1765877500.1027079,496
1765877500.102724,495
1765877500.102738,494
1765877500.102751,495
1765877500.1027641,496
1765877500.102777,495
1765877500.1027892,495
1765877500.102802,496
1765877500.102815,496
1765877500.102828,495
1765877500.1028411,496
1765877500.1028538,495
1765877500.102867,496
1765877500.10288,495
1765877500.102893,496
1765877500.1029062,496
1765877500.1029189,495
1765877500.102931,496
1765877500.102944,495
1765877500.102957,495
1765877500.1029701,495
1765877500.102983,495
1765877500.1029959,495
1765877500.103009,495
1765877500.103022,496
1765877500.103035,495
1765877500.1030478,496
1765877500.10306,496
1765877500.1030788,497
1765877500.103091,496
1765877500.103104,497
1765877500.103117,496
1765877500.1031308,496
1765877500.103143,495
1765877500.103157,496
1765877500.103169,496
1765877500.103182,497
1765877500.103195,496
1765877500.1032078,496
1765877500.103221,496
1765877500.103234,496
1765877500.1032472,496
1765877500.1032598,496
1765877500.103272,495
1765877500.103303,495
1765877500.103316,496
1765877500.103329,495
1765877500.103342,496
1765877500.103355,495
1765877500.103368,496
1765877500.103381,495
1765877500.103393,495
1765877500.1034062,495
1765877500.1034188,495
1765877500.103436,495
1765877500.10345,496
1765877500.103463,496
1765877500.103476,495
1765877500.10349,496
1765877500.103502,495
1765877500.103515,495
1765877500.103528,496
1765877500.103541,495
1765877500.103554,495
1765877500.1035671,496
1765877500.10358,495
1765877500.1035929,495
1765877500.103606,495
1765877500.103619,496
1765877500.103632,495
1765877500.1036448,494
1765877500.10366,496
1765877500.103679,498
1765877500.1036968,501
1765877500.1037152,504
1765877500.103734,503
1765877500.1037529,500
1765877500.103771,498
1765877500.10379,492
1765877500.103809,492
1765877500.103832,492
1765877500.103852,494
1765877500.10387,495
1765877500.103889,494
1765877500.103908,494
1765877500.1039271,495
1765877500.103945,495
1765877500.1039639,495
1765877500.103982,495
1765877500.104,495
1765877500.104019,495
1765877500.104037,495
1765877500.104055,495
1765877500.104074,495
1765877500.104092,495
1765877500.10411,495
1765877500.104129,495
1765877500.104148,496
1765877500.1041658,496
1765877500.1041842,495
1765877500.104203,496
1765877500.1042209,495
1765877500.104239,496
1765877500.104258,495
1765877500.104276,496
1765877500.104295,496
1765877500.104316,496
1765877500.1043358,495
1765877500.104355,495
1765877500.104373,496
1765877500.104392,496
1765877500.1044102,496
1765877500.104428,496
1765877500.104447,496
1765877500.104465,495
1765877500.104484,496
1765877500.104505,496
1765877500.104526,496
1765877500.104545,496
1765877500.104563,495
1765877500.1045818,496
1765877500.1046011,496
1765877500.104619,496
1765877500.1046379,496
1765877500.104656,496
1765877500.104674,496
1765877500.104702,497
1765877500.1047208,499
1765877500.1047392,498
1765877500.104757,496
1765877500.104775,497
1765877500.104794,497
1765877500.104842,497
1765877500.104862,497
1765877500.1048808,499
1765877500.1049001,499
1765877500.104918,497
1765877500.104937,494
1765877500.104956,495
1765877500.104974,496
1765877500.104993,496
1765877500.105011,497
1765877500.105029,495
1765877500.1050482,496
1765877500.105067,494
1765877500.105085,494
1765877500.105103,495
1765877500.105122,495
1765877500.10514,497
1765877500.1051579,496
1765877500.1051772,495
1765877500.105195,495
1765877500.105213,495
1765877500.1052318,496
1765877500.1052501,495
1765877500.105269,496
1765877500.1052868,495
1765877500.1053061,495
1765877500.105328,496
1765877500.1053529,496
1765877500.105372,496
1765877500.10539,495
1765877500.105409,496
1765877500.105427,496
1765877500.105453,496
1765877500.105472,496
1765877500.10549,497
1765877500.105509,496
1765877500.105527,497
1765877500.105546,497
1765877500.1055639,496
1765877500.105582,497
1765877500.1056,497
1765877500.105619,497
1765877500.105637,497
1765877500.1056561,496
1765877500.105672,497
1765877500.1056871,496
1765877500.1057029,496
1765877500.105719,496
1765877500.1057339,497
1765877500.10575,497
1765877500.105773,497
1765877500.105789,498
1765877500.105807,498
1765877500.105823,500
1765877500.105838,497
1765877500.1058528,497
1765877500.105869,498
1765877500.1058838,496
1765877500.105899,496
1765877500.105914,495
1765877500.10593,495
1765877500.105945,495
1765877500.10596,495
1765877500.1059752,495
1765877500.105991,495
1765877500.106006,495
1765877500.1060212,495
1765877500.106036,496
1765877500.1060522,495
1765877500.106067,495
1765877500.106082,496
1765877500.106098,496
1765877500.106113,496
1765877500.106128,496
1765877500.106144,496
1765877500.1061592,497
1765877500.106174,495
1765877500.106189,495
1765877500.106216,496
1765877500.1062331,495
1765877500.106248,495
1765877500.106264,496
1765877500.106279,497
1765877500.106295,498
1765877500.10631,499
1765877500.106325,499
1765877500.1063402,495
1765877500.106356,495
1765877500.1063712,495
1765877500.106386,496
1765877500.106401,497
1765877500.1064162,496
1765877500.106432,496
1765877500.1064472,495
1765877500.106462,495
1765877500.106478,496
1765877500.106493,496
1765877500.106508,495
1765877500.1065228,495
1765877500.106538,495
1765877500.106554,495
1765877500.106569,496
1765877500.106585,496
1765877500.1066,495
1765877500.1066182,496
1765877500.106635,496
1765877500.10665,495
1765877500.106666,495
1765877500.106681,495
1765877500.106696,495
1765877500.106712,495
1765877500.106727,495
1765877500.106742,495
1765877500.1067579,496
1765877500.106773,496
1765877500.1067882,495
1765877500.106803,495
1765877500.1068192,497
1765877500.106836,497
1765877500.106851,498
1765877500.1068668,498
1765877500.106882,495
1765877500.1068969,493
1765877500.106913,496
1765877500.106928,498
1765877500.106944,499
1765877500.106959,499
1765877500.106974,499
1765877500.1069891,496
1765877500.107005,495
1765877500.1070201,495
1765877500.107042,493
1765877500.1070569,494
1765877500.107073,493
1765877500.1070879,495
1765877500.1071029,495
1765877500.1071181,495
1765877500.1071339,496
1765877500.1071491,496
1765877500.107164,496
1765877500.10718,497
1765877500.107195,497
1765877500.10721,497
1765877500.1072261,494
1765877500.107241,495
1765877500.1072562,495
1765877500.107271,495
1765877500.107287,496
1765877500.107302,496
1765877500.107317,495
1765877500.107332,495
1765877500.107348,495
1765877500.107363,495
1765877500.107379,495
1765877500.107394,495
1765877500.10741,495
1765877500.107425,495
1765877500.107445,496
1765877500.10746,495
1765877500.107476,496
1765877500.107491,496
1765877500.107506,496
1765877500.107522,495
1765877500.1075368,496
1765877500.107553,495
1765877500.107568,496
1765877500.107583,495
1765877500.107599,495
1765877500.107614,495
1765877500.107629,495
1765877500.107645,495
1765877500.10766,496
1765877500.1076758,496
1765877500.107691,496
1765877500.1077068,495
1765877500.107722,495
1765877500.107738,496
1765877500.107754,495
1765877500.107769,496
1765877500.107784,495
1765877500.1078,496
1765877500.107815,496
1765877500.107831,496
1765877500.107851,496
1765877500.107866,497
1765877500.107897,497
1765877500.108017,497
1765877500.1080341,495
1765877500.108049,495
1765877500.1080651,495
1765877500.1080809,496
1765877500.108097,496
1765877500.1081119,495
1765877500.1081269,496
1765877500.108143,497
1765877500.108159,496
1765877500.108175,495
1765877500.10819,496
1765877500.108206,496
1765877500.108282,495
1765877500.108302,495
1765877500.108319,495
1765877500.108335,495
1765877500.108351,495
1765877500.108366,495
1765877500.108382,496
1765877500.108397,496
1765877500.1084118,496
1765877500.108428,496
1765877500.108453,497
1765877500.108469,497
1765877500.1084852,498
1765877500.108503,498
1765877500.108518,498
1765877500.108534,498
1765877500.1085498,497
1765877500.108565,495
1765877500.108581,495
1765877500.108596,495
1765877500.108611,493
1765877500.1086268,493
1765877500.108642,494
1765877500.108657,494
1765877500.108673,495
1765877500.1086879,495
1765877500.1088052,496
1765877500.1088488,495
1765877500.108866,495
1765877500.108881,495
1765877500.108896,494
1765877500.1089122,495
1765877500.108927,495
1765877500.108943,494
1765877500.108958,495
1765877500.108974,495
1765877500.1090162,495
1765877500.109035,495
1765877500.10905,495
1765877500.109065,495
1765877500.109086,495
1765877500.109102,496
1765877500.109117,497
1765877500.109132,496
1765877500.1091478,496
1765877500.109214,495
1765877500.109233,496
1765877500.10925,496
1765877500.1092658,495
1765877500.109283,495
1765877500.109299,495
1765877500.1093152,495
1765877500.109332,496
1765877500.109348,496
1765877500.109364,496
1765877500.1093812,497
1765877500.109397,496
1765877500.1094139,495
1765877500.10943,495
1765877500.1094458,496
1765877500.109462,495
1765877500.109479,496
1765877500.109499,497
1765877500.109518,497
1765877500.109535,496
1765877500.1095512,496
1765877500.109567,495
1765877500.1095839,496
1765877500.1096,496
1765877500.109617,496
1765877500.1096342,496
1765877500.10965,496
1765877500.109668,495
1765877500.109684,495
1765877500.1097012,495
1765877500.109718,496
1765877500.1097338,499
1765877500.109751,499
1765877500.109767,499
1765877500.1097841,494
1765877500.1097999,494
1765877500.109816,495
1765877500.109832,495
1765877500.109847,495
1765877500.1098628,495
1765877500.109879,495
1765877500.1098938,496
1765877500.109911,498
1765877500.109934,497
1765877500.109951,495
1765877500.109967,494
1765877500.109983,495
1765877500.110003,494
1765877500.110019,495
1765877500.110034,494
1765877500.11005,494
1765877500.110066,495
1765877500.1100821,495
1765877500.110098,495
1765877500.110113,496
1765877500.1101289,495
1765877500.110145,497
1765877500.1101599,497
1765877500.110176,497
1765877500.110192,497
1765877500.110208,497
1765877500.1102238,496
1765877500.11024,493
1765877500.1102562,495
1765877500.110271,496
1765877500.1102872,495
1765877500.110303,495
1765877500.1103191,496
1765877500.1103349,495
1765877500.1103559,496
1765877500.110374,495
1765877500.11039,495
1765877500.110406,495
1765877500.1104221,496
1765877500.1104379,496
1765877500.110453,495
1765877500.110469,495
1765877500.110485,495
1765877500.110501,495
1765877500.110517,495
1765877500.110532,495
1765877500.110548,495
1765877500.110564,495
1765877500.11058,495
1765877500.110595,495
1765877500.110611,496
1765877500.1106272,496
1765877500.110642,495
1765877500.110658,495
1765877500.110674,496
1765877500.11069,496
1765877500.1107059,496
1765877500.110721,496
1765877500.1107368,494
1765877500.110753,494
1765877500.1107688,495
1765877500.110796,495
1765877500.110812,496
1765877500.110829,496
1765877500.1108449,497
1765877500.110861,497
1765877500.1108758,497
1765877500.110892,497
1765877500.1109078,495
1765877500.110924,495
1765877500.11094,496
1765877500.1109571,495
1765877500.110972,496
1765877500.110989,497
1765877500.1110048,498
1765877500.11102,498
1765877500.1110358,497
1765877500.111052,496
1765877500.111068,492
1765877500.111084,494
1765877500.1111,494
1765877500.111116,494
1765877500.1111329,494
1765877500.111149,494
1765877500.111165,495
1765877500.11118,495
1765877500.111199,496
1765877500.1112168,496
1765877500.111233,496
1765877500.111249,496
1765877500.111265,496
1765877500.111281,495
1765877500.1112971,495
1765877500.111312,495
1765877500.111328,496
1765877500.111344,495
1765877500.11136,496
1765877500.1113758,495
1765877500.111392,496
1765877500.111406,495
1765877500.111419,496
1765877500.1114318,495
1765877500.111446,495
1765877500.111459,495
1765877500.111474,495
1765877500.1114922,496
1765877500.111506,495
1765877500.11152,494
1765877500.1115332,498
1765877500.111546,499
1765877500.111559,499
1765877500.111572,499
1765877500.111586,497
1765877500.111605,494
1765877500.111618,494
1765877500.1116319,496
1765877500.111645,495
1765877500.111658,496
1765877500.111671,496
1765877500.111685,496
1765877500.1116989,496
1765877500.111713,496
1765877500.111727,496
1765877500.1117408,497
1765877500.111754,495
1765877500.111768,496
1765877500.1117811,495
1765877500.111794,496
1765877500.111933,495
1765877500.111979,495
1765877500.111994,496
1765877500.11204,495
1765877500.1120682,496
1765877500.112132,496
1765877500.112156,496
1765877500.112169,496
1765877500.112182,496
1765877500.112242,495
1765877500.112257,495
1765877500.112275,495
1765877500.112289,495
1765877500.112303,495
1765877500.112316,496
1765877500.112329,496
1765877500.1123421,496
1765877500.112355,496
1765877500.112368,495
1765877500.112381,495
1765877500.112395,496
1765877500.1124082,497
1765877500.112421,498
1765877500.112434,498
1765877500.112447,497
1765877500.1124601,493
1765877500.112473,495
1765877500.1124868,495
1765877500.1125,494
1765877500.112514,495
1765877500.1125271,495
1765877500.11254,495
1765877500.112553,495
1765877500.112567,495
1765877500.11258,495
1765877500.112594,495
1765877500.112607,496
1765877500.1126242,497
1765877500.112639,496
1765877500.112652,496
1765877500.1126652,495
1765877500.1126778,496
1765877500.1126919,496
1765877500.112705,496
1765877500.112718,495
1765877500.112731,495
1765877500.112745,497
1765877500.112759,496
1765877500.1127732,496
1765877500.1127858,496
1765877500.112799,495
1765877500.112812,495
1765877500.112826,497
1765877500.112839,496
1765877500.1128519,495
1765877500.1128662,494
1765877500.112879,495
1765877500.112892,494
1765877500.112906,494
1765877500.112919,495
1765877500.1129322,495
1765877500.112946,495
1765877500.112959,495
1765877500.1129758,495
1765877500.113009,495
1765877500.113023,495
1765877500.113037,495
1765877500.1130502,495
1765877500.1130629,495
1765877500.113077,495
1765877500.11309,495
1765877500.1131032,495
1765877500.113117,495
1765877500.11313,495
1765877500.1131442,495
1765877500.113157,495
1765877500.11317,495
1765877500.113185,496
1765877500.113198,497
1765877500.113211,496
1765877500.113225,495
1765877500.113238,495
1765877500.113255,496
1765877500.113272,495
1765877500.1132889,495
1765877500.113303,496
1765877500.113316,496
1765877500.113329,495
1765877500.113342,496
1765877500.1133592,496
1765877500.113375,496
1765877500.113388,495
1765877500.1134012,496
1765877500.1134138,495
1765877500.1134279,495
1765877500.113441,495
1765877500.113454,495
1765877500.113467,495
1765877500.113479,495
1765877500.113493,496
1765877500.113506,496
1765877500.1135192,496
1765877500.113533,495
1765877500.113546,495
1765877500.113559,496
1765877500.1135721,496
1765877500.113585,496
1765877500.1135979,496
1765877500.113612,495
1765877500.113625,496
1765877500.113638,497
1765877500.113651,496
1765877500.113664,496
1765877500.113677,495
1765877500.1136901,495
1765877500.113711,494
1765877500.113725,495
1765877500.113738,495
1765877500.1137521,496
1765877500.113765,495
1765877500.1137779,496
1765877500.113791,495
1765877500.113804,496
1765877500.113817,497
1765877500.1138308,497
1765877500.113844,498
1765877500.113857,499
1765877500.113871,498
1765877500.113884,494
1765877500.1138968,494
1765877500.11391,494
1765877500.113923,495
1765877500.113936,495
1765877500.11395,494
1765877500.1139631,495
1765877500.1139772,494
1765877500.113991,495
1765877500.114004,496
1765877500.114018,496
1765877500.114034,495
1765877500.114048,496
1765877500.114065,496
1765877500.114079,497
1765877500.114093,496
1765877500.1141062,496
1765877500.11412,494
1765877500.114134,494
1765877500.1141472,494
1765877500.114161,495
1765877500.114175,494
1765877500.114188,494
1765877500.114201,496
1765877500.114215,496
1765877500.114228,496
1765877500.114242,496
1765877500.114256,496
1765877500.114269,496
1765877500.114283,496
1765877500.1142972,496
1765877500.114311,496
1765877500.1143239,496
1765877500.1143382,495
1765877500.114351,495
1765877500.1143649,496
1765877500.114379,496
1765877500.114392,497
1765877500.1144059,498
1765877500.114423,497
1765877500.1144378,496
1765877500.114451,494
1765877500.114465,494
1765877500.114478,494
1765877500.114491,495
1765877500.114505,496
1765877500.114518,496
1765877500.114532,496
1765877500.1145449,495
1765877500.114559,495
1765877500.114573,495
1765877500.1145868,495
1765877500.1146,494
1765877500.114613,494
1765877500.1146271,495
1765877500.1146398,495
1765877500.1146529,495
1765877500.114667,496
1765877500.11468,495
1765877500.1146939,496
1765877500.114707,496
1765877500.114721,496
1765877500.1147351,496
1765877500.114748,496
1765877500.1147609,496
1765877500.114779,496
1765877500.114793,495
1765877500.1148071,495
1765877500.11482,495
1765877500.1148338,496
1765877500.114847,496
1765877500.114861,496
1765877500.1148741,496
1765877500.114888,495
1765877500.114901,496
1765877500.1149151,495
1765877500.1149282,495
1765877500.1149418,495
1765877500.114955,496
1765877500.114968,498
1765877500.114982,498
1765877500.114995,497
1765877500.115008,496
1765877500.115021,494
1765877500.1150348,495
1765877500.115048,495
1765877500.115061,494
1765877500.115075,494
1765877500.115088,495
1765877500.1151009,496
1765877500.115114,496
1765877500.115131,496
1765877500.115145,495
1765877500.115159,495
1765877500.1151721,495
1765877500.1151848,496
1765877500.115199,496
1765877500.115212,496
1765877500.115225,495
1765877500.115238,495
1765877500.115252,495
1765877500.1152651,495
1765877500.1152792,495
1765877500.1152918,496
1765877500.115305,495
1765877500.115319,495
1765877500.1153321,495
1765877500.115346,496
1765877500.115359,495
1765877500.1153731,495
1765877500.115386,495
1765877500.115399,496
1765877500.115413,495
1765877500.115427,496
1765877500.1154401,495
1765877500.115454,495
1765877500.115467,495
1765877500.115484,495
1765877500.115498,495
1765877500.1155121,496
1765877500.115526,495
1765877500.1155388,496
1765877500.1155531,497
1765877500.1155672,498
1765877500.1155798,500
1765877500.115594,497
1765877500.115607,494
1765877500.1156201,495
1765877500.115634,494
1765877500.115647,493
1765877500.1156611,496
1765877500.115675,495
1765877500.1156878,495
1765877500.115702,495
1765877500.115715,495
1765877500.1157289,495
1765877500.115743,496
1765877500.115756,496
1765877500.11577,497
1765877500.115784,496
1765877500.115798,495
1765877500.115811,494
1765877500.115825,494
1765877500.115846,495
1765877500.115861,495
1765877500.115875,496
1765877500.115888,495
1765877500.115902,496
1765877500.115915,495
1765877500.1159291,496
1765877500.115943,497
1765877500.115956,498
1765877500.1159701,498
1765877500.115984,498
1765877500.115998,495
1765877500.116012,492
1765877500.1160262,494
1765877500.1160388,496
1765877500.116053,496
1765877500.116066,497
1765877500.11608,496
1765877500.1160939,494
1765877500.116107,494
1765877500.116122,494
1765877500.116135,495
1765877500.116149,495
1765877500.116163,495
1765877500.116176,495
1765877500.11619,495
1765877500.1162062,495
1765877500.116222,496
1765877500.116235,496
1765877500.116249,496
1765877500.116263,496
1765877500.116276,496
1765877500.11629,496
1765877500.116304,496
1765877500.116317,496
1765877500.116331,498
1765877500.1163452,499
1765877500.116359,497
1765877500.1163719,494
1765877500.116386,493
1765877500.1164002,494
1765877500.1164129,495
1765877500.116427,495
1765877500.116441,494
1765877500.116454,494
1765877500.116468,495
1765877500.116481,494
1765877500.1164951,495
1765877500.116508,495
1765877500.116522,495
1765877500.116535,494
1765877500.116549,495
1765877500.116568,494
1765877500.1165829,495
1765877500.116597,495
1765877500.11661,495
1765877500.1166239,495
1765877500.116637,495
1765877500.1166499,495
1765877500.1166651,496
1765877500.116678,497
1765877500.116692,497
1765877500.116705,497
1765877500.116718,496
1765877500.116731,494
1765877500.116745,494
1765877500.116758,495
1765877500.1167748,495
1765877500.116789,496
1765877500.116802,496
1765877500.116815,497
1765877500.116828,496
1765877500.116842,496
1765877500.1168551,497
1765877500.116868,497
1765877500.116881,497
1765877500.116895,496
1765877500.116908,497
1765877500.1169212,497
1765877500.116941,496
1765877500.116954,497
1765877500.116968,497
1765877500.116981,497
1765877500.116995,496
1765877500.117008,498
1765877500.1170208,498
1765877500.117035,499
1765877500.117047,500
1765877500.117059,497
1765877500.1170702,494
1765877500.117082,495
1765877500.1170938,496
1765877500.117105,495
1765877500.117117,495
1765877500.1171288,495
1765877500.11714,495
1765877500.117152,494
1765877500.1171641,495
1765877500.117176,495
1765877500.117188,495
1765877500.1172,495
1765877500.1172118,495
1765877500.117223,495
1765877500.117235,496
1765877500.1172469,495
1765877500.1172621,495
1765877500.117274,496
1765877500.117286,495
1765877500.117298,495
1765877500.11731,495
1765877500.117322,495
1765877500.1173341,496
1765877500.117346,497
1765877500.117358,497
1765877500.1173701,497
1765877500.117381,498
1765877500.1173928,499
1765877500.117405,497
1765877500.1174169,494
1765877500.11743,494
1765877500.1174421,494
1765877500.117454,494
1765877500.117465,493
1765877500.1174788,494
1765877500.117491,494
1765877500.117503,494
1765877500.117515,495
1765877500.117527,495
1765877500.117538,495
1765877500.1175501,495
1765877500.117562,495
1765877500.117577,495
1765877500.117589,496
1765877500.117601,495
1765877500.1176121,494
1765877500.117624,495
1765877500.1176362,495
1765877500.1176472,495
1765877500.1176589,495
1765877500.117671,495
1765877500.117683,496
1765877500.117694,497
1765877500.117706,497
1765877500.117717,497
1765877500.117729,495
1765877500.117741,493
1765877500.117753,495
1765877500.117764,495
1765877500.117776,495
1765877500.1177878,495
1765877500.1178,495
1765877500.117811,495
1765877500.117823,495
1765877500.117835,496
1765877500.117847,495
1765877500.117858,496
1765877500.117871,496
1765877500.117888,496
1765877500.1179001,496
1765877500.117911,496
1765877500.117923,495
1765877500.1179352,496
1765877500.1179469,497
1765877500.117959,496
1765877500.117971,495
1765877500.1179829,495
1765877500.117995,495
1765877500.118006,496
1765877500.1180182,496
1765877500.11803,494
1765877500.1180422,495
1765877500.1180532,495
1765877500.1180649,495
1765877500.1180758,496
1765877500.118088,495
1765877500.118099,495
1765877500.118111,495
1765877500.118123,495
1765877500.118134,495
1765877500.118146,496
1765877500.1181571,495
1765877500.118169,495
1765877500.11818,495
1765877500.118196,496
1765877500.118208,495
1765877500.11822,495
1765877500.118231,494
1765877500.118243,495
1765877500.1182551,495
1765877500.1182668,495
1765877500.118279,495
1765877500.118291,495
1765877500.1183019,497
1765877500.118313,497
1765877500.118325,498
1765877500.118336,495
1765877500.118347,495
1765877500.118358,496
1765877500.118369,496
1765877500.118381,495
1765877500.118392,494
1765877500.118403,494
1765877500.118415,494
1765877500.118426,494
1765877500.118437,495
1765877500.118449,495
1765877500.11846,495
1765877500.118471,495
1765877500.1184828,495
1765877500.118499,496
1765877500.11851,496
1765877500.118521,496
1765877500.1185322,495
1765877500.1185431,495
1765877500.1185548,494
1765877500.1185658,494
1765877500.118577,495
1765877500.118588,494
1765877500.1186,495
1765877500.1186109,495
1765877500.118623,494
1765877500.118634,493
1765877500.118646,495
1765877500.118657,495
1765877500.118669,496
1765877500.11868,496
1765877500.1186922,496
1765877500.118704,495
1765877500.1187148,496
1765877500.118727,496
1765877500.118738,496
1765877500.1187499,496
1765877500.118761,495
1765877500.118773,496
1765877500.1187851,496
1765877500.1188,496
1765877500.1188118,496
1765877500.118824,497
1765877500.118835,497
1765877500.118846,496
1765877500.118858,496
1765877500.118869,496
1765877500.118881,494
1765877500.118892,494
1765877500.118903,495
1765877500.118915,495
1765877500.118926,496
1765877500.1189382,496
1765877500.1189492,496
1765877500.1189601,495
1765877500.1189718,495
1765877500.118983,495
1765877500.118994,495
1765877500.119005,495
1765877500.119017,494
1765877500.1190279,494
1765877500.119039,495
1765877500.119051,495
1765877500.119062,496
1765877500.119076,497
1765877500.1190872,497
1765877500.1191008,496
1765877500.119114,495
1765877500.119126,495
1765877500.119137,495
1765877500.119149,495
1765877500.1191611,495
1765877500.119173,496
1765877500.1191838,496
1765877500.119196,497
1765877500.119207,496
1765877500.1192188,496
1765877500.119231,495
1765877500.119242,495
1765877500.119253,495
1765877500.119265,495
1765877500.119277,495
1765877500.1192892,495
1765877500.119301,495
1765877500.1193118,495
1765877500.119325,495
1765877500.119336,495
1765877500.119348,496
1765877500.11936,496
1765877500.119371,495
1765877500.119383,496
1765877500.119395,496
1765877500.119406,496
1765877500.119423,496
1765877500.119435,498
1765877500.119446,497
1765877500.119458,496
1765877500.1194701,496
1765877500.119481,496
1765877500.119493,493
1765877500.119504,493
1765877500.119516,495
1765877500.1195269,494
1765877500.119539,494
1765877500.11955,495
1765877500.119562,495
1765877500.1195729,495
1765877500.119585,495
1765877500.119596,495
1765877500.1196082,495
1765877500.1196191,495
1765877500.11963,495
1765877500.119642,495
1765877500.1196532,496
1765877500.119665,496
1765877500.1196768,496
1765877500.119689,496
1765877500.1197,495
1765877500.119712,496
1765877500.1197288,495
1765877500.11974,496
1765877500.119752,496
1765877500.119766,495
1765877500.11978,495
1765877500.1197922,496
1765877500.119803,496
1765877500.1198149,497
1765877500.119827,496
1765877500.119839,496
1765877500.11985,495
1765877500.119862,494
1765877500.119873,494
1765877500.119885,495
1765877500.1198971,496
1765877500.119909,495
1765877500.11992,495
1765877500.119932,495
1765877500.119943,496
1765877500.119955,495
1765877500.119967,495
1765877500.119979,496
1765877500.11999,496
1765877500.120002,497
1765877500.1200142,498
1765877500.1200252,497
1765877500.120042,497
1765877500.120054,495
1765877500.1200662,493
1765877500.1200771,494
1765877500.120089,494
1765877500.1201,494
1765877500.1201122,495
1765877500.1201239,495
1765877500.1201348,496
1765877500.120147,495
1765877500.120159,496
1765877500.120171,495
1765877500.120182,495
1765877500.120193,495
1765877500.1202052,496
1765877500.120217,496
1765877500.120229,496
1765877500.1202402,495
1765877500.120252,495
1765877500.1202629,495
1765877500.120275,496
1765877500.120286,495
1765877500.120298,495
1765877500.12031,495
1765877500.120322,496
1765877500.1203341,496
1765877500.12035,496
1765877500.120363,496
1765877500.120374,495
1765877500.1203861,496
1765877500.120397,496
1765877500.120408,496
1765877500.12042,495
1765877500.1204321,496
1765877500.1204438,497
1765877500.120455,496
1765877500.120466,497
1765877500.120478,497
1765877500.1204932,497
1765877500.1205041,496
1765877500.120516,496
1765877500.120528,495
1765877500.120539,496
1765877500.1205509,497
1765877500.1205618,497
1765877500.120574,494
1765877500.120586,495
1765877500.120597,496
1765877500.120609,496
1765877500.120621,494
1765877500.1206331,495
1765877500.120644,495
1765877500.12066,494
1765877500.120672,494
1765877500.1206841,494
1765877500.120696,495
1765877500.120707,496
1765877500.1207192,497
1765877500.1207302,496
1765877500.1207418,495
1765877500.120754,496
1765877500.120766,496
1765877500.120778,496
1765877500.120789,496
1765877500.1208022,497
1765877500.1208131,498
1765877500.120825,497
1765877500.120836,496
1765877500.120848,496
1765877500.1208599,495
1765877500.1208708,497
1765877500.120883,497
1765877500.120895,497
1765877500.120907,497
1765877500.120918,496
1765877500.1209311,494
1765877500.120942,496
1765877500.120954,496
1765877500.120969,496
1765877500.120981,495
1765877500.1209931,496
1765877500.121004,496
1765877500.121016,496
1765877500.1210282,496
1765877500.1210392,497
1765877500.1210508,496
1765877500.1210618,496
1765877500.121074,497
1765877500.121086,496
1765877500.1210968,497
1765877500.121109,499
1765877500.12112,497
1765877500.121131,497
1765877500.121143,496
1765877500.121155,495
1765877500.1211672,495
1765877500.1211782,495
1765877500.121191,496
1765877500.121202,496
1765877500.121214,496
1765877500.1212249,495
1765877500.121237,495
1765877500.121248,495
1765877500.12126,496
1765877500.121275,495
1765877500.1212878,496
1765877500.121299,495
1765877500.12131,495
1765877500.121322,496
1765877500.121334,495
1765877500.121345,495
1765877500.121357,495
1765877500.1213691,495
1765877500.121381,496
1765877500.121392,496
1765877500.121403,495
1765877500.121415,494
1765877500.1214259,495
1765877500.121438,496
1765877500.121449,496
1765877500.121461,496
1765877500.121473,497
1765877500.121485,498
1765877500.121496,496
1765877500.1215081,493
1765877500.121519,495
1765877500.12153,496
1765877500.121542,496
1765877500.121553,496
1765877500.121564,495
1765877500.1215749,495
1765877500.121592,497
1765877500.1216042,498
1765877500.1216152,498
1765877500.1216261,497
1765877500.121637,494
1765877500.121648,493
1765877500.1216588,494
1765877500.1216698,494
1765877500.121682,494
1765877500.121693,495
1765877500.1217039,495
1765877500.121716,495
1765877500.121727,495
1765877500.121739,495
1765877500.12175,494
1765877500.121761,494
1765877500.1217742,495
1765877500.1217852,495
1765877500.121797,495
1765877500.121811,496
1765877500.121823,496
1765877500.121834,496
1765877500.121845,496
1765877500.121856,495
1765877500.1218681,495
1765877500.121879,495
1765877500.121896,495
1765877500.121909,496
1765877500.12192,496
1765877500.1219368,495
1765877500.121949,494
1765877500.12196,495
1765877500.121972,495
1765877500.121984,496
1765877500.121996,495
1765877500.1220071,496
1765877500.122019,495
1765877500.1220312,494
1765877500.122043,494
1765877500.1220539,496
1765877500.122066,498
1765877500.122078,501
1765877500.122089,501
1765877500.122101,500
1765877500.122112,495
1765877500.122124,492
1765877500.122136,493
1765877500.122147,493
1765877500.122159,493
1765877500.1221702,494
1765877500.122182,495
1765877500.1221938,494
1765877500.122211,494
1765877500.122224,495
1765877500.122236,495
1765877500.122248,495
1765877500.1222599,495
1765877500.122271,495
1765877500.122283,496
1765877500.122294,495
1765877500.122306,495
1765877500.122318,495
1765877500.122329,495
1765877500.1223412,495
1765877500.1223521,495
1765877500.1223638,495
1765877500.122376,495
1765877500.122388,496
1765877500.1224,495
1765877500.122412,496
1765877500.122423,496
1765877500.122435,495
1765877500.122446,495
1765877500.1224582,496
1765877500.12247,495
1765877500.1224818,496
1765877500.122494,495
1765877500.122505,495
1765877500.122517,496
1765877500.1225338,496
1765877500.122549,496
1765877500.122562,496
1765877500.122574,495
1765877500.122586,494
1765877500.1225972,495
1765877500.122609,495
1765877500.1226208,495
1765877500.122633,495
1765877500.122644,494
1765877500.122656,496
1765877500.122668,497
1765877500.12268,498
1765877500.122692,496
1765877500.122703,496
1765877500.122715,495
1765877500.122726,495
1765877500.122738,494
1765877500.12275,495
1765877500.122762,495
1765877500.122773,496
1765877500.122785,495
1765877500.122798,495
1765877500.1228101,495
1765877500.1228218,494
1765877500.122833,494
1765877500.122847,495
1765877500.122858,495
1765877500.122901,495
1765877500.122912,496
1765877500.122922,495
1765877500.122932,495
1765877500.122943,495
1765877500.122953,495
1765877500.122963,495
1765877500.122974,495
1765877500.122985,495
1765877500.122995,496
1765877500.123005,495
1765877500.1230159,495
1765877500.123026,496
1765877500.123036,495
1765877500.1230469,494
1765877500.123057,494
1765877500.123067,495
1765877500.1230779,496
1765877500.1230888,496
1765877500.1230989,496
1765877500.1231098,496
1765877500.12312,495
1765877500.1231308,495
1765877500.123141,495
1765877500.123154,495
1765877500.123167,495
1765877500.123177,495
1765877500.123188,495
1765877500.123198,495
1765877500.123209,495
1765877500.123219,495
1765877500.12323,495
1765877500.12324,495
1765877500.123251,495
1765877500.123261,495
1765877500.123272,496
1765877500.123282,496
1765877500.123292,496
1765877500.123302,495
1765877500.123313,496
1765877500.123323,495
1765877500.123334,494
1765877500.123344,494
1765877500.1233542,494
1765877500.1233652,495
1765877500.1233752,496
1765877500.1233861,496
1765877500.1233962,496
1765877500.1234062,496
1765877500.1234171,496
1765877500.123434,495
1765877500.123445,495
1765877500.123456,495
1765877500.123466,495
1765877500.123476,496
1765877500.12356,495
1765877500.123571,495
1765877500.123581,495
1765877500.123591,495
1765877500.123602,496
1765877500.123612,495
1765877500.123622,495
1765877500.123633,495
1765877500.123643,495
1765877500.123654,495
1765877500.1236649,495
1765877500.1236749,495
1765877500.1236851,496
1765877500.123696,495
1765877500.1237068,496
1765877500.123717,496
1765877500.1237278,495
1765877500.1237388,495
1765877500.123749,495
1765877500.1237602,495
1765877500.12377,495
1765877500.12378,495
1765877500.123799,495
1765877500.123809,494
1765877500.123819,495
1765877500.12383,495
1765877500.12384,495
1765877500.123851,496
1765877500.123861,495
1765877500.123871,495
1765877500.1238809,494
1765877500.1238909,495
1765877500.123901,497
1765877500.1239119,497
1765877500.1239219,496
1765877500.123932,495
1765877500.1239429,495
1765877500.1239529,495
1765877500.1239629,496
1765877500.1239738,495
1765877500.1239839,495
1765877500.123994,494
1765877500.124005,495
1765877500.124015,495
1765877500.124025,495
1765877500.124036,495
1765877500.124046,495
1765877500.124057,495
1765877500.124071,495
1765877500.1240819,495
1765877500.1240928,495
1765877500.1241028,495
1765877500.1241128,494
1765877500.1241238,495
1765877500.1241338,495
1765877500.124144,495
1765877500.1241548,495
1765877500.124165,495
1765877500.124175,495
1765877500.124186,495
1765877500.124196,495
1765877500.124207,495
1765877500.124217,495
1765877500.124227,495
1765877500.124238,496
1765877500.124249,496
1765877500.124259,495
1765877500.12427,495
1765877500.12428,496
1765877500.1242912,495
1765877500.1243021,495
1765877500.1243122,495
1765877500.124322,495
1765877500.1243331,495
1765877500.124347,495
1765877500.124358,495
1765877500.124368,496
1765877500.124379,496
1765877500.12439,496
1765877500.1244001,496
1765877500.1244102,495
1765877500.1244211,495
1765877500.1244311,495
1765877500.124442,495
1765877500.124452,495
1765877500.124463,495
1765877500.124473,495
1765877500.124483,495
1765877500.124494,496
1765877500.124504,495
1765877500.124514,495
1765877500.124525,495
1765877500.124536,495
1765877500.124546,495
1765877500.124556,496
1765877500.124567,495
1765877500.124577,495
1765877500.124587,496
1765877500.124597,495
1765877500.124607,494
1765877500.12462,495
1765877500.1246321,494
1765877500.124643,495
1765877500.124653,494
1765877500.124663,495
1765877500.124674,494
1765877500.124684,496
1765877500.124694,495
1765877500.124705,496
1765877500.124715,496
1765877500.124726,496
1765877500.124736,496
1765877500.124747,495
1765877500.124757,494
1765877500.124767,494
1765877500.124777,495
1765877500.1247869,495
1765877500.124798,495
1765877500.1248078,494
1765877500.1248178,494
1765877500.1248288,494
1765877500.1248388,495
1765877500.12485,495
1765877500.1248598,495
1765877500.1248698,495
1765877500.1248798,495
1765877500.1248908,495
1765877500.1249049,496
1765877500.124916,495
1765877500.124927,495
1765877500.124937,495
1765877500.1249468,495
1765877500.124958,495
1765877500.124968,496
1765877500.124979,496
1765877500.124989,496
1765877500.1249988,496
1765877500.1250088,496
1765877500.1250188,496
1765877500.1250298,496
1765877500.12504,496
1765877500.12505,497
1765877500.125061,496
1765877500.125071,497
1765877500.125082,496
1765877500.125092,496
1765877500.125102,496
1765877500.125112,496
1765877500.125123,496
1765877500.125133,497
1765877500.125143,496
1765877500.125154,495
1765877500.125165,496
1765877500.1251771,496
1765877500.1251898,496
1765877500.1251998,496
1765877500.1252108,496
1765877500.125221,495
1765877500.125231,495
1765877500.125242,495
1765877500.125252,494
1765877500.125262,496
1765877500.125273,495
1765877500.125283,496
1765877500.125294,495
1765877500.125304,495
1765877500.1253152,495
1765877500.1253262,495
1765877500.1253362,495
1765877500.1253471,496
1765877500.125358,496
1765877500.125368,496
1765877500.1253781,496
1765877500.125389,496
1765877500.1254,496
1765877500.12541,496
1765877500.12542,496
1765877500.12543,495
1765877500.125441,494
1765877500.125451,495
1765877500.125466,494
1765877500.125477,495
1765877500.125487,494
1765877500.125497,495
1765877500.125508,496
1765877500.125518,495
1765877500.125529,495
1765877500.125539,494
1765877500.125549,494
1765877500.1255622,494
1765877500.1255722,494
1765877500.1255832,494
1765877500.1255932,495
1765877500.1256042,495
1765877500.1256142,495
1765877500.1256242,494
1765877500.125634,494
1765877500.1256452,495
1765877500.125655,495
1765877500.125665,496
1765877500.125676,495
1765877500.1256871,495
1765877500.125698,495
1765877500.125708,495
1765877500.125718,494
1765877500.125729,494
1765877500.1257422,494
1765877500.125754,493
1765877500.125765,494
1765877500.1257758,494
1765877500.125786,495
1765877500.125796,495
1765877500.125806,494
1765877500.125817,494
1765877500.125827,494
1765877500.125838,495
1765877500.125848,495
1765877500.125859,495
1765877500.125869,495
1765877500.12588,495
1765877500.12589,494
1765877500.125901,494
1765877500.125912,495
1765877500.125922,495
1765877500.1259332,495
1765877500.1259441,495
1765877500.1259542,495
1765877500.125964,495
1765877500.1259751,494
1765877500.125985,495
1765877500.125996,494
1765877500.1260061,495
1765877500.126017,495
1765877500.1260312,494
1765877500.1260421,494
1765877500.1260521,495
1765877500.126063,495
1765877500.1260731,495
1765877500.126084,495
1765877500.126094,495
1765877500.126105,495
1765877500.126115,494
1765877500.126126,494
1765877500.126136,494
1765877500.126147,494
1765877500.126158,495
1765877500.1261692,495
1765877500.126179,495
1765877500.126189,495
1765877500.1262,495
1765877500.12621,495
1765877500.126221,495
1765877500.1262321,494
1765877500.1262422,495
1765877500.126252,495
1765877500.126264,496
1765877500.126274,495
1765877500.126285,495
1765877500.126296,495
1765877500.1263099,495
1765877500.1263208,494
1765877500.1263318,495
1765877500.1263418,495
1765877500.1263518,495
1765877500.1263628,495
1765877500.126374,495
1765877500.126384,496
1765877500.126394,495
1765877500.1264052,495
1765877500.126415,495
1765877500.1264262,494
1765877500.126436,494
1765877500.1264472,495
1765877500.126457,495
1765877500.126467,495
1765877500.126477,495
1765877500.126488,495
1765877500.126498,496
1765877500.126508,496
1765877500.126518,497
1765877500.126528,496
1765877500.126538,495
1765877500.126548,494
1765877500.126558,495
1765877500.126569,495
1765877500.126582,494
1765877500.126593,495
1765877500.1266031,495
1765877500.126613,495
1765877500.126624,495
1765877500.126634,494
1765877500.126644,495
1765877500.126654,495
1765877500.126664,495
1765877500.126674,495
1765877500.126684,494
1765877500.126694,495
1765877500.1267042,495
1765877500.126715,496
1765877500.1267252,495
1765877500.1267352,495
1765877500.126745,495
1765877500.126755,495
1765877500.126765,495
1765877500.126776,496
1765877500.126786,495
1765877500.126796,495
1765877500.126806,495
1765877500.126816,495
1765877500.126826,495
1765877500.126836,495
1765877500.126849,495
1765877500.126861,494
1765877500.126871,495
1765877500.1268811,495
1765877500.126891,495
1765877500.126901,495
1765877500.126911,496
1765877500.126922,495
1765877500.126932,496
1765877500.126942,495
1765877500.126953,494
1765877500.126963,494
1765877500.1269739,494
1765877500.126984,494
1765877500.126994,495
1765877500.127004,496
1765877500.1270149,495
1765877500.127025,495
1765877500.127035,496
1765877500.1270459,495
1765877500.127056,495
1765877500.1270661,494
1765877500.1270761,495
1765877500.127087,496
1765877500.1270971,495
1765877500.1271071,496
1765877500.127118,495
1765877500.127132,495
1765877500.127142,494
1765877500.1271522,495
1765877500.1271622,495
1765877500.127172,496
1765877500.127182,496
1765877500.127192,496
1765877500.127203,495
1765877500.127213,495
1765877500.127222,495
1765877500.1272352,494
1765877500.127245,494
1765877500.1272562,494
1765877500.127266,495
1765877500.1272771,495
1765877500.1272871,495
1765877500.127297,495
1765877500.127307,495
1765877500.127317,494
1765877500.127328,494
1765877500.127338,494
1765877500.127348,495
1765877500.127358,495
1765877500.127369,496
1765877500.127379,496
1765877500.127389,496
1765877500.127403,495
1765877500.127414,495
1765877500.127424,495
1765877500.127434,495
1765877500.127445,495
1765877500.127455,495
1765877500.127466,495
1765877500.127476,495
1765877500.127486,495
1765877500.127496,495
1765877500.127506,495
1765877500.127517,495
1765877500.127527,495
1765877500.127537,495
1765877500.127548,495
1765877500.127558,495
1765877500.1275678,496
1765877500.127579,495
1765877500.1275892,495
1765877500.127599,494
1765877500.1276102,493
1765877500.12762,495
1765877500.1276312,496
1765877500.1276412,495
1765877500.127651,495
1765877500.127661,495
1765877500.127674,495
1765877500.1276858,495
1765877500.127697,495
1765877500.1277068,495
1765877500.127718,495
1765877500.1277282,495
1765877500.127738,495
1765877500.1277492,494
1765877500.1277592,495
1765877500.127769,495
1765877500.127779,495
1765877500.127789,495
1765877500.1278,495
1765877500.12781,495
1765877500.12782,496
1765877500.127831,495
1765877500.127842,495
1765877500.127852,495
1765877500.127862,496
1765877500.127873,495
1765877500.127883,495
1765877500.127893,495
1765877500.127904,494
1765877500.127914,495
1765877500.127925,495
1765877500.127935,495
1765877500.127946,495
1765877500.12796,495
1765877500.1279712,495
1765877500.127981,496
1765877500.1279922,495
1765877500.1280022,495
1765877500.128012,495
1765877500.1280231,495
1765877500.128033,496
1765877500.1280441,496
1765877500.128055,495
1765877500.128065,495
1765877500.1280751,495
1765877500.128085,495
1765877500.128096,496
1765877500.128107,496
1765877500.128117,496
1765877500.1281269,495
1765877500.128138,495
1765877500.128148,495
1765877500.1281579,495
1765877500.128169,495
1765877500.1281788,495
1765877500.1281888,495
1765877500.1282,495
1765877500.128211,495
1765877500.128221,495
1765877500.128238,495
1765877500.128248,495
1765877500.1282601,496
1765877500.128271,496
1765877500.1282828,496
1765877500.128294,495
1765877500.1283042,496
1765877500.128315,496
1765877500.1283252,497
1765877500.128335,496
1765877500.1283462,496
1765877500.128356,496
1765877500.1283672,495
1765877500.1283772,495
1765877500.128387,495
1765877500.128397,495
1765877500.128408,495
1765877500.128418,495
1765877500.128428,495
1765877500.128439,495
1765877500.1284502,496
1765877500.12846,496
1765877500.12847,495
1765877500.128481,495
1765877500.128491,496
1765877500.1285021,496
1765877500.128515,497
1765877500.12853,497
1765877500.1285398,496
1765877500.128551,495
1765877500.1285608,495
1765877500.1285708,496
1765877500.128582,495
1765877500.1285918,496
1765877500.128601,495
1765877500.128611,495
1765877500.128621,495
1765877500.12863,495
1765877500.128639,496
1765877500.128648,496
1765877500.1286578,496
1765877500.1286669,497
1765877500.1286762,496
1765877500.1286862,497
1765877500.128696,495
1765877500.128705,495
1765877500.128716,493
1765877500.1287239,493
1765877500.1287339,495
1765877500.128743,496
1765877500.1287522,498
1765877500.128762,498
1765877500.128774,497
1765877500.128785,497
1765877500.128795,497
1765877500.1288042,497
1765877500.128814,496
1765877500.128823,496
1765877500.128832,496
1765877500.128841,496
1765877500.128851,498
1765877500.12886,498
1765877500.1288698,499
1765877500.12888,498
1765877500.12889,499
1765877500.128899,498
1765877500.128909,496
1765877500.12892,495
1765877500.1289291,494
1765877500.128939,493
1765877500.128949,494
1765877500.128958,496
1765877500.128968,496
1765877500.1289768,496
1765877500.1289868,498
1765877500.128997,498
1765877500.1290061,497
1765877500.1290162,495
1765877500.129025,494
1765877500.129039,494
1765877500.129049,494
1765877500.129059,494
1765877500.1290681,495
1765877500.129078,494
1765877500.129087,495
1765877500.129097,495
1765877500.129107,495
1765877500.1291158,496
1765877500.129125,495
1765877500.1291351,496
1765877500.129144,497
1765877500.129154,495
1765877500.129163,496
1765877500.129173,497
1765877500.1291819,497
1765877500.1291919,496
1765877500.129201,496
1765877500.129211,495
1765877500.12922,495
1765877500.12923,495
1765877500.12924,495
1765877500.12925,495
1765877500.129259,495
1765877500.129269,496
1765877500.129278,495
1765877500.1292899,494
1765877500.129302,495
1765877500.129311,495
1765877500.1293209,495
1765877500.12933,495
1765877500.12934,495
1765877500.1293492,495
1765877500.129358,495
1765877500.129367,495
1765877500.1293771,496
1765877500.129386,496
1765877500.129395,495
1765877500.1294038,496
1765877500.1294131,497
1765877500.1294222,497
1765877500.129431,497
1765877500.12944,496
1765877500.129449,495
1765877500.129459,494
1765877500.129468,494
1765877500.129477,494
1765877500.129486,495
1765877500.129496,496
1765877500.129505,496
1765877500.129514,495
1765877500.129523,496
1765877500.129536,496
1765877500.129546,496
1765877500.129556,495
1765877500.129565,493
1765877500.129575,495
1765877500.129584,496
1765877500.1295931,495
1765877500.129602,495
1765877500.129612,495
1765877500.129621,495
1765877500.1296299,495
1765877500.1296399,495
1765877500.129649,495
1765877500.1296582,496
1765877500.129668,495
1765877500.129677,495
1765877500.129687,494
1765877500.129696,495
1765877500.129706,495
1765877500.129715,495
1765877500.129725,494
1765877500.1297338,496
1765877500.129743,497
1765877500.129753,496
1765877500.129762,495
1765877500.129772,495
1765877500.129781,495
1765877500.129795,495
1765877500.1298041,495
1765877500.129813,495
1765877500.129823,496
1765877500.129833,495
1765877500.1298418,495
1765877500.1298518,495
1765877500.129861,495
1765877500.1298702,496
1765877500.12988,496
1765877500.129889,495
1765877500.129898,495
1765877500.129908,496
1765877500.129917,495
1765877500.129926,496
1765877500.129936,495
1765877500.129945,497
1765877500.129954,496
1765877500.129963,495
1765877500.129973,496
1765877500.129982,496
1765877500.129992,496
1765877500.1300008,496
1765877500.1300101,496
1765877500.1300201,496
1765877500.130029,495
1765877500.130049,495
1765877500.130059,495
1765877500.130069,495
1765877500.1300778,495
1765877500.1300879,495
1765877500.130097,495
1765877500.130107,496
1765877500.1301172,495
1765877500.130126,495
1765877500.130135,496
1765877500.130144,495
1765877500.130153,495
1765877500.130163,495
1765877500.130172,495
1765877500.1301818,495
1765877500.130191,495
1765877500.130201,495
1765877500.1302102,495
1765877500.13022,495
1765877500.130229,496
1765877500.130239,496
1765877500.1302478,497
1765877500.1302578,496
1765877500.130267,496
1765877500.1302772,496
1765877500.130286,495
1765877500.1302981,495
1765877500.1303082,496
1765877500.130317,495
1765877500.130327,495
1765877500.130336,495
1765877500.1303449,495
1765877500.130354,496
1765877500.130364,495
1765877500.130373,495
1765877500.130382,495
1765877500.130392,495
1765877500.1304011,495
1765877500.130411,495
1765877500.13042,495
1765877500.13043,496
1765877500.1304388,496
1765877500.1304488,495
1765877500.1304588,496
1765877500.1304681,495
1765877500.130477,495
1765877500.130487,496
1765877500.130496,496
1765877500.1305048,496
1765877500.1305149,496
1765877500.130524,495
1765877500.130534,496
1765877500.130543,495
1765877500.1305559,496
1765877500.130566,495
1765877500.130576,495
1765877500.1305852,495
1765877500.130595,496
1765877500.130604,495
1765877500.130613,495
1765877500.1306229,496
1765877500.130632,495
1765877500.130642,496
1765877500.130651,495
1765877500.13066,495
1765877500.13067,495
1765877500.1306791,495
1765877500.130689,495
1765877500.130698,495
1765877500.130708,495
1765877500.130718,495
1765877500.130728,495
1765877500.1307368,496
1765877500.1307461,495
1765877500.1307561,495
1765877500.130765,495
1765877500.130774,495
1765877500.130783,495
1765877500.1307929,495
1765877500.130805,496
1765877500.130815,496
1765877500.130825,495
1765877500.1308339,495
1765877500.130843,494
1765877500.1308532,495
1765877500.130862,495
1765877500.130871,495
1765877500.130881,495
1765877500.13089,496
1765877500.130899,496
1765877500.130909,496
1765877500.1309178,495
1765877500.130928,495
1765877500.130937,495
1765877500.130947,496
1765877500.1309571,495
1765877500.130966,495
1765877500.130976,495
1765877500.130985,495
1765877500.1309938,495
1765877500.1310039,495
1765877500.1310132,495
1765877500.1310232,495
1765877500.131032,495
1765877500.131042,495
1765877500.131051,495
1765877500.1310651,495
1765877500.1310751,495
1765877500.131084,495
1765877500.131093,496
1765877500.131103,496
1765877500.1311119,496
1765877500.1311219,496
1765877500.131131,495
1765877500.1311412,495
1765877500.13115,496
1765877500.131159,495
1765877500.131169,495
1765877500.131178,494
1765877500.131187,495
1765877500.131197,495
1765877500.1312058,495
1765877500.1312158,496
1765877500.131225,496
1765877500.1312351,496
1765877500.131244,495
1765877500.131254,495
1765877500.131263,496
1765877500.1312718,496
1765877500.1312819,495
1765877500.131291,496
1765877500.1313012,495
1765877500.1313128,495
1765877500.1313238,495
1765877500.131333,495
1765877500.1313431,495
1765877500.131352,495
1765877500.131361,495
1765877500.1313732,494
1765877500.131382,495
1765877500.131392,495
1765877500.131401,495
1765877500.13141,495
1765877500.131419,495
1765877500.1314292,495
1765877500.131438,495
1765877500.131448,495
1765877500.131457,495
1765877500.131466,495
1765877500.131475,495
1765877500.1314838,495
1765877500.1314938,496
1765877500.131503,495
1765877500.1315122,496
1765877500.131522,495
1765877500.131531,495
1765877500.13154,496
1765877500.131549,495
1765877500.131561,495
1765877500.131571,496
1765877500.1315799,495
1765877500.1315892,495
1765877500.131598,495
1765877500.131607,495
1765877500.131616,496
1765877500.131625,496
1765877500.131635,496
1765877500.131644,495
1765877500.131653,495
1765877500.1316621,495
1765877500.1316721,495
1765877500.131681,495
1765877500.13169,496
1765877500.1316988,495
1765877500.131708,496
1765877500.1317172,496
1765877500.1317272,495
1765877500.131736,494
1765877500.131746,495
1765877500.131755,495
1765877500.131764,495
1765877500.131774,496
1765877500.131783,495
1765877500.1317918,495
1765877500.1318011,495
1765877500.131814,495
1765877500.131825,495
1765877500.131834,495
1765877500.131843,494
1765877500.131853,495
1765877500.131862,496
1765877500.131871,495
1765877500.13188,495
1765877500.1318898,495
1765877500.1318989,496
1765877500.1319082,495
1765877500.131917,495
1765877500.131927,495
1765877500.131936,495
1765877500.131945,496
1765877500.131955,495
1765877500.131964,495
1765877500.131973,495
1765877500.131983,495
1765877500.131992,495
1765877500.132001,495
1765877500.13201,495
1765877500.13202,495
1765877500.1320288,495
1765877500.1320388,496
1765877500.132048,497
1765877500.132063,496
1765877500.1320739,496
1765877500.132083,497
1765877500.132092,496
1765877500.1321018,497
1765877500.132111,496
1765877500.1321201,496
1765877500.132129,496
1765877500.132138,496
1765877500.1321468,496
1765877500.1321568,497
1765877500.132166,496
1765877500.1321752,496
1765877500.132184,496
1765877500.132193,496
1765877500.132202,496
1765877500.132211,495
1765877500.1322198,496
1765877500.132229,495
1765877500.1322381,495
1765877500.132247,495
1765877500.132256,495
1765877500.1322649,495
1765877500.132274,495
1765877500.132283,495
1765877500.132292,495
1765877500.132304,495
1765877500.132315,495
1765877500.132324,496
1765877500.132333,495
1765877500.132342,495
1765877500.132351,496
1765877500.132361,496
1765877500.13237,495
1765877500.13238,495
1765877500.132389,496
1765877500.132399,495
1765877500.1324081,495
1765877500.132417,495
1765877500.132427,496
1765877500.132436,495
1765877500.1324449,495
1765877500.132454,495
1765877500.1324642,495
1765877500.132473,495
1765877500.132482,495
1765877500.132491,495
1765877500.132501,496
1765877500.13251,494
1765877500.13252,495
1765877500.1325288,495
1765877500.132538,495
1765877500.132548,495
1765877500.132561,495
1765877500.132571,495
1765877500.13258,496
1765877500.132589,495
1765877500.132598,495
1765877500.132607,495
1765877500.132616,495
1765877500.1326249,495
1765877500.1326342,495
1765877500.132643,495
1765877500.132652,495
1765877500.132661,495
1765877500.13267,495
1765877500.13268,495
1765877500.132689,495
1765877500.132698,495
1765877500.132707,495
1765877500.1327171,495
1765877500.132726,495
1765877500.132735,495
1765877500.1327438,495
1765877500.132753,495
1765877500.132763,495
1765877500.1327722,495
1765877500.132781,495
1765877500.13279,496
1765877500.132802,495
1765877500.1328142,495
1765877500.132823,495
1765877500.132832,495
1765877500.132842,495
1765877500.132851,495
1765877500.13286,495
1765877500.132869,495
1765877500.132878,496
1765877500.1328902,495
1765877500.1329,495
1765877500.132909,495
1765877500.1329181,495
1765877500.132927,495
1765877500.132936,495
1765877500.132946,495
1765877500.1329548,495
1765877500.1329641,495
1765877500.1329741,495
1765877500.132983,495
1765877500.132992,495
1765877500.133002,495
1765877500.133013,496
1765877500.133022,496
1765877500.1330318,496
1765877500.133041,496
1765877500.133051,496
1765877500.133066,496
1765877500.133076,495
1765877500.133085,495
1765877500.1330938,495
1765877500.133104,495
1765877500.1331131,495
1765877500.133122,495
1765877500.133132,495
1765877500.133142,495
1765877500.133151,496
1765877500.1331599,496
1765877500.133169,496
1765877500.133178,496
1765877500.133187,495
1765877500.133196,496
1765877500.133205,495
1765877500.133214,495
1765877500.1332228,495
1765877500.133232,496
1765877500.1332421,496
1765877500.1332512,495
1765877500.13326,495
1765877500.133269,496
1765877500.133278,495
1765877500.133288,495
1765877500.133297,496
1765877500.133312,495
1765877500.133323,495
1765877500.133332,495
1765877500.1333408,495
1765877500.13335,496
1765877500.1333592,496
1765877500.133368,496
1765877500.133377,495
1765877500.133386,496
1765877500.133395,495
1765877500.133404,495
1765877500.1334138,496
1765877500.133423,496
1765877500.1334321,496
1765877500.1334422,496
1765877500.133451,496
1765877500.13346,495
1765877500.1334689,496
1765877500.133478,495
1765877500.1334882,496
1765877500.133497,495
1765877500.133506,496
1765877500.133516,496
1765877500.133525,495
1765877500.133535,495
1765877500.133544,495
1765877500.133556,495
1765877500.133567,496
1765877500.133576,495
1765877500.133586,496
1765877500.133595,496
1765877500.133605,496
1765877500.133614,495
1765877500.1336231,495
1765877500.1336331,496
1765877500.133642,496
1765877500.133652,496
1765877500.133661,496
1765877500.1336699,496
1765877500.13368,496
1765877500.1336892,495
1765877500.1336992,496
1765877500.133708,495
1765877500.133717,496
1765877500.133727,496
1765877500.133736,496
1765877500.133745,495
1765877500.133755,495
1765877500.133764,496
1765877500.133774,496
1765877500.133783,496
1765877500.133792,496
1765877500.133801,495
1765877500.133814,495
1765877500.133823,495
1765877500.133833,495
1765877500.133842,496
1765877500.1338508,497
1765877500.13386,497
1765877500.1338701,496
1765877500.133879,495
1765877500.133888,496
1765877500.133897,495
1765877500.1339068,496
1765877500.133916,496
1765877500.1339252,495
1765877500.133934,495
1765877500.133944,495
1765877500.133953,496
1765877500.133962,496
1765877500.133972,496
1765877500.133981,496
1765877500.133991,496
1765877500.1340008,495
1765877500.13401,495
1765877500.1340191,496
1765877500.134028,496
1765877500.134038,496
1765877500.134048,495
1765877500.1340601,496
1765877500.134071,496
1765877500.1340811,495
1765877500.13409,494
1765877500.1341,495
1765877500.134109,496
1765877500.1341178,496
1765877500.134128,495
1765877500.1341372,495
1765877500.134146,496
1765877500.134156,496
1765877500.134165,496
1765877500.1341739,496
1765877500.134184,496
1765877500.134193,496
1765877500.134202,496
1765877500.134212,496
1765877500.134222,495
1765877500.134231,496
1765877500.13424,495
1765877500.13425,496
1765877500.13426,496
1765877500.134269,496
1765877500.1342778,496
1765877500.1342878,496
1765877500.1342971,496
1765877500.134309,496
1765877500.134321,496
1765877500.13433,496
1765877500.134339,496
1765877500.134348,495
1765877500.134358,496
1765877500.134367,496
1765877500.134376,496
1765877500.1343849,496
1765877500.134393,495
1765877500.134401,496
1765877500.13441,495
1765877500.134419,495
1765877500.1344268,496
1765877500.1344361,496
1765877500.134444,495
1765877500.134453,496
1765877500.134461,496
1765877500.13447,496
1765877500.134479,496
1765877500.1344872,496
1765877500.134496,496
1765877500.134505,496
1765877500.134513,495
1765877500.1345222,496
1765877500.13453,496
1765877500.134539,496
1765877500.13455,496
1765877500.13456,496
1765877500.134569,495
1765877500.134578,495
1765877500.134586,496
1765877500.134594,496
1765877500.134603,496
1765877500.134612,495
1765877500.13462,496
1765877500.134629,496
1765877500.134638,496
1765877500.134646,496
1765877500.134655,495
1765877500.1346638,496
1765877500.134672,496
1765877500.134681,496
1765877500.134689,495
1765877500.134698,495
1765877500.134706,495
1765877500.1347141,495
1765877500.1347232,496
1765877500.134731,496
1765877500.134739,496
1765877500.134748,496
1765877500.134756,496
1765877500.1347651,495
1765877500.134773,496
1765877500.134787,496
1765877500.1347961,496
1765877500.134804,496
1765877500.1348128,495
1765877500.1348212,495
1765877500.13483,495
1765877500.134838,495
1765877500.134847,496
1765877500.1348548,495
1765877500.1348631,495
1765877500.134872,496
1765877500.134881,496
1765877500.134889,495
1765877500.134897,496
1765877500.134906,495
1765877500.134915,495
1765877500.134924,496
1765877500.134932,496
1765877500.1349409,495
1765877500.1349492,496
1765877500.134958,496
1765877500.1349661,496
1765877500.134974,496
1765877500.1349828,496
1765877500.134992,496
1765877500.135,496
1765877500.135011,496
1765877500.135021,496
1765877500.13503,496
1765877500.135039,496
1765877500.135047,496
1765877500.1350558,496
1765877500.135065,495
1765877500.1350741,496
1765877500.135082,496
1765877500.1350908,496
1765877500.135099,496
1765877500.135108,496
1765877500.135117,496
1765877500.135125,496
1765877500.135134,495
1765877500.1351418,496
1765877500.1351511,495
1765877500.135159,496
1765877500.135168,495
1765877500.135177,495
1765877500.135185,495
1765877500.135194,496
1765877500.135202,495
1765877500.135211,495
1765877500.13522,496
1765877500.135228,496
1765877500.135236,496
1765877500.135248,496
1765877500.1352582,497
1765877500.135267,497
1765877500.1352751,497
1765877500.135284,496
1765877500.1352918,496
1765877500.135301,497
1765877500.135309,497
1765877500.135318,498
1765877500.1353269,498
1765877500.135335,497
1765877500.135344,498
1765877500.1353521,499
1765877500.135361,499
1765877500.135369,497
1765877500.135378,495
1765877500.135387,496
1765877500.135395,497
1765877500.135403,496
1765877500.135412,497
1765877500.135421,497
1765877500.1354291,495
1765877500.135438,496
1765877500.135446,496
1765877500.135455,496
1765877500.135464,496
1765877500.135474,496
1765877500.135485,496
1765877500.135494,496
1765877500.135503,495
1765877500.135511,496
1765877500.135519,496
1765877500.1355278,496
1765877500.1355362,495
1765877500.135545,495
1765877500.1355531,496
1765877500.135562,496
1765877500.135571,496
1765877500.1355789,495
1765877500.1355882,495
1765877500.135597,495
1765877500.135605,496
1765877500.135613,497
1765877500.1356218,496
1765877500.1356301,496
1765877500.135638,496
1765877500.135647,495
1765877500.135655,495
1765877500.135663,496
1765877500.135672,496
1765877500.13568,496
1765877500.135689,495
1765877500.1356978,496
1765877500.135713,496
1765877500.135722,496
1765877500.135731,495
1765877500.1357388,495
1765877500.1357481,496
1765877500.135757,495
1765877500.135765,495
1765877500.135774,495
1765877500.135783,496
1765877500.135791,495
1765877500.1358001,495
1765877500.135808,495
1765877500.135817,496
1765877500.135825,495
1765877500.1358342,495
1765877500.135842,495
1765877500.135851,495
1765877500.13586,496
1765877500.135869,496
1765877500.1358771,496
1765877500.135885,494
1765877500.135894,496
1765877500.135903,495
1765877500.135912,496
1765877500.13592,495
1765877500.135929,496
1765877500.135942,495
1765877500.13595,495
1765877500.1359591,495
1765877500.135967,496
1765877500.1359758,495
1765877500.135985,496
1765877500.135993,495
1765877500.136002,495
1765877500.13601,496
1765877500.136019,496
1765877500.1360278,495
1765877500.1360362,495
1765877500.136045,495
1765877500.136054,495
1765877500.136062,496
1765877500.136071,496
1765877500.136079,495
1765877500.1360881,495
1765877500.136097,495
1765877500.136106,496
1765877500.136114,495
1765877500.1361222,496
1765877500.136131,496
1765877500.13614,495
1765877500.136148,495
1765877500.136157,496
1765877500.136168,496
1765877500.136178,496
1765877500.1361868,495
1765877500.1361952,495
1765877500.136203,495
1765877500.1362119,495
1765877500.136221,495
1765877500.136229,495
1765877500.136238,495
1765877500.1362472,496
1765877500.136256,495
1765877500.1362638,495
1765877500.136273,496
1765877500.136281,495
1765877500.13629,496
1765877500.136298,496
1765877500.136307,496
1765877500.1363149,495
1765877500.1363242,495
1765877500.136333,495
1765877500.136341,495
1765877500.13635,496
1765877500.1363578,495
1765877500.136367,495
1765877500.136375,495
1765877500.136384,495
1765877500.136394,495
1765877500.1364028,496
1765877500.136412,496
1765877500.13642,496
1765877500.136428,496
1765877500.136437,495
1765877500.136445,496
1765877500.1364532,495
1765877500.136462,495
1765877500.13647,496
1765877500.136479,496
1765877500.136487,496
1765877500.136495,497
1765877500.136503,496
1765877500.136512,495
1765877500.13652,496
1765877500.136529,496
1765877500.136538,496
1765877500.136547,495
1765877500.136555,495
1765877500.136563,496
1765877500.136571,496
1765877500.136579,495
1765877500.136588,496
1765877500.136596,496
1765877500.1366038,495
1765877500.1366122,496
1765877500.1366231,496
1765877500.136631,496
1765877500.13664,496
1765877500.136648,495
1765877500.136657,496
1765877500.136665,496
1765877500.136673,496
1765877500.136682,495
1765877500.13669,496
1765877500.136698,496
1765877500.136707,495
1765877500.136715,495
1765877500.136723,496
1765877500.1367319,496
1765877500.1367402,496
1765877500.136748,495
1765877500.136756,495
1765877500.136765,495
1765877500.136773,495
1765877500.136781,496
1765877500.13679,496
1765877500.136798,496
1765877500.136807,496
1765877500.136815,496
1765877500.136823,495
1765877500.136832,495
1765877500.136842,496
1765877500.136852,496
1765877500.13686,496
1765877500.136868,496
1765877500.136876,496
1765877500.136884,496
1765877500.136893,496
1765877500.1369011,496
1765877500.13691,495
1765877500.136918,496
1765877500.136926,495
1765877500.136935,496
1765877500.136943,495
1765877500.1369689,495
1765877500.1369889,495
1765877500.136998,495
1765877500.137006,496
1765877500.137014,496
1765877500.137023,495
1765877500.1370308,496
1765877500.1370392,497
1765877500.137048,496
1765877500.137056,496
1765877500.137064,496
1765877500.1370728,496
1765877500.1370811,496
1765877500.137089,496
1765877500.1371,496
1765877500.13711,496
1765877500.1371179,496
1765877500.137126,496
1765877500.137134,495
1765877500.137142,495
1765877500.13715,495
1765877500.137158,495
1765877500.1371672,496
1765877500.137175,495
1765877500.137183,495
1765877500.137192,496
1765877500.1372,496
1765877500.137208,496
1765877500.137216,495
1765877500.137225,496
1765877500.1372328,496
1765877500.1372411,496
1765877500.13725,496
1765877500.137258,496
1765877500.137266,496
1765877500.137275,496
1765877500.137283,495
1765877500.137291,495
1765877500.137299,496
1765877500.137308,495
1765877500.137318,495
1765877500.1373281,495
1765877500.137336,496
1765877500.137344,495
1765877500.137353,495
1765877500.1373608,496
1765877500.13737,496
1765877500.137378,496
1765877500.137386,495
1765877500.137394,496
1765877500.137402,496
1765877500.137411,496
1765877500.137419,496
1765877500.1374269,496
1765877500.137436,495
1765877500.1374452,496
1765877500.137453,495
1765877500.137461,495
1765877500.1374688,496
1765877500.1374779,496
1765877500.137486,496
1765877500.137494,496
1765877500.137502,496
1765877500.137511,496
1765877500.1375191,496
1765877500.1375282,495
1765877500.137536,495
1765877500.137544,496
1765877500.137553,496
1765877500.137561,495
1765877500.137569,495
1765877500.137577,496
1765877500.1375859,494
1765877500.1375942,495
1765877500.137603,496
1765877500.137611,496
1765877500.137619,497
1765877500.1376278,496
1765877500.1376362,496
1765877500.137644,496
1765877500.1376529,496
1765877500.137661,496
1765877500.1376698,496
1765877500.1376781,496
1765877500.137686,496
1765877500.137694,495
1765877500.137703,496
1765877500.137711,496
1765877500.1377192,496
1765877500.137728,496
1765877500.1377358,496
1765877500.137744,495
1765877500.137753,496
1765877500.137761,496
1765877500.137774,495
1765877500.137783,496
1765877500.137791,496
1765877500.1378,496
1765877500.1378078,495
1765877500.137816,496
1765877500.137825,495
1765877500.1378329,496
1765877500.137841,496
1765877500.13785,496
1765877500.1378582,497
1765877500.137867,496
1765877500.1378748,496
1765877500.137883,496
1765877500.137899,495
1765877500.137907,495
1765877500.1379158,496
1765877500.1379242,496
1765877500.137932,496
1765877500.137941,495
1765877500.137949,495
1765877500.137957,496
1765877500.1379662,496
1765877500.137974,495
1765877500.137982,495
1765877500.13799,496
1765877500.137998,496
1765877500.138007,496
1765877500.138015,496
1765877500.138023,495
1765877500.1380322,496
1765877500.13804,496
1765877500.138048,496
1765877500.138056,496
1765877500.1380649,496
1765877500.1380742,496
1765877500.138083,495
1765877500.138091,496
1765877500.138099,496
1765877500.1381068,496
1765877500.1381152,496
1765877500.138123,495
1765877500.138131,495
1765877500.13814,496
1765877500.138148,496
1765877500.138156,495
1765877500.138165,496
1765877500.1381729,496
1765877500.1381812,495
1765877500.138189,495
1765877500.138197,495
1765877500.1382048,496
1765877500.1382139,495
1765877500.138222,495
1765877500.13823,496
1765877500.138238,495
1765877500.1382499,495
1765877500.138259,495
1765877500.1382668,496
1765877500.1382751,496
1765877500.138283,495
1765877500.138292,495
1765877500.1383,496
1765877500.138308,496
1765877500.138316,496
1765877500.138325,497
1765877500.1383328,496
1765877500.138342,498
1765877500.13835,497
1765877500.138358,497
1765877500.138366,497
1765877500.1383739,497
1765877500.1383832,497
1765877500.138391,496
1765877500.138399,497
1765877500.138407,496
1765877500.138415,496
1765877500.1384242,496
1765877500.138432,497
1765877500.13844,496
1765877500.138449,495
1765877500.138457,495
1765877500.138465,496
1765877500.138473,496
1765877500.138481,495
1765877500.1384902,496
1765877500.138498,496
1765877500.138506,495
1765877500.1385138,496
1765877500.1385221,496
1765877500.138531,496
1765877500.138539,496
1765877500.138547,496
1765877500.138564,495
1765877500.138572,495
1765877500.138581,496
1765877500.138589,495
1765877500.138597,496
1765877500.138606,495
1765877500.138614,495
1765877500.138623,496
1765877500.1386309,496
1765877500.1386392,496
1765877500.138647,495
1765877500.138655,496
1765877500.138664,495
1765877500.138672,495
1765877500.13868,495
1765877500.138689,495
1765877500.138697,495
1765877500.138705,495
1765877500.1387131,495
1765877500.138728,495
1765877500.138736,495
1765877500.138744,495
1765877500.138753,495
1765877500.1387908,495
1765877500.1387992,495
1765877500.138808,495
1765877500.138816,495
1765877500.138824,495
1765877500.138838,496
1765877500.138846,495
1765877500.138855,495
1765877500.138863,495
1765877500.1388721,495
1765877500.13888,496
1765877500.138888,495
1765877500.1389,495
1765877500.138908,496
1765877500.1389172,495
1765877500.138925,496
1765877500.138934,495
1765877500.138942,495
1765877500.1389499,496
1765877500.138958,496
1765877500.138967,495
1765877500.138975,495
1765877500.138983,495
1765877500.138992,495
1765877500.1390002,495
1765877500.139009,495
1765877500.139023,495
1765877500.139031,495
1765877500.13904,495
1765877500.1390479,495
1765877500.139057,496
1765877500.139065,496
1765877500.1400828,496
1765877500.141099,495
1765877500.1420999,496
1765877500.1430762,496
1765877500.144104,496
1765877500.1450932,496
1765877500.146087,495
1765877500.147097,496
1765877500.148087,495
1765877500.149098,495
1765877500.150141,495
1765877500.151123,495
1765877500.152111,496
1765877500.1531,495
1765877500.1541288,496
1765877500.155112,496
1765877500.156109,496
1765877500.1571121,495
1765877500.1581702,496
1765877500.159122,496
1765877500.1601322,495
1765877500.161145,495
1765877500.162139,495
1765877500.163145,495
1765877500.164174,495
1765877500.165167,495
1765877500.166174,496
1765877500.16716,496
1765877500.1681669,496
1765877500.169188,495
1765877500.170196,495
1765877500.171201,495
1765877500.1722188,495
1765877500.173173,496
1765877500.1741838,496
1765877500.175196,496
1765877500.176196,496
1765877500.1772318,496
1765877500.178229,495
1765877500.179219,496
1765877500.1802418,496
1765877500.181226,496
1765877500.182217,496
1765877500.183224,495
1765877500.1842282,496
1765877500.185214,495
1765877500.1862478,496
1765877500.187217,496
1765877500.188237,495
1765877500.189239,495
1765877500.190237,496
1765877500.191233,495
1765877500.192271,496
1765877500.1932402,495
1765877500.194247,496
1765877500.195233,496
1765877500.196267,495
1765877500.1972852,496
1765877500.198273,495
1765877500.199261,496
1765877500.200261,496
1765877500.2012749,496
1765877500.20227,496
1765877500.203286,495
1765877500.204294,495
1765877500.205247,496
1765877500.2062888,496
1765877500.2073112,495
1765877500.208301,496
1765877500.209307,495
1765877500.210297,495
1765877500.211303,495
1765877500.2122948,495
1765877500.213304,495
1765877500.214304,495
1765877500.215301,496
1765877500.216395,495
1765877500.2173948,496
1765877500.218388,496
1765877500.219399,496
1765877500.220366,496
1765877500.221389,495
1765877500.222393,495
1765877500.223357,496
1765877500.2243662,496
1765877500.225374,496
1765877500.2264059,496
1765877500.227465,495
1765877500.228404,495
1765877500.2293901,495
1765877500.2303889,495
1765877500.2314072,495
1765877500.23236,495
1765877500.233363,495
1765877500.234387,496
1765877500.235368,495
1765877500.236379,495
1765877500.237376,495
1765877500.238393,495
1765877500.239389,495
1765877500.2403681,495
1765877500.241367,495
1765877500.242411,495
1765877500.243405,495
1765877500.244378,496
1765877500.245462,495
1765877500.246423,496
1765877500.2474098,496
1765877500.24849,495
1765877500.249482,496
1765877500.250435,496
1765877500.251431,495
1765877500.252418,495
1765877500.25342,495
1765877500.254454,495
1765877500.2554328,495
1765877500.2564402,495
1765877500.257442,496
1765877500.2584262,495
1765877500.259441,495
1765877500.260422,495
1765877500.261462,496
1765877500.262483,495
1765877500.263447,496
1765877500.2644238,496
1765877500.2654452,496
1765877500.2664378,495
1765877500.2674382,495
1765877500.268448,495
1765877500.2694411,495
1765877500.270456,495
1765877500.2714398,496
1765877500.272469,495
1765877500.2734752,495
1765877500.274448,496
1765877500.275452,495
1765877500.2765708,496
1765877500.277493,496
1765877500.278487,495
1765877500.279487,496
1765877500.28049,495
1765877500.281524,495
1765877500.28249,495
1765877500.2834969,495
1765877500.284501,496
1765877500.285534,496
1765877500.286572,496
1765877500.2874959,495
1765877500.288511,495
1765877500.2894971,494
1765877500.290524,495
1765877500.2915862,495
1765877500.292546,496
1765877500.293518,496
1765877500.294539,495
1765877500.295516,495
1765877500.296523,496
1765877500.297517,496
1765877500.298527,496
1765877500.299529,496
1765877500.300541,495
1765877500.301534,495
1765877500.302525,495
1765877500.3035378,495
1765877500.30454,495
1765877500.305536,495
1765877500.306535,496
1765877500.3075352,495
1765877500.308537,495
1765877500.309545,495
1765877500.3105438,495
1765877500.311556,495
1765877500.312554,495
1765877500.313578,495
1765877500.314562,495
1765877500.315583,495
1765877500.3165598,495
1765877500.317575,495
1765877500.318579,495
1765877500.319586,495
1765877500.3205729,495
1765877500.3215811,495
1765877500.322572,495
1765877500.3235772,495
1765877500.324586,495
1765877500.3256052,495
1765877500.326601,495
1765877500.3275928,495
1765877500.3286028,495
1765877500.329615,495
1765877500.330611,494
1765877500.331653,495
1765877500.332736,495
1765877500.333664,495
1765877500.3346272,496
1765877500.3356428,496
1765877500.336674,496
1765877500.337663,496
1765877500.3386428,495
1765877500.339632,495
1765877500.34063,495
1765877500.341629,495
1765877500.342655,496
1765877500.3436632,496
1765877500.3446689,496
1765877500.345675,495
1765877500.346648,495
1765877500.347667,495
1765877500.348685,495
1765877500.3496761,495
1765877500.350687,495
1765877500.351697,495
1765877500.352723,496
1765877500.3537018,495
1765877500.354699,495
1765877500.355699,495
1765877500.356691,495
1765877500.357701,495
1765877500.358707,495
1765877500.359702,495
1765877500.360694,495
1765877500.3617039,495
1765877500.362716,495
1765877500.3637152,495
1765877500.3647249,495
1765877500.365717,496
1765877500.3667111,495
1765877500.3677282,495
1765877500.368738,495
1765877500.369737,495
1765877500.370738,495
1765877500.371732,495
1765877500.372743,495
1765877500.37379,495
1765877500.374822,495
1765877500.375796,495
1765877500.37679,495
1765877500.377766,495
1765877500.378787,495
1765877500.379812,495
1765877500.380796,495
1765877500.381773,495
1765877500.3827682,495
1765877500.3837628,495
1765877500.384783,495
1765877500.3857799,495
1765877500.386791,496
1765877500.387785,495
1765877500.38877,495
1765877500.389771,495
1765877500.390791,495
1765877500.3917959,495
1765877500.3928,496
1765877500.3937879,495
1765877500.3947961,495
1765877500.395791,495
1765877500.396796,495
1765877500.397792,496
1765877500.3987992,495
1765877500.39981,495
1765877500.400822,496
1765877500.4018009,496
1765877500.402812,496
1765877500.403824,497
1765877500.404819,496
1765877500.4058151,495
1765877500.406836,495
1765877500.407844,496
1765877500.408841,496
1765877500.409827,497
1765877500.410836,498
1765877500.411859,498
1765877500.41288,497
1765877500.413867,497
1765877500.414881,497
1765877500.415887,497
1765877500.416905,496
1765877500.417848,495
1765877500.41887,496
1765877500.4198651,496
1765877500.4208739,495
1765877500.421864,495
1765877500.4228852,495
1765877500.423872,495
1765877500.424871,496
1765877500.425898,496
1765877500.426906,496
1765877500.4278982,497
1765877500.428881,498
1765877500.429899,498
1765877500.430893,498
1765877500.431904,498
1765877500.432925,499
1765877500.433917,498
1765877500.434916,498
1765877500.4359171,496
1765877500.4369202,495
1765877500.437928,493
1765877500.438905,494
1765877500.439923,495
1765877500.440948,495
1765877500.44194,495
1765877500.442925,495
1765877500.443928,495
1765877500.444941,494
1765877500.445944,495
1765877500.446953,495
1765877500.447953,494
1765877500.448979,494
1765877500.4499788,495
1765877500.4509718,495
1765877500.451974,495
1765877500.452967,495
1765877500.453977,495
1765877500.454993,495
1765877500.45597,495
1765877500.456987,495
1765877500.458004,496
1765877500.459001,498
1765877500.4599948,499
1765877500.4609962,499
1765877500.461983,500
1765877500.46301,501
1765877500.464011,501
1765877500.465019,498
1765877500.4660091,497
1765877500.4670122,495
1765877500.468023,496
1765877500.469017,495
1765877500.470009,493
1765877500.471019,493
1765877500.472013,494
1765877500.473017,495
1765877500.474045,495
1765877500.475046,496
1765877500.476053,496
1765877500.47704,496
1765877500.478053,496
1765877500.479059,492
1765877500.480072,494
1765877500.48106,494
1765877500.48207,495
1765877500.483095,496
1765877500.48409,498
1765877500.485079,498
1765877500.486083,500
1765877500.487097,499
1765877500.488075,499
1765877500.489095,498
1765877500.4901068,497
1765877500.491086,498
1765877500.492091,499
1765877500.493084,501
1765877500.4940999,502
1765877500.49509,501
1765877500.496115,502
1765877500.49714,501
1765877500.498114,501
1765877500.49915,497
1765877500.50013,493
1765877500.501121,487
1765877500.5021179,491
1765877500.503106,493
1765877500.504121,495
1765877500.5051389,495
1765877500.5061471,494
1765877500.507148,494
1765877500.508161,493
1765877500.509162,492
1765877500.510145,493
1765877500.5111911,493
1765877500.512158,493
1765877500.5131662,493
1765877500.514177,494
1765877500.5152,494
1765877500.5162292,494
1765877500.517233,495
1765877500.5183082,496
1765877500.519273,495
1765877500.520181,496
1765877500.5212128,498
1765877500.522149,498
1765877500.52321,500
1765877500.5242088,502
1765877500.525213,503
1765877500.526201,502
1765877500.527213,496
1765877500.528256,493
1765877500.529352,496
1765877500.530219,493
1765877500.5312629,494
1765877500.532224,497
1765877500.533248,499
1765877500.5342531,501
1765877500.53524,502
1765877500.536271,504
1765877500.5372841,503
1765877500.538235,499
1765877500.539249,496
1765877500.5402482,497
1765877500.541286,495
1765877500.542345,494
1765877500.5432909,492
1765877500.5442472,492
1765877500.545275,492
1765877500.5462542,490
1765877500.547276,492
1765877500.5482728,497
1765877500.549257,503
1765877500.550255,508
1765877500.5512588,507
1765877500.552274,508
1765877500.5533571,504
1765877500.5543191,503
1765877500.555321,504
1765877500.55632,502
1765877500.5573518,496
1765877500.558321,490
1765877500.559374,491
1765877500.560446,493
1765877500.561374,494
1765877500.562331,493
1765877500.563312,493
1765877500.564319,496
1765877500.5654268,497
1765877500.566426,497
1765877500.567392,499
1765877500.568413,501
1765877500.569379,502
1765877500.57039,499
1765877500.5714402,496
1765877500.5723908,495
1765877500.573408,494
1765877500.574411,497
1765877500.575391,496
1765877500.576376,494
1765877500.577547,490
1765877500.578464,490
1765877500.579433,492
1765877500.5804212,491
1765877500.581408,492
1765877500.582432,493
1765877500.583594,493
1765877500.584415,494
1765877500.585417,493
1765877500.586405,494
1765877500.587418,494
1765877500.588403,495
1765877500.589487,496
1765877500.5904808,494
1765877500.591465,496
1765877500.5924668,494
1765877500.5934699,494
1765877500.594445,495
1765877500.595447,495
1765877500.5964139,496
1765877500.597396,496
1765877500.598401,495
1765877500.599394,497
1765877500.6004019,498
1765877500.601404,497
1765877500.60241,496
1765877500.603434,498
1765877500.60445,499
1765877500.6054158,498
1765877500.606404,497
1765877500.607409,495
1765877500.6083992,494
1765877500.6094022,495
1765877500.61041,495
1765877500.611422,496
1765877500.6124532,497
1765877500.613431,498
1765877500.61443,496
1765877500.6154292,493
1765877500.61643,494
1765877500.61745,493
1765877500.618447,493
1765877500.619447,494
1765877500.620482,494
1765877500.621463,495
1765877500.62248,494
1765877500.6234822,494
1765877500.6246002,495
1765877500.625582,498
1765877500.626587,501
1765877500.6275241,502
1765877500.62852,501
1765877500.629508,499
1765877500.630507,494
1765877500.6315,490
1765877500.63251,491
1765877500.6335459,493
1765877500.634526,494
1765877500.635531,494
1765877500.63654,495
1765877500.637532,494
1765877500.638531,494
1765877500.6395662,494
1765877500.640702,494
1765877500.6416051,495
1765877500.642554,495
1765877500.6435509,495
1765877500.644541,495
1765877500.6455412,495
1765877500.6465652,495
1765877500.647576,495
1765877500.648586,495
1765877500.649539,495
1765877500.650538,496
1765877500.651554,495
1765877500.652558,496
1765877500.653561,496
1765877500.654571,497
1765877500.655565,497
1765877500.656575,496
1765877500.657581,496
1765877500.6586082,495
1765877500.659641,494
1765877500.6605692,496
1765877500.661603,497
1765877500.6626,498
1765877500.663594,498
1765877500.664615,499
1765877500.6656032,497
1765877500.666657,494
1765877500.667605,497
1765877500.668607,499
1765877500.669646,497
1765877500.670659,497
1765877500.671637,496
1765877500.672653,496
1765877500.67363,493
1765877500.67463,493
1765877500.675615,492
1765877500.676616,492
1765877500.677612,493
1765877500.678627,494
1765877500.679626,495
1765877500.680636,495
1765877500.681653,495
1765877500.682657,495
1765877500.683651,494
1765877500.684627,495
1765877500.685628,494
1765877500.686625,494
1765877500.687716,495
1765877500.688685,494
1765877500.6896691,495
1765877500.6906939,495
1765877500.691796,495
1765877500.692708,495
1765877500.693871,495
1765877500.694699,495
1765877500.695722,496
1765877500.6967008,496
1765877500.697684,496
1765877500.698677,495
1765877500.6997151,494
1765877500.7006872,496
1765877500.701727,496
1765877500.702764,495
1765877500.703763,495
1765877500.704716,497
1765877500.705787,498
1765877500.706722,498
1765877500.707793,499
1765877500.708873,498
1765877500.709748,494
1765877500.710742,492
1765877500.711721,492
1765877500.712729,493
1765877500.713732,495
1765877500.714727,494
1765877500.715743,494
1765877500.7167392,494
1765877500.7177548,494
1765877500.718754,495
1765877500.719759,496
1765877500.720764,496
1765877500.72177,495
1765877500.722761,495
1765877500.723779,495
1765877500.7247648,493
1765877500.725761,493
1765877500.7267299,493
1765877500.727756,494
1765877500.728765,495
1765877500.729751,494
1765877500.730748,495
1765877500.73176,495
1765877500.7327669,495
1765877500.733769,495
1765877500.734764,496
1765877500.735761,495
1765877500.736792,494
1765877500.737792,494
1765877500.738849,492
1765877500.7397969,493
1765877500.7408168,495
1765877500.741791,494
1765877500.74279,494
1765877500.74381,494
1765877500.744802,494
1765877500.745805,493
1765877500.746801,494
1765877500.7478101,495
1765877500.748817,495
1765877500.749851,496
1765877500.750844,497
1765877500.751822,498
1765877500.752827,496
1765877500.753835,494
1765877500.754842,495
1765877500.755849,493
1765877500.756973,493
1765877500.757911,493
1765877500.758881,494
1765877500.7598562,495
1765877500.7609081,495
1765877500.761866,495
1765877500.762877,495
1765877500.7638552,494
1765877500.764865,495
1765877500.7658648,495
1765877500.766888,496
1765877500.7678652,496
1765877500.768917,495
1765877500.769889,495
1765877500.770873,496
1765877500.771894,497
1765877500.772896,495
1765877500.774063,495
1765877500.7749178,496
1765877500.7758982,496
1765877500.776878,496
1765877500.7778869,497
1765877500.778891,498
1765877500.7798898,499
1765877500.780881,502
1765877500.7818959,499
1765877500.7828832,499
1765877500.7838988,500
1765877500.784896,497
1765877500.785911,490
1765877500.7869172,492
1765877500.7879071,494
1765877500.788919,492
1765877500.789936,492
1765877500.790957,491
1765877500.79195,493
1765877500.79295,494
1765877500.7939699,494
1765877500.794954,494
1765877500.7959712,495
1765877500.7969642,495
1765877500.7979898,494
1765877500.798989,494
1765877500.799983,495
1765877500.800972,495
1765877500.802006,495
1765877500.803017,495
1765877500.803991,494
1765877500.805017,492
1765877500.806015,493
1765877500.8070872,493
1765877500.808048,493
1765877500.8089972,494
1765877500.810015,494
1765877500.811004,494
1765877500.811983,494
1765877500.8129852,494
1765877500.813982,494
1765877500.815006,494
1765877500.816004,494
1765877500.8170261,494
1765877500.818008,494
1765877500.819011,494
1765877500.820023,494
1765877500.821019,494
1765877500.822029,494
1765877500.823074,494
1765877500.8240378,494
1765877500.825043,494
1765877500.826046,494
1765877500.827022,495
1765877500.828041,494
1765877500.829014,494
1765877500.830064,494
1765877500.831093,494
1765877500.832059,494
1765877500.83312,494
1765877500.8340979,494
1765877500.835086,495
1765877500.836092,494
1765877500.83714,494
1765877500.838068,494
1765877500.8390589,494
1765877500.840066,494
1765877500.8410702,495
1765877500.842056,494
1765877500.843046,494
1765877500.844061,494
1765877500.8450859,494
1765877500.84607,496
1765877500.84707,496
1765877500.848072,496
1765877500.849078,498
1765877500.8500962,501
1765877500.8511229,502
1765877500.8521311,504
1765877500.853121,501
1765877500.854093,496
1765877500.855124,490
1765877500.856127,486
1765877500.857128,490
1765877500.858101,490
1765877500.859125,491
1765877500.860132,491
1765877500.861137,492
1765877500.86211,493
1765877500.8631392,493
1765877500.864138,492
1765877500.865131,493
1765877500.866158,493
1765877500.867166,493
1765877500.868154,494
1765877500.8691342,494
1765877500.870173,494
1765877500.871177,494
1765877500.8721778,493
1765877500.873195,495
1765877500.874163,494
1765877500.8751419,494
1765877500.876174,494
1765877500.877163,494
1765877500.878156,494
1765877500.8792078,493
1765877500.880188,493
1765877500.881197,493
1765877500.8821828,494
1765877500.883183,494
1765877500.884213,494
1765877500.885163,493
1765877500.886177,494
1765877500.887209,494
1765877500.8882072,493
1765877500.88922,494
1765877500.8902242,494
1765877500.891262,494
1765877500.892246,494
1765877500.893204,493
1765877500.894206,493
1765877500.895217,493
1765877500.896228,494
1765877500.8972092,493
1765877500.89821,493
1765877500.899232,494
1765877500.9002419,494
1765877500.9012291,494
1765877500.902244,493
1765877500.903247,492
1765877500.9042492,494
1765877500.905249,495
1765877500.9062662,497
1765877500.90726,498
1765877500.908256,498
1765877500.909272,495
1765877500.910261,493
1765877500.9112582,492
1765877500.9122639,491
1765877500.913277,490
1765877500.914269,491
1765877500.915265,492
1765877500.916312,492
1765877500.917304,493
1765877500.918286,493
1765877500.91928,494
1765877500.920275,496
1765877500.921271,498
1765877500.9223602,495
1765877500.923373,496
1765877500.9243798,497
1765877500.925379,494
1765877500.926369,496
1765877500.927377,496
1765877500.9283662,493
1765877500.9293702,490
1765877500.930367,492
1765877500.93139,491
1765877500.932378,493
1765877500.933377,494
1765877500.934386,494
1765877500.9353669,492
1765877500.936362,493
1765877500.93738,492
1765877500.9383738,492
1765877500.939368,492
1765877500.940369,492
1765877500.941393,492
1765877500.942383,493
1765877500.9433699,493
1765877500.944372,493
1765877500.9453819,493
1765877500.946362,493
1765877500.947366,493
1765877500.948359,493
1765877500.9493718,493
1765877500.950372,494
1765877500.951381,496
1765877500.952371,497
1765877500.953374,497
1765877500.954375,496
1765877500.955382,492
1765877500.956407,491
1765877500.957398,492
1765877500.958406,493
1765877500.959423,493
1765877500.960427,492
1765877500.961438,492
1765877500.962406,493
1765877500.963395,492
1765877500.9643981,493
1765877500.965413,493
1765877500.966419,493
1765877500.9674299,493
1765877500.96842,493
1765877500.96944,493
1765877500.9704268,493
1765877500.9714339,493
1765877500.9724329,494
1765877500.9734242,493
1765877500.9744442,493
1765877500.9754329,493
1765877500.976424,494
1765877500.977453,494
1765877500.9784331,493
1765877500.9794471,493
1765877500.980433,493
1765877500.981442,493
1765877500.9824572,493
1765877500.983465,493
1765877500.984467,494
1765877500.98547,493
1765877500.986465,493
1765877500.987477,493
1765877500.988468,493
1765877500.989475,494
1765877500.990466,494
1765877500.9914691,494
1765877500.992477,494
1765877500.9934762,494
1765877500.994498,494
1765877500.995494,495
1765877500.996505,496
1765877500.9975061,495
1765877500.998504,495
1765877500.9995892,493
1765877501.000535,492
1765877501.0015302,490
1765877501.0025191,491
1765877501.003516,493
1765877501.004529,495
1765877501.005516,495
1765877501.006508,495
1765877501.00751,496
1765877501.008523,493
1765877501.009542,492
1765877501.0105422,493
1765877501.011523,492
1765877501.012544,491
1765877501.0135329,492
1765877501.0145438,492
1765877501.015539,493
1765877501.016562,493
1765877501.017575,493
1765877501.018576,492
1765877501.019577,492
1765877501.020594,493
1765877501.021599,493
1765877501.0225909,493
1765877501.0236192,493
1765877501.0246668,493
1765877501.025718,493
1765877501.0266519,493
1765877501.027742,494
1765877501.028623,494
1765877501.029623,494
1765877501.030619,496
1765877501.0316129,495
1765877501.032585,493
1765877501.033631,494
1765877501.034622,495
1765877501.035619,495
1765877501.036628,495
1765877501.037631,495
1765877501.038702,495
1765877501.039648,492
1765877501.040874,491
1765877501.041704,491
1765877501.04273,493
1765877501.043683,493
1765877501.044718,492
1765877501.04568,492
1765877501.046666,491
1765877501.0476742,492
1765877501.0486479,492
1765877501.049639,492
1765877501.050663,493
1765877501.051651,493
1765877501.052654,492
1765877501.053654,493
1765877501.0546691,493
1765877501.05567,493
1765877501.056673,493
1765877501.057656,493
1765877501.058667,493
1765877501.0596852,492
1765877501.060693,493
1765877501.061708,492
1765877501.062725,493
1765877501.063732,493
1765877501.06471,493
1765877501.065683,494
1765877501.0667179,494
1765877501.067693,493
1765877501.068693,493
1765877501.0696971,493
1765877501.0707252,493
1765877501.071716,493
1765877501.072756,493
1765877501.073716,493
1765877501.074732,493
1765877501.075744,492
1765877501.076722,492
1765877501.0778072,493
1765877501.078839,492
1765877501.079875,493
1765877501.080853,493
1765877501.081846,493
1765877501.083022,493
1765877501.083812,493
1765877501.084795,494
1765877501.0857549,492
1765877501.0867999,493
1765877501.087743,492
1765877501.088809,493
1765877501.089795,493
1765877501.090912,493
1765877501.0917969,493
1765877501.092774,493
1765877501.093766,494
1765877501.094988,494
