timestamp,emg_value
1765877438.6921642,492
1765877438.692184,492
1765877438.6922,493
1765877438.692217,493
1765877438.692232,493
1765877438.692248,495
1765877438.692263,495
1765877438.692279,494
1765877438.692294,494
1765877438.69231,494
1765877438.692325,494
1765877438.692342,496
1765877438.692357,498
1765877438.692373,499
1765877438.692388,501
1765877438.692404,502
1765877438.692419,503
1765877438.692435,506
1765877438.69245,504
1765877438.6924648,499
1765877438.692481,489
1765877438.6924958,489
1765877438.692512,489
1765877438.692527,490
1765877438.692543,491
1765877438.692565,492
1765877438.692584,493
1765877438.692599,492
1765877438.6926138,494
1765877438.692629,495
1765877438.692645,494
1765877438.6926599,494
1765877438.692675,494
1765877438.6926908,495
1765877438.692706,495
1765877438.6927218,494
1765877438.692738,495
1765877438.6927528,495
1765877438.692768,495
1765877438.692784,495
1765877438.6928,495
1765877438.6928158,495
1765877438.692832,496
1765877438.692847,495
1765877438.692862,494
1765877438.692878,495
1765877438.692893,495
1765877438.692908,498
1765877438.692924,499
1765877438.692939,497
1765877438.6929548,494
1765877438.6929731,496
1765877438.69299,498
1765877438.693006,497
1765877438.693022,495
1765877438.693037,494
1765877438.693053,494
1765877438.693068,495
1765877438.693084,493
1765877438.693099,493
1765877438.693114,494
1765877438.693129,494
1765877438.693145,494
1765877438.6931598,493
1765877438.693175,497
1765877438.693195,497
1765877438.6932108,499
1765877438.693227,503
1765877438.693242,505
1765877438.693258,498
1765877438.693273,498
1765877438.6932878,496
1765877438.693304,496
1765877438.6933188,497
1765877438.693335,494
1765877438.693351,494
1765877438.693366,495
1765877438.693418,493
1765877438.693436,488
1765877438.6934521,491
1765877438.6934679,493
1765877438.693484,494
1765877438.6934998,494
1765877438.693515,499
1765877438.6935308,498
1765877438.693547,499
1765877438.693562,498
1765877438.693578,497
1765877438.693593,494
1765877438.693609,496
1765877438.693624,498
1765877438.69364,498
1765877438.693656,496
1765877438.693672,491
1765877438.6936882,494
1765877438.693704,495
1765877438.6937191,494
1765877438.693735,495
1765877438.69375,496
1765877438.6937659,495
1765877438.693782,494
1765877438.693797,494
1765877438.693812,494
1765877438.693828,495
1765877438.6938481,495
1765877438.6938639,495
1765877438.69388,493
1765877438.6938958,493
1765877438.693912,493
1765877438.6939468,495
1765877438.693963,498
1765877438.6939788,500
1765877438.693994,501
1765877438.69401,501
1765877438.694026,495
1765877438.694041,494
1765877438.694056,492
1765877438.694072,493
1765877438.694087,494
1765877438.694103,494
1765877438.694119,493
1765877438.694134,493
1765877438.69415,493
1765877438.694165,495
1765877438.6941812,496
1765877438.694196,497
1765877438.694211,497
1765877438.694227,496
1765877438.694242,492
1765877438.69426,491
1765877438.694279,493
1765877438.6942961,494
1765877438.6943119,495
1765877438.694328,494
1765877438.694344,495
1765877438.694359,495
1765877438.6943748,495
1765877438.69439,495
1765877438.6944058,493
1765877438.694421,494
1765877438.694437,495
1765877438.694452,494
1765877438.694467,495
1765877438.694483,495
1765877438.694499,495
1765877438.694514,497
1765877438.69453,500
1765877438.6945448,503
1765877438.694561,504
1765877438.694576,498
1765877438.694591,491
1765877438.694607,495
1765877438.694622,496
1765877438.694637,493
1765877438.694653,491
1765877438.694668,492
1765877438.694687,493
1765877438.694704,494
1765877438.69472,494
1765877438.694735,495
1765877438.69475,494
1765877438.694766,494
1765877438.6947808,494
1765877438.694797,495
1765877438.6948118,495
1765877438.694828,494
1765877438.6948428,493
1765877438.694858,494
1765877438.694873,496
1765877438.694889,496
1765877438.694904,494
1765877438.6949189,493
1765877438.694935,495
1765877438.6949508,495
1765877438.694967,495
1765877438.694983,496
1765877438.694998,495
1765877438.695014,494
1765877438.69503,496
1765877438.695046,497
1765877438.695061,498
1765877438.6950772,498
1765877438.6950989,499
1765877438.695115,496
1765877438.6951308,495
1765877438.695146,494
1765877438.695162,494
1765877438.69518,492
1765877438.695195,493
1765877438.695211,494
1765877438.6952262,495
1765877438.695241,494
1765877438.6952572,496
1765877438.695272,495
1765877438.695287,495
1765877438.695303,496
1765877438.695318,494
1765877438.695333,494
1765877438.695349,494
1765877438.695364,494
1765877438.695379,495
1765877438.695395,494
1765877438.69541,495
1765877438.695425,496
1765877438.695441,496
1765877438.695456,498
1765877438.695471,500
1765877438.695486,496
1765877438.695505,494
1765877438.695523,494
1765877438.695539,494
1765877438.695554,494
1765877438.6955688,494
1765877438.695585,497
1765877438.6956,497
1765877438.695616,496
1765877438.695631,498
1765877438.695646,499
1765877438.695662,499
1765877438.695677,500
1765877438.695693,497
1765877438.6957078,498
1765877438.695724,495
1765877438.6957388,492
1765877438.695754,492
1765877438.69577,494
1765877438.695786,494
1765877438.695801,493
1765877438.695817,494
1765877438.695832,495
1765877438.695848,495
1765877438.695863,497
1765877438.695879,498
1765877438.695894,502
1765877438.695915,503
1765877438.695932,500
1765877438.6959481,496
1765877438.6959639,490
1765877438.69598,490
1765877438.6959958,492
1765877438.696011,492
1765877438.6960268,494
1765877438.696042,494
1765877438.696058,494
1765877438.696073,494
1765877438.696088,493
1765877438.696104,495
1765877438.696119,496
1765877438.6961348,495
1765877438.696151,495
1765877438.696167,494
1765877438.696182,494
1765877438.696198,495
1765877438.696214,495
1765877438.6962292,497
1765877438.696245,498
1765877438.6962602,498
1765877438.696276,499
1765877438.696291,496
1765877438.696307,494
1765877438.696328,498
1765877438.696346,500
1765877438.696362,498
1765877438.696377,495
1765877438.6963918,494
1765877438.696408,492
1765877438.6964228,494
1765877438.696438,494
1765877438.6964538,495
1765877438.696469,493
1765877438.696485,493
1765877438.6965,494
1765877438.696515,495
1765877438.696531,495
1765877438.696547,495
1765877438.6965618,498
1765877438.696578,500
1765877438.6965928,498
1765877438.696608,498
1765877438.696624,499
1765877438.69664,495
1765877438.696656,493
1765877438.696672,490
1765877438.6966872,494
1765877438.696703,494
1765877438.696718,493
1765877438.696737,493
1765877438.696754,494
1765877438.69677,494
1765877438.696785,495
1765877438.6968,496
1765877438.6968162,498
1765877438.696831,498
1765877438.6968472,498
1765877438.696862,495
1765877438.6968782,494
1765877438.696893,495
1765877438.696908,495
1765877438.6969228,494
1765877438.696939,494
1765877438.696955,495
1765877438.69697,495
1765877438.6969862,494
1765877438.697002,494
1765877438.6970172,493
1765877438.697033,495
1765877438.697048,495
1765877438.697064,494
1765877438.697079,493
1765877438.697095,492
1765877438.6971111,497
1765877438.697126,499
1765877438.697141,500
1765877438.697162,499
1765877438.6971781,497
1765877438.697194,493
1765877438.69721,491
1765877438.6972249,493
1765877438.697241,494
1765877438.6972558,495
1765877438.697271,494
1765877438.6972868,495
1765877438.697302,493
1765877438.6973178,493
1765877438.697333,495
1765877438.697349,496
1765877438.6973639,496
1765877438.697379,498
1765877438.6973948,498
1765877438.697411,496
1765877438.697427,492
1765877438.697442,497
1765877438.697458,498
1765877438.697474,495
1765877438.6974888,493
1765877438.697504,493
1765877438.69752,495
1765877438.697536,495
1765877438.697552,495
1765877438.697572,495
1765877438.697587,495
1765877438.697603,495
1765877438.697618,493
1765877438.697634,494
1765877438.69765,494
1765877438.697665,495
1765877438.697681,495
1765877438.697696,496
1765877438.6977122,496
1765877438.697727,494
1765877438.697742,494
1765877438.697758,495
1765877438.697773,495
1765877438.697789,495
1765877438.697804,495
1765877438.69782,496
1765877438.697835,497
1765877438.697851,498
1765877438.697866,497
1765877438.697881,493
1765877438.697897,496
1765877438.697912,497
1765877438.697928,496
1765877438.697943,493
1765877438.697959,492
1765877438.697977,495
1765877438.697993,495
1765877438.698009,494
1765877438.698025,494
1765877438.69804,495
1765877438.698056,495
1765877438.698071,495
1765877438.6980858,494
1765877438.698102,494
1765877438.698117,495
1765877438.698133,495
1765877438.698148,497
1765877438.698164,498
1765877438.698179,499
1765877438.698195,500
1765877438.698211,500
1765877438.698226,497
1765877438.698242,492
1765877438.698257,493
1765877438.698273,492
1765877438.698289,492
1765877438.6983051,494
1765877438.6983209,495
1765877438.698336,494
1765877438.698352,495
1765877438.6983669,495
1765877438.69839,493
1765877438.698406,494
1765877438.698422,494
1765877438.698438,493
1765877438.698453,493
1765877438.6984682,494
1765877438.698484,495
1765877438.698499,495
1765877438.698515,494
1765877438.69853,494
1765877438.698546,495
1765877438.698561,495
1765877438.698577,497
1765877438.6985931,501
1765877438.6986082,503
1765877438.698623,506
1765877438.6986392,499
1765877438.698655,492
1765877438.6986701,489
1765877438.698687,492
1765877438.698702,490
1765877438.698718,492
1765877438.698733,494
1765877438.6987488,494
1765877438.698764,494
1765877438.6987798,494
1765877438.6987991,494
1765877438.6989,494
1765877438.698952,493
1765877438.6990201,494
1765877438.699042,494
1765877438.699059,494
1765877438.6990762,494
1765877438.699092,495
1765877438.699147,494
1765877438.6991649,495
1765877438.699178,494
1765877438.699192,494
1765877438.699234,495
1765877438.6992488,494
1765877438.6992629,495
1765877438.699275,496
1765877438.699287,497
1765877438.6993,499
1765877438.6993122,501
1765877438.6993248,502
1765877438.699337,498
1765877438.699349,494
1765877438.699361,492
1765877438.699373,492
1765877438.6993861,492
1765877438.6993978,493
1765877438.6994162,493
1765877438.699428,493
1765877438.699442,493
1765877438.699454,493
1765877438.699466,494
1765877438.699479,495
1765877438.699527,494
1765877438.699542,495
1765877438.6995552,495
1765877438.699568,495
1765877438.69958,495
1765877438.699593,495
1765877438.6996071,495
1765877438.699619,494
1765877438.699636,495
1765877438.699649,496
1765877438.699662,498
1765877438.6996758,498
1765877438.699688,496
1765877438.6996999,496
1765877438.699712,494
1765877438.6997252,495
1765877438.699737,495
1765877438.6997492,494
1765877438.699761,492
1765877438.6997771,495
1765877438.699796,496
1765877438.699809,495
1765877438.6998222,495
1765877438.6998332,495
1765877438.6998458,495
1765877438.699858,494
1765877438.6998699,494
1765877438.699882,495
1765877438.699894,494
1765877438.699906,494
1765877438.699918,494
1765877438.6999302,495
1765877438.6999419,493
1765877438.699954,494
1765877438.699967,495
1765877438.6999822,495
1765877438.699994,496
1765877438.7000058,498
1765877438.700018,499
1765877438.7000299,501
1765877438.700042,502
1765877438.700054,497
1765877438.700066,494
1765877438.700078,495
1765877438.7000902,493
1765877438.7001019,491
1765877438.700114,491
1765877438.700129,492
1765877438.700141,494
1765877438.700153,495
1765877438.700167,497
1765877438.70018,497
1765877438.700192,497
1765877438.7002041,493
1765877438.700216,495
1765877438.7002282,496
1765877438.70024,495
1765877438.7002518,495
1765877438.700264,495
1765877438.700276,495
1765877438.70029,494
1765877438.7003021,493
1765877438.700314,493
1765877438.700326,494
1765877438.7003388,494
1765877438.700351,494
1765877438.700363,494
1765877438.700375,494
1765877438.700387,495
1765877438.7003992,497
1765877438.7004108,499
1765877438.700423,500
1765877438.7004402,500
1765877438.700455,497
1765877438.700468,492
1765877438.70048,494
1765877438.700493,494
1765877438.700505,492
1765877438.7005172,493
1765877438.7005281,494
1765877438.700541,495
1765877438.700552,495
1765877438.700564,495
1765877438.700576,493
1765877438.700588,492
1765877438.700599,495
1765877438.700611,494
1765877438.700623,494
1765877438.700634,494
1765877438.700646,494
1765877438.7006578,494
1765877438.70067,495
1765877438.700681,494
1765877438.7007308,495
1765877438.700743,494
1765877438.700755,494
1765877438.7007658,495
1765877438.700779,494
1765877438.700793,494
1765877438.7008069,496
1765877438.700822,498
1765877438.7008362,500
1765877438.7008488,499
1765877438.700861,496
1765877438.700873,493
1765877438.700885,494
1765877438.7008991,494
1765877438.700911,495
1765877438.700923,496
1765877438.700937,496
1765877438.70095,495
1765877438.700962,495
1765877438.700974,496
1765877438.7009861,498
1765877438.7009978,498
1765877438.70101,496
1765877438.701022,495
1765877438.701034,495
1765877438.701046,495
1765877438.7010581,495
1765877438.701072,496
1765877438.701087,495
1765877438.701099,494
1765877438.701111,495
1765877438.701123,496
1765877438.701173,497
1765877438.701188,497
1765877438.7011998,498
1765877438.701213,498
1765877438.701225,495
1765877438.701238,494
1765877438.7012548,492
1765877438.701269,495
1765877438.701281,496
1765877438.701293,497
1765877438.7013052,495
1765877438.7013178,495
1765877438.70133,494
1765877438.7013419,493
1765877438.701354,494
1765877438.701366,494
1765877438.701378,495
1765877438.70139,495
1765877438.701401,494
1765877438.7014248,494
1765877438.701437,494
1765877438.7014499,495
1765877438.701462,495
1765877438.701474,495
1765877438.701486,494
1765877438.701498,495
1765877438.701513,495
1765877438.701525,495
1765877438.701538,496
1765877438.701555,497
1765877438.701567,498
1765877438.701579,498
1765877438.701591,497
1765877438.7016032,494
1765877438.701615,495
1765877438.7016268,498
1765877438.701639,497
1765877438.701652,495
1765877438.701664,494
1765877438.7016761,493
1765877438.701688,494
1765877438.701705,496
1765877438.701719,496
1765877438.701733,497
1765877438.7017448,497
1765877438.701757,497
1765877438.7017689,497
1765877438.701781,494
1765877438.701793,494
1765877438.701805,494
1765877438.701817,493
1765877438.7018292,493
1765877438.701845,494
1765877438.701859,496
1765877438.7018712,495
1765877438.7018838,493
1765877438.701895,493
1765877438.7019079,495
1765877438.70192,495
1765877438.701937,496
1765877438.701952,496
1765877438.7019641,496
1765877438.701976,497
1765877438.701988,498
1765877438.7020001,495
1765877438.7020118,495
1765877438.702024,497
1765877438.702036,494
1765877438.702049,491
1765877438.702061,493
1765877438.702077,495
1765877438.70209,495
1765877438.702102,495
1765877438.702114,494
1765877438.702126,493
1765877438.7021382,493
1765877438.7021499,494
1765877438.702162,494
1765877438.702175,494
1765877438.7021902,495
1765877438.702202,493
1765877438.702214,494
1765877438.702226,493
1765877438.702237,493
1765877438.702249,493
1765877438.702265,494
1765877438.70228,495
1765877438.702294,497
1765877438.702306,498
1765877438.7023182,499
1765877438.70233,499
1765877438.7023418,499
1765877438.702354,499
1765877438.7023659,500
1765877438.702379,496
1765877438.70239,487
1765877438.702402,491
1765877438.702414,495
1765877438.7024279,494
1765877438.7024431,493
1765877438.7024572,494
1765877438.702469,499
1765877438.7024808,498
1765877438.702492,498
1765877438.702506,495
1765877438.702521,491
1765877438.702534,493
1765877438.702546,493
1765877438.702558,493
1765877438.702569,492
1765877438.702581,494
1765877438.702592,494
1765877438.702604,494
1765877438.702615,495
1765877438.7026272,494
1765877438.702639,495
1765877438.70265,494
1765877438.702662,496
1765877438.702674,497
1765877438.7026849,498
1765877438.702697,500
1765877438.702709,501
1765877438.7027369,500
1765877438.702749,497
1765877438.702761,497
1765877438.702773,493
1765877438.702784,493
1765877438.702796,492
1765877438.7028139,491
1765877438.7028291,492
1765877438.702847,493
1765877438.702861,493
1765877438.702873,494
1765877438.7028852,494
1765877438.7028968,494
1765877438.702909,494
1765877438.70292,494
1765877438.702932,496
1765877438.702949,495
1765877438.7029629,495
1765877438.7029781,495
1765877438.702997,496
1765877438.703011,495
1765877438.7030232,495
1765877438.7030349,493
1765877438.7030468,494
1765877438.703061,495
1765877438.703073,495
1765877438.703085,495
1765877438.703097,495
1765877438.703111,495
1765877438.703129,495
1765877438.703142,495
1765877438.7031538,495
1765877438.703166,495
1765877438.703178,495
1765877438.703192,495
1765877438.703207,494
1765877438.703221,494
1765877438.703233,495
1765877438.7032452,495
1765877438.7032561,495
1765877438.703268,495
1765877438.703286,495
1765877438.7033,494
1765877438.7033138,495
1765877438.703326,496
1765877438.703338,495
1765877438.703352,494
1765877438.7033632,496
1765877438.703375,496
1765877438.7033868,498
1765877438.703402,498
1765877438.7034152,497
1765877438.7034292,496
1765877438.703441,496
1765877438.703457,494
1765877438.7034712,497
1765877438.7034829,498
1765877438.703495,496
1765877438.703508,493
1765877438.7035189,492
1765877438.7035332,495
1765877438.703546,496
1765877438.703557,495
1765877438.703569,496
1765877438.7035809,496
1765877438.703611,497
1765877438.7036228,496
1765877438.703635,495
1765877438.703647,496
1765877438.703659,495
1765877438.703671,496
1765877438.7036831,494
1765877438.703695,496
1765877438.703707,496
1765877438.703719,495
1765877438.703731,495
1765877438.703743,497
1765877438.703755,496
1765877438.703767,497
1765877438.703779,496
1765877438.7037902,494
1765877438.7038028,493
1765877438.703815,494
1765877438.703827,494
1765877438.703839,495
1765877438.703851,495
1765877438.703865,495
1765877438.703878,496
1765877438.7038898,498
1765877438.703902,500
1765877438.703949,500
1765877438.703965,497
1765877438.7039769,492
1765877438.70399,492
1765877438.7040021,493
1765877438.704014,493
1765877438.704028,492
1765877438.704041,493
1765877438.704053,493
1765877438.704065,494
1765877438.7040782,495
1765877438.704106,495
1765877438.704119,495
1765877438.704132,496
1765877438.7041438,495
1765877438.704158,494
1765877438.7042098,494
1765877438.704223,494
1765877438.704353,493
1765877438.7043672,494
1765877438.7043798,494
1765877438.704393,495
1765877438.704416,495
1765877438.7044291,495
1765877438.704442,495
1765877438.704454,495
1765877438.7044868,496
1765877438.704503,496
1765877438.7045162,496
1765877438.7045288,495
1765877438.704541,495
1765877438.704554,494
1765877438.704566,494
1765877438.704579,494
1765877438.704591,494
1765877438.704603,495
1765877438.7046149,494
1765877438.704628,494
1765877438.70464,494
1765877438.704652,495
1765877438.704664,494
1765877438.7046762,494
1765877438.704688,495
1765877438.704701,495
1765877438.7047129,495
1765877438.704725,494
1765877438.704737,494
1765877438.704749,495
1765877438.704764,496
1765877438.704777,496
1765877438.704789,497
1765877438.7048,497
1765877438.704812,495
1765877438.704824,495
1765877438.7048361,494
1765877438.704849,495
1765877438.704861,497
1765877438.7048728,497
1765877438.704885,497
1765877438.704898,493
1765877438.70491,493
1765877438.7049222,494
1765877438.704934,495
1765877438.7049458,495
1765877438.704958,495
1765877438.70497,496
1765877438.704982,496
1765877438.704994,496
1765877438.7050061,496
1765877438.705018,496
1765877438.70503,494
1765877438.705042,492
1765877438.705055,494
1765877438.705067,494
1765877438.7050822,495
1765877438.705122,496
1765877438.705135,496
1765877438.7051468,495
1765877438.705159,495
1765877438.7051709,495
1765877438.705183,496
1765877438.705195,497
1765877438.705207,497
1765877438.705219,496
1765877438.7052312,494
1765877438.7052438,495
1765877438.7052548,495
1765877438.705267,494
1765877438.705282,493
1765877438.7052941,494
1765877438.705306,495
1765877438.705318,495
1765877438.7053308,495
1765877438.705343,495
1765877438.705355,496
1765877438.705367,495
1765877438.705379,494
1765877438.7053912,495
1765877438.7054029,496
1765877438.705415,499
1765877438.705429,499
1765877438.705442,499
1765877438.705454,496
1765877438.705466,493
1765877438.705478,496
1765877438.7054899,498
1765877438.705502,497
1765877438.705514,495
1765877438.705526,491
1765877438.705538,495
1765877438.7055502,497
1765877438.705562,494
1765877438.7055738,495
1765877438.705586,495
1765877438.7055979,494
1765877438.70561,493
1765877438.705622,492
1765877438.705634,493
1765877438.705646,493
1765877438.7056582,493
1765877438.7056708,494
1765877438.7056818,495
1765877438.705694,495
1765877438.705707,496
1765877438.705719,496
1765877438.7057312,497
1765877438.705745,497
1765877438.7057579,496
1765877438.70577,495
1765877438.705782,495
1765877438.705794,496
1765877438.705806,496
1765877438.7058182,496
1765877438.7058291,497
1765877438.705842,497
1765877438.705854,496
1765877438.705866,496
1765877438.705878,495
1765877438.70589,496
1765877438.705902,496
1765877438.705914,495
1765877438.705926,495
1765877438.705939,497
1765877438.705951,497
1765877438.705963,496
1765877438.705975,495
1765877438.705987,496
1765877438.7059991,497
1765877438.7060108,496
1765877438.706023,495
1765877438.706035,496
1765877438.706048,495
1765877438.706062,494
1765877438.706074,495
1765877438.706086,495
1765877438.7060978,496
1765877438.70611,496
1765877438.706122,498
1765877438.706134,501
1765877438.706146,501
1765877438.7061582,494
1765877438.70617,493
1765877438.706182,495
1765877438.706194,494
1765877438.706205,496
1765877438.706242,499
1765877438.706256,496
1765877438.7062678,494
1765877438.70628,494
1765877438.706292,493
1765877438.706304,494
1765877438.706316,494
1765877438.7063282,492
1765877438.70634,493
1765877438.7063522,494
1765877438.706364,495
1765877438.7063758,494
1765877438.706388,494
1765877438.706402,494
1765877438.7064152,494
1765877438.7064269,494
1765877438.706439,495
1765877438.706451,495
1765877438.7064629,495
1765877438.706475,494
1765877438.7064881,495
1765877438.7065,495
1765877438.706514,495
1765877438.706526,495
1765877438.706538,495
1765877438.7065501,494
1765877438.706562,495
1765877438.706574,495
1765877438.7065861,494
1765877438.7065978,495
1765877438.70661,494
1765877438.706622,494
1765877438.706749,495
1765877438.706764,494
1765877438.7067761,495
1765877438.706791,495
1765877438.706805,495
1765877438.706817,494
1765877438.706829,494
1765877438.706857,494
1765877438.706871,495
1765877438.706883,495
1765877438.706895,495
1765877438.706908,496
1765877438.70692,495
1765877438.706932,495
1765877438.706945,494
1765877438.706959,494
1765877438.706971,495
1765877438.7070909,495
1765877438.707105,495
1765877438.707149,495
1765877438.7071931,495
1765877438.707289,495
1765877438.707357,495
1765877438.7073972,493
1765877438.707414,495
1765877438.7074308,495
1765877438.7074702,495
1765877438.707517,496
1765877438.707531,494
1765877438.707564,495
1765877438.7075799,494
1765877438.707616,494
1765877438.707655,495
1765877438.707677,496
1765877438.707694,499
1765877438.70771,499
1765877438.707725,499
1765877438.707741,496
1765877438.707756,496
1765877438.707772,495
1765877438.707787,493
1765877438.7078028,492
1765877438.707818,493
1765877438.707834,494
1765877438.70785,494
1765877438.707867,494
1765877438.7078831,495
1765877438.7078989,494
1765877438.7079139,494
1765877438.70793,494
1765877438.7079449,494
1765877438.707961,494
1765877438.7079759,495
1765877438.707992,495
1765877438.708008,495
1765877438.708023,495
1765877438.7080388,494
1765877438.708054,494
1765877438.708069,494
1765877438.708089,494
1765877438.708113,495
1765877438.708128,495
1765877438.7081442,495
1765877438.708159,494
1765877438.7081752,495
1765877438.70819,495
1765877438.708205,494
1765877438.708221,494
1765877438.708236,495
1765877438.708252,495
1765877438.708268,495
1765877438.708283,494
1765877438.708298,495
1765877438.708313,495
1765877438.708328,494
1765877438.708344,494
1765877438.708359,495
1765877438.708374,495
1765877438.708389,494
1765877438.708405,496
1765877438.70842,495
1765877438.708435,495
1765877438.708451,495
1765877438.7084658,495
1765877438.708481,495
1765877438.708499,495
1765877438.7085161,495
1765877438.708531,494
1765877438.708547,494
1765877438.708562,495
1765877438.708577,495
1765877438.7085922,495
1765877438.708608,496
1765877438.7086232,495
1765877438.708638,496
1765877438.7086542,497
1765877438.708669,497
1765877438.708684,496
1765877438.7087,495
1765877438.708715,496
1765877438.7087302,500
1765877438.708745,500
1765877438.70876,498
1765877438.708776,495
1765877438.708791,492
1765877438.7088058,493
1765877438.708821,492
1765877438.708837,492
1765877438.708852,494
1765877438.708867,494
1765877438.7088819,495
1765877438.708897,494
1765877438.708917,494
1765877438.7089322,495
1765877438.708947,494
1765877438.7089632,494
1765877438.708978,494
1765877438.708993,494
1765877438.7090108,494
1765877438.709026,494
1765877438.7090418,495
1765877438.709058,495
1765877438.7090728,494
1765877438.709089,494
1765877438.709104,494
1765877438.709119,495
1765877438.709135,495
1765877438.7091498,495
1765877438.709165,495
1765877438.7091808,498
1765877438.709196,499
1765877438.7092109,498
1765877438.709226,497
1765877438.709242,492
1765877438.709257,494
1765877438.709273,493
1765877438.709288,493
1765877438.709304,493
1765877438.7093241,494
1765877438.7093399,496
1765877438.709356,496
1765877438.7093709,495
1765877438.709387,493
1765877438.709402,494
1765877438.7094169,494
1765877438.7094321,497
1765877438.7094479,501
1765877438.7094631,504
1765877438.7094789,507
1765877438.709494,507
1765877438.7095091,499
1765877438.709524,492
1765877438.7095392,491
1765877438.709555,489
1765877438.70957,489
1765877438.709586,490
1765877438.709602,491
1765877438.7096179,493
1765877438.709633,493
1765877438.709648,494
1765877438.709663,495
1765877438.7096782,495
1765877438.709693,494
1765877438.7097092,494
1765877438.709727,494
1765877438.709746,494
1765877438.709762,494
1765877438.7097769,496
1765877438.709792,495
1765877438.7098072,495
1765877438.709823,496
1765877438.7098382,495
1765877438.709853,495
1765877438.709868,495
1765877438.709883,496
1765877438.709898,495
1765877438.709913,495
1765877438.709928,496
1765877438.709944,495
1765877438.709959,495
1765877438.709974,496
1765877438.709989,496
1765877438.710005,496
1765877438.71002,496
1765877438.7100348,496
1765877438.710051,495
1765877438.7100658,494
1765877438.710081,495
1765877438.710096,495
1765877438.710112,494
1765877438.710131,494
1765877438.710148,494
1765877438.7101629,495
1765877438.7101781,496
1765877438.7101939,496
1765877438.7102091,496
1765877438.710224,495
1765877438.710239,495
1765877438.7102551,497
1765877438.71027,499
1765877438.710285,502
1765877438.7103,503
1765877438.710315,500
1765877438.710331,494
1765877438.710347,493
1765877438.7103622,491
1765877438.710377,493
1765877438.7103941,493
1765877438.710409,494
1765877438.710424,494
1765877438.71044,494
1765877438.710455,495
1765877438.71047,495
1765877438.710486,495
1765877438.7105012,494
1765877438.710517,495
1765877438.710537,496
1765877438.7105532,495
1765877438.710569,494
1765877438.7105842,495
1765877438.710599,495
1765877438.7106152,495
1765877438.71063,496
1765877438.710646,495
1765877438.710662,496
1765877438.710677,495
1765877438.7106931,496
1765877438.710708,495
1765877438.7107232,495
1765877438.710739,496
1765877438.7107542,495
1765877438.71077,495
1765877438.710785,495
1765877438.710801,494
1765877438.710816,496
1765877438.7108312,497
1765877438.710846,496
1765877438.710861,496
1765877438.710877,496
1765877438.710892,494
1765877438.710907,495
1765877438.710922,494
1765877438.7109382,494
1765877438.710958,493
1765877438.710974,493
1765877438.710989,495
1765877438.711004,496
1765877438.71102,496
1765877438.7110348,496
1765877438.71105,495
1765877438.711064,495
1765877438.7110772,494
1765877438.7110898,494
1765877438.711103,495
1765877438.711116,495
1765877438.7111292,495
1765877438.7111418,495
1765877438.711156,496
1765877438.711169,495
1765877438.711183,495
1765877438.711196,496
1765877438.711209,496
1765877438.711222,493
1765877438.711235,494
1765877438.711248,495
1765877438.711261,494
1765877438.711274,494
1765877438.711287,494
1765877438.7113001,495
1765877438.7113159,496
1765877438.71133,496
1765877438.711343,495
1765877438.711356,494
1765877438.711369,494
1765877438.711382,495
1765877438.711395,495
1765877438.7114081,495
1765877438.711421,495
1765877438.711434,495
1765877438.711446,494
1765877438.7114592,494
1765877438.711472,495
1765877438.711485,495
1765877438.711498,495
1765877438.7115111,495
1765877438.711524,496
1765877438.711537,497
1765877438.71155,497
1765877438.711563,496
1765877438.711576,496
1765877438.711589,497
1765877438.7116008,496
1765877438.711614,496
1765877438.711627,496
1765877438.7116401,496
1765877438.711657,496
1765877438.711671,496
1765877438.711684,496
1765877438.7116969,496
1765877438.71171,496
1765877438.711723,495
1765877438.711736,495
1765877438.711749,494
1765877438.711762,494
1765877438.7117739,494
1765877438.711788,495
1765877438.711801,494
1765877438.7118132,495
1765877438.7118258,494
1765877438.711839,495
1765877438.711852,495
1765877438.7118652,495
1765877438.7118778,496
1765877438.711891,495
1765877438.711904,495
1765877438.7119172,495
1765877438.71193,495
1765877438.7119439,495
1765877438.711957,496
1765877438.71197,495
1765877438.7119832,495
1765877438.712001,495
1765877438.712032,494
1765877438.712045,496
1765877438.712057,495
1765877438.71207,495
1765877438.7120829,495
1765877438.712096,495
1765877438.712109,495
1765877438.712121,495
1765877438.712134,495
1765877438.712147,495
1765877438.71216,494
1765877438.712173,495
1765877438.712186,495
1765877438.712199,496
1765877438.712212,495
1765877438.712225,495
1765877438.712466,495
1765877438.7124858,495
1765877438.7124999,494
1765877438.7125142,495
1765877438.712527,494
1765877438.71254,495
1765877438.712553,494
1765877438.712567,494
1765877438.7125802,494
1765877438.7125928,495
1765877438.712611,494
1765877438.7126248,495
1765877438.712638,493
1765877438.712651,494
1765877438.712665,494
1765877438.712678,494
1765877438.7126908,495
1765877438.712862,495
1765877438.7128801,496
1765877438.7128918,495
1765877438.712905,494
1765877438.712917,495
1765877438.71293,495
1765877438.7129421,495
1765877438.712954,495
1765877438.712966,495
1765877438.712978,495
1765877438.71299,495
1765877438.713042,495
1765877438.713064,495
1765877438.713077,494
1765877438.71309,494
1765877438.713147,493
1765877438.713187,493
1765877438.7132008,493
1765877438.713213,493
1765877438.713249,493
1765877438.713265,494
1765877438.713278,493
1765877438.713291,494
1765877438.713305,495
1765877438.713341,495
1765877438.713355,496
1765877438.7133682,497
1765877438.713381,495
1765877438.713394,495
1765877438.7134762,495
1765877438.713491,494
1765877438.713504,495
1765877438.7135181,495
1765877438.7135308,495
1765877438.713544,494
1765877438.713557,495
1765877438.71357,495
1765877438.713582,495
1765877438.713595,494
1765877438.713608,494
1765877438.713621,494
1765877438.713634,495
1765877438.7136462,495
1765877438.7136588,495
1765877438.713672,495
1765877438.7136881,495
1765877438.713702,495
1765877438.7137148,496
1765877438.713728,495
1765877438.713742,495
1765877438.713755,494
1765877438.713768,494
1765877438.7137809,494
1765877438.713794,494
1765877438.713807,495
1765877438.71382,496
1765877438.7138329,495
1765877438.713845,495
1765877438.7138581,495
1765877438.713871,495
1765877438.7138839,495
1765877438.713897,495
1765877438.713909,495
1765877438.713922,495
1765877438.7139359,495
1765877438.713949,494
1765877438.713961,495
1765877438.7139761,495
1765877438.713989,495
1765877438.714002,494
1765877438.714014,495
1765877438.714049,495
1765877438.7140648,495
1765877438.714078,495
1765877438.714091,495
1765877438.7141042,495
1765877438.714117,495
1765877438.71413,495
1765877438.714143,495
1765877438.7141562,495
1765877438.714169,495
1765877438.714182,495
1765877438.714195,495
1765877438.714208,495
1765877438.714221,495
1765877438.714234,495
1765877438.714247,495
1765877438.7142599,495
1765877438.714273,494
1765877438.714286,495
1765877438.7143,495
1765877438.714313,495
1765877438.714325,495
1765877438.714338,495
1765877438.7143512,495
1765877438.714366,495
1765877438.7143779,495
1765877438.714394,495
1765877438.7144089,496
1765877438.714422,494
1765877438.714435,495
1765877438.714448,494
1765877438.7144608,495
1765877438.714474,495
1765877438.714487,495
1765877438.7145002,495
1765877438.7145128,494
1765877438.714526,495
1765877438.714539,494
1765877438.7145522,495
1765877438.714607,495
1765877438.7146208,496
1765877438.714634,495
1765877438.714647,495
1765877438.7146602,495
1765877438.7146728,495
1765877438.714686,495
1765877438.714699,495
1765877438.714711,495
1765877438.714724,495
1765877438.714737,495
1765877438.71475,495
1765877438.714763,495
1765877438.714777,495
1765877438.714797,495
1765877438.7148101,496
1765877438.714823,496
1765877438.714837,495
1765877438.7148511,494
1765877438.714864,494
1765877438.7148778,494
1765877438.714891,495
1765877438.714905,495
1765877438.714918,495
1765877438.714931,495
1765877438.714945,495
1765877438.7149582,495
1765877438.714972,495
1765877438.714985,495
1765877438.714998,494
1765877438.7150111,495
1765877438.7150238,495
1765877438.715038,495
1765877438.715051,495
1765877438.715065,496
1765877438.7150772,494
1765877438.715091,495
1765877438.715105,495
1765877438.7151182,494
1765877438.7151308,495
1765877438.715147,495
1765877438.715161,495
1765877438.715173,495
1765877438.7151859,495
1765877438.715199,495
1765877438.715212,495
1765877438.715225,495
1765877438.7152379,495
1765877438.715251,495
1765877438.715264,495
1765877438.715277,495
1765877438.71529,495
1765877438.715303,495
1765877438.715316,495
1765877438.715329,495
1765877438.715343,495
1765877438.7153559,495
1765877438.715369,495
1765877438.715382,495
1765877438.715395,495
1765877438.7154078,495
1765877438.715421,495
1765877438.715434,495
1765877438.715447,495
1765877438.71546,494
1765877438.715473,495
1765877438.715494,495
1765877438.715508,495
1765877438.715521,495
1765877438.7155352,495
1765877438.7155478,495
1765877438.715561,495
1765877438.715574,495
1765877438.7155871,495
1765877438.7155998,495
1765877438.715613,495
1765877438.715626,495
1765877438.715639,495
1765877438.715652,495
1765877438.7156649,495
1765877438.715678,495
1765877438.715691,495
1765877438.715704,496
1765877438.715717,495
1765877438.71573,495
1765877438.715743,495
1765877438.715756,495
1765877438.715769,495
1765877438.715782,495
1765877438.715795,495
1765877438.715808,495
1765877438.715821,495
1765877438.715837,495
1765877438.715852,495
1765877438.7158651,495
1765877438.7158778,496
1765877438.715891,495
1765877438.715904,495
1765877438.715917,495
1765877438.7159302,495
1765877438.7159429,495
1765877438.715956,495
1765877438.715968,495
1765877438.715981,495
1765877438.7159941,495
1765877438.716007,496
1765877438.7160199,495
1765877438.716033,495
1765877438.716046,495
1765877438.716059,495
1765877438.7160718,495
1765877438.716085,495
1765877438.716098,495
1765877438.7161112,495
1765877438.716141,495
1765877438.716154,495
1765877438.7161658,495
1765877438.716179,495
1765877438.716195,495
1765877438.71621,495
1765877438.716223,495
1765877438.716236,494
1765877438.716249,495
1765877438.7162619,495
1765877438.716275,497
1765877438.716287,497
1765877438.7163,496
1765877438.7163131,495
1765877438.716326,494
1765877438.7163389,495
1765877438.716352,493
1765877438.716366,494
1765877438.716379,494
1765877438.7163908,494
1765877438.716404,495
1765877438.716417,495
1765877438.7164302,495
1765877438.716444,496
1765877438.716457,496
1765877438.71647,496
1765877438.716483,495
1765877438.716496,495
1765877438.7165089,495
1765877438.716522,495
1765877438.716535,495
1765877438.716553,495
1765877438.716565,496
1765877438.716579,495
1765877438.7165911,495
1765877438.716605,494
1765877438.7166169,495
1765877438.716631,495
1765877438.716644,495
1765877438.716657,495
1765877438.71667,495
1765877438.716683,495
1765877438.716697,495
1765877438.7167099,495
1765877438.716724,495
1765877438.716737,495
1765877438.716751,495
1765877438.716764,495
1765877438.716778,495
1765877438.716792,495
1765877438.7168052,494
1765877438.716819,495
1765877438.716833,495
1765877438.716846,496
1765877438.7168598,495
1765877438.716874,495
1765877438.716887,495
1765877438.716904,495
1765877438.716918,495
1765877438.7169302,495
1765877438.716943,496
1765877438.7169569,496
1765877438.716971,496
1765877438.716984,494
1765877438.7169971,495
1765877438.71701,496
1765877438.717023,496
1765877438.717036,496
1765877438.7170491,498
1765877438.71706,497
1765877438.717071,497
1765877438.717082,497
1765877438.7170932,496
1765877438.717105,496
1765877438.7171159,496
1765877438.7171268,495
1765877438.7171378,495
1765877438.717149,495
1765877438.71716,497
1765877438.717172,496
1765877438.717184,496
1765877438.7171981,495
1765877438.71721,496
1765877438.717224,496
1765877438.717237,493
1765877438.717248,494
1765877438.717259,495
1765877438.71727,495
1765877438.717281,495
1765877438.717293,496
1765877438.717304,496
1765877438.717315,496
1765877438.7173262,495
1765877438.7173371,496
1765877438.717348,497
1765877438.717359,496
1765877438.717371,496
1765877438.717382,495
1765877438.717393,495
1765877438.717404,496
1765877438.717416,496
1765877438.717427,495
1765877438.717438,495
1765877438.717449,495
1765877438.717461,495
1765877438.717472,496
1765877438.717483,495
1765877438.717494,495
1765877438.717505,496
1765877438.717519,495
1765877438.7175329,495
1765877438.7175438,495
1765877438.717555,496
1765877438.717566,496
1765877438.717578,495
1765877438.717589,494
1765877438.717601,495
1765877438.717612,495
1765877438.717623,496
1765877438.717634,496
1765877438.7176452,496
1765877438.717657,496
1765877438.717668,496
1765877438.717679,495
1765877438.7176902,495
1765877438.7177012,495
1765877438.717712,495
1765877438.7177238,495
1765877438.7177348,495
1765877438.717746,495
1765877438.717757,495
1765877438.717769,495
1765877438.7177799,494
1765877438.717791,494
1765877438.717803,494
1765877438.717814,495
1765877438.71783,495
1765877438.717841,496
1765877438.7178519,496
1765877438.717864,496
1765877438.717875,495
1765877438.717886,496
1765877438.717897,494
1765877438.717908,496
1765877438.7179189,495
1765877438.71793,495
1765877438.717941,495
1765877438.717953,495
1765877438.717964,495
1765877438.7179751,495
1765877438.717986,496
1765877438.717997,496
1765877438.718009,496
1765877438.7180202,495
1765877438.718046,496
1765877438.718057,494
1765877438.718068,495
1765877438.71808,496
1765877438.718091,495
1765877438.718102,495
1765877438.718113,495
1765877438.718124,495
1765877438.7181382,495
1765877438.7181509,496
1765877438.7181618,496
1765877438.718173,497
1765877438.718184,496
1765877438.718196,497
1765877438.718207,496
1765877438.718218,496
1765877438.718229,496
1765877438.718241,496
1765877438.718252,495
1765877438.7182631,495
1765877438.718274,495
1765877438.718285,496
1765877438.718296,495
1765877438.718307,494
1765877438.7183192,495
1765877438.7183301,495
1765877438.7183418,495
1765877438.7183528,496
1765877438.718364,496
1765877438.718376,496
1765877438.718387,496
1765877438.7183979,495
1765877438.718409,495
1765877438.71842,495
1765877438.718434,495
1765877438.718446,494
1765877438.7184582,494
1765877438.7184691,495
1765877438.7184799,495
1765877438.7184908,495
1765877438.7185018,495
1765877438.718513,495
1765877438.718524,495
1765877438.718535,495
1765877438.718546,494
1765877438.718557,495
1765877438.7185678,496
1765877438.71858,495
1765877438.718591,495
1765877438.718602,496
1765877438.718613,496
1765877438.718624,495
1765877438.718635,496
1765877438.718646,497
1765877438.718657,497
1765877438.718668,496
1765877438.718679,495
1765877438.7186902,495
1765877438.7187011,495
1765877438.718712,496
1765877438.718723,496
1765877438.718739,496
1765877438.71875,496
1765877438.718761,496
1765877438.718772,496
1765877438.718783,496
1765877438.7187939,496
1765877438.718805,495
1765877438.718816,495
1765877438.718827,495
1765877438.718838,495
1765877438.7188501,496
1765877438.718861,495
1765877438.718872,495
1765877438.718884,496
1765877438.7188952,496
1765877438.7189062,496
1765877438.7189171,496
1765877438.7189288,496
1765877438.71894,497
1765877438.718951,496
1765877438.718962,495
1765877438.718973,495
1765877438.718984,495
1765877438.7189949,495
1765877438.719006,494
1765877438.719017,495
1765877438.719035,495
1765877438.7190459,495
1765877438.719056,495
1765877438.7190669,496
1765877438.7190778,496
1765877438.71909,495
1765877438.719101,497
1765877438.719112,496
1765877438.719123,497
1765877438.7191339,496
1765877438.719145,495
1765877438.719156,495
1765877438.719167,495
1765877438.719178,496
1765877438.7191901,496
1765877438.719201,496
1765877438.719212,496
1765877438.719223,496
1765877438.7192352,495
1765877438.7192461,495
1765877438.719257,495
1765877438.719268,496
1765877438.719282,495
1765877438.7192929,495
1765877438.7193038,496
1765877438.719315,496
1765877438.719328,496
1765877438.719341,496
1765877438.719352,496
1765877438.719363,496
1765877438.7193742,496
1765877438.719386,497
1765877438.719397,497
1765877438.719408,496
1765877438.7194188,496
1765877438.71943,496
1765877438.719441,495
1765877438.719452,495
1765877438.7194629,495
1765877438.7194738,495
1765877438.719485,496
1765877438.719496,496
1765877438.719507,496
1765877438.719518,495
1765877438.719529,495
1765877438.7195399,495
1765877438.719551,495
1765877438.719562,496
1765877438.719573,496
1765877438.719584,496
1765877438.7195961,495
1765877438.719607,495
1765877438.71962,496
1765877438.7196338,496
1765877438.719645,496
1765877438.719656,496
1765877438.719667,496
1765877438.7196789,496
1765877438.71969,495
1765877438.719701,496
1765877438.719712,496
1765877438.719723,495
1765877438.719734,495
1765877438.719745,495
1765877438.7197561,495
1765877438.719767,495
1765877438.719778,496
1765877438.719789,496
1765877438.7198012,495
1765877438.7198122,496
1765877438.7198231,496
1765877438.7198348,497
1765877438.7198458,496
1765877438.719857,495
1765877438.719868,495
1765877438.719879,495
1765877438.7198899,495
1765877438.7199008,495
1765877438.719912,495
1765877438.719928,495
1765877438.719939,496
1765877438.7199502,496
1765877438.7199612,497
1765877438.7199721,497
1765877438.719984,496
1765877438.7199948,496
1765877438.720006,496
1765877438.720018,495
1765877438.720032,496
1765877438.720043,496
1765877438.720053,496
1765877438.720064,495
1765877438.720075,495
1765877438.720086,496
1765877438.720097,496
1765877438.720108,496
1765877438.720119,497
1765877438.72013,496
1765877438.7201412,495
1765877438.7201521,496
1765877438.720163,496
1765877438.720174,496
1765877438.720186,495
1765877438.7201972,495
1765877438.720208,496
1765877438.720222,496
1765877438.720234,496
1765877438.720245,496
1765877438.720256,496
1765877438.720267,496
1765877438.720279,495
1765877438.720289,496
1765877438.7203,495
1765877438.720311,495
1765877438.7203221,496
1765877438.720333,496
1765877438.720344,496
1765877438.720356,496
1765877438.7203999,496
1765877438.720412,496
1765877438.720423,496
1765877438.720434,495
1765877438.720445,495
1765877438.720456,495
1765877438.720468,495
1765877438.720479,496
1765877438.720489,496
1765877438.7205,495
1765877438.720522,496
1765877438.720557,496
1765877438.72057,496
1765877438.7205849,496
1765877438.720598,495
1765877438.7206101,496
1765877438.720622,496
1765877438.720633,495
1765877438.7206452,496
1765877438.720656,495
1765877438.720667,496
1765877438.7206788,496
1765877438.72069,496
1765877438.720702,496
1765877438.720713,496
1765877438.7207239,496
1765877438.720736,496
1765877438.720747,496
1765877438.7207592,496
1765877438.7207701,496
1765877438.720782,495
1765877438.720793,496
1765877438.7208052,495
1765877438.7208471,495
1765877438.7208588,496
1765877438.7208698,495
1765877438.720882,495
1765877438.7208939,495
1765877438.720905,495
1765877438.720917,495
1765877438.720932,495
1765877438.7209432,495
1765877438.7209542,496
1765877438.7209659,496
1765877438.7209768,495
1765877438.7209878,496
1765877438.720999,496
1765877438.72101,496
1765877438.721021,496
1765877438.7210329,497
1765877438.721045,497
1765877438.721056,497
1765877438.7210681,497
1765877438.721079,497
1765877438.72109,497
1765877438.721102,497
1765877438.7211132,496
1765877438.7211242,496
1765877438.721136,497
1765877438.7211468,496
1765877438.7211578,497
1765877438.721169,496
1765877438.72118,497
1765877438.721191,497
1765877438.721202,496
1765877438.7212129,495
1765877438.721229,495
1765877438.72124,495
1765877438.7212522,496
1765877438.7212641,496
1765877438.7212758,496
1765877438.721287,497
1765877438.721298,497
1765877438.721309,496
1765877438.7213209,496
1765877438.721332,495
1765877438.721343,495
1765877438.721355,495
1765877438.721366,496
1765877438.7213771,495
1765877438.721389,496
1765877438.7214,497
1765877438.721411,496
1765877438.7214231,496
1765877438.721434,496
1765877438.721445,496
1765877438.721456,496
1765877438.7214668,495
1765877438.721479,496
1765877438.72149,496
1765877438.7215009,496
1765877438.7215118,496
1765877438.721526,495
1765877438.721538,496
1765877438.72155,495
1765877438.7215612,496
1765877438.721573,496
1765877438.7215848,496
1765877438.721596,495
1765877438.721607,495
1765877438.721619,495
1765877438.7216299,496
1765877438.721641,496
1765877438.721652,495
1765877438.721663,495
1765877438.721674,495
1765877438.721685,495
1765877438.721696,495
1765877438.721707,495
1765877438.721718,495
1765877438.72173,496
1765877438.721741,495
1765877438.7217522,495
1765877438.7217631,496
1765877438.721774,496
1765877438.721785,495
1765877438.7217972,496
1765877438.721808,496
1765877438.7218208,495
1765877438.721834,496
1765877438.721845,496
1765877438.721856,496
1765877438.721867,496
1765877438.721878,496
1765877438.72189,496
1765877438.721901,495
1765877438.7219121,495
1765877438.721924,495
1765877438.721935,495
1765877438.721946,496
1765877438.721958,496
1765877438.721969,495
1765877438.7219799,496
1765877438.7219908,496
1765877438.722002,496
1765877438.722013,496
1765877438.722024,495
1765877438.722035,495
1765877438.722047,495
1765877438.722058,496
1765877438.722069,495
1765877438.72208,495
1765877438.722091,495
1765877438.722102,495
1765877438.7221131,495
1765877438.7221289,496
1765877438.7221398,496
1765877438.7221508,496
1765877438.722162,495
1765877438.722173,496
1765877438.722185,495
1765877438.7222989,495
1765877438.722311,496
1765877438.722322,495
1765877438.722333,495
1765877438.722344,495
1765877438.722356,495
1765877438.722367,495
1765877438.722378,496
1765877438.722389,495
1765877438.7224,495
1765877438.722411,495
1765877438.7224221,495
1765877438.722433,495
1765877438.722445,495
1765877438.722456,495
1765877438.7224672,495
1765877438.7224782,495
1765877438.722489,495
1765877438.7225,495
1765877438.722511,496
1765877438.722527,495
1765877438.722538,496
1765877438.722549,496
1765877438.72256,496
1765877438.722572,496
1765877438.722583,495
1765877438.722594,495
1765877438.722605,495
1765877438.722616,495
1765877438.7226272,496
1765877438.7226381,496
1765877438.722649,497
1765877438.72266,495
1765877438.722671,495
1765877438.722682,495
1765877438.7226932,495
1765877438.722705,495
1765877438.7227159,495
1765877438.7227268,495
1765877438.722738,495
1765877438.722749,495
1765877438.72276,496
1765877438.722771,496
1765877438.722782,495
1765877438.7227929,495
1765877438.722805,495
1765877438.7228181,495
1765877438.722831,496
1765877438.7228422,495
1765877438.7228532,495
1765877438.7228642,495
1765877438.7228749,495
1765877438.7228858,495
1765877438.7228968,495
1765877438.722909,495
1765877438.72292,495
1765877438.722931,495
1765877438.7229419,494
1765877438.7229528,495
1765877438.722964,495
1765877438.722975,495
1765877438.722985,495
1765877438.72299,495
1765877438.722995,495
1765877438.723001,496
1765877438.723006,495
1765877438.723011,496
1765877438.723016,495
1765877438.723022,495
1765877438.723027,496
1765877438.723032,495
1765877438.723038,495
1765877438.723045,495
1765877438.723051,495
1765877438.7230568,495
1765877438.723063,495
1765877438.723068,495
1765877438.723073,495
1765877438.723079,495
1765877438.723084,495
1765877438.72309,495
1765877438.723095,496
1765877438.723101,495
1765877438.7231061,495
1765877438.7231119,495
1765877438.723117,495
1765877438.7231228,495
1765877438.723128,495
1765877438.723134,495
1765877438.723139,495
1765877438.723144,495
1765877438.72315,495
1765877438.723155,495
1765877438.72316,495
1765877438.723166,495
1765877438.723171,495
1765877438.723176,495
1765877438.723182,495
1765877438.723187,495
1765877438.7231948,495
1765877438.723202,495
1765877438.723208,496
1765877438.723213,495
1765877438.723218,495
1765877438.7232242,495
1765877438.723229,495
1765877438.7232351,495
1765877438.72324,495
1765877438.723246,496
1765877438.7232509,495
1765877438.723257,494
1765877438.723264,495
1765877438.723271,495
1765877438.723279,495
1765877438.723286,495
1765877438.723294,494
1765877438.7233012,495
1765877438.723309,495
1765877438.723315,495
1765877438.72332,495
1765877438.723325,495
1765877438.723331,495
1765877438.723336,495
1765877438.7233422,495
1765877438.723347,495
1765877438.723352,495
1765877438.72336,496
1765877438.723368,495
1765877438.7233732,495
1765877438.723378,496
1765877438.723383,496
1765877438.723389,495
1765877438.7233942,495
1765877438.723399,495
1765877438.7234051,495
1765877438.72341,496
1765877438.7234151,495
1765877438.7234209,495
1765877438.723426,495
1765877438.7234318,495
1765877438.723437,495
1765877438.723443,495
1765877438.723448,495
1765877438.723453,495
1765877438.723459,496
1765877438.723464,495
1765877438.72347,494
1765877438.723475,495
1765877438.72348,495
1765877438.723486,495
1765877438.723491,495
1765877438.723496,495
1765877438.7235022,496
1765877438.723509,495
1765877438.723516,496
1765877438.723522,495
1765877438.723527,495
1765877438.723532,495
1765877438.723538,495
1765877438.723543,495
1765877438.723548,495
1765877438.723553,496
1765877438.723559,495
1765877438.7235641,495
1765877438.723569,495
1765877438.723574,495
1765877438.72358,495
1765877438.7235851,495
1765877438.72359,495
1765877438.723596,495
1765877438.7236009,495
1765877438.723607,495
1765877438.7236118,495
1765877438.723617,495
1765877438.7236228,495
1765877438.723628,495
1765877438.723634,495
1765877438.723639,495
1765877438.723644,495
1765877438.7236512,495
1765877438.723658,495
1765877438.723663,495
1765877438.723669,495
1765877438.723674,495
1765877438.723679,495
1765877438.723684,495
1765877438.72369,495
1765877438.723695,495
1765877438.7237,495
1765877438.723705,495
1765877438.723711,495
1765877438.723716,495
1765877438.723721,495
1765877438.723727,496
1765877438.723732,495
1765877438.723737,495
1765877438.723742,496
1765877438.7237482,495
1765877438.723753,495
1765877438.723758,495
1765877438.723763,495
1765877438.7237692,495
1765877438.723774,496
1765877438.7237802,495
1765877438.723785,495
1765877438.7237902,495
1765877438.723798,495
1765877438.723805,495
1765877438.72381,495
1765877438.723816,496
1765877438.7238212,496
1765877438.723826,495
1765877438.7238321,495
1765877438.723837,496
1765877438.7238421,495
1765877438.723847,495
1765877438.723853,495
1765877438.7238579,495
1765877438.7238631,495
1765877438.723868,495
1765877438.723874,495
1765877438.7238789,495
1765877438.723884,496
1765877438.7238889,495
1765877438.723895,495
1765877438.7238998,495
1765877438.723905,495
1765877438.7239108,495
1765877438.723916,494
1765877438.7239208,495
1765877438.723926,495
1765877438.7239318,494
1765877438.723937,495
1765877438.723948,495
1765877438.723955,495
1765877438.723961,494
1765877438.723966,495
1765877438.7239711,495
1765877438.723976,495
1765877438.723982,495
1765877438.7239869,494
1765877438.723992,495
1765877438.7239969,495
1765877438.7240021,495
1765877438.7240078,495
1765877438.724013,496
1765877438.7240179,497
1765877438.724024,496
1765877438.7240288,496
1765877438.724034,496
1765877438.72404,496
1765877438.724045,496
1765877438.7240498,497
1765877438.724055,496
1765877438.724061,496
1765877438.724066,496
1765877438.724072,496
1765877438.724077,496
1765877438.724082,497
1765877438.724087,496
1765877438.7240949,496
1765877438.7241018,495
1765877438.724107,496
1765877438.7241118,496
1765877438.724118,495
1765877438.7241228,495
1765877438.724129,495
1765877438.724134,495
1765877438.724139,495
1765877438.724145,494
1765877438.72415,495
1765877438.724155,495
1765877438.724161,495
1765877438.724166,495
1765877438.724171,495
1765877438.724176,495
1765877438.7241821,495
1765877438.724187,495
1765877438.724192,496
1765877438.7241971,496
1765877438.724203,495
1765877438.724208,495
1765877438.724213,496
1765877438.7242188,495
1765877438.724224,494
1765877438.724229,495
1765877438.724235,495
1765877438.724242,494
1765877438.7242491,495
1765877438.724255,495
1765877438.72426,494
1765877438.7242649,495
1765877438.72427,495
1765877438.724276,494
1765877438.724281,495
1765877438.7242858,495
1765877438.724291,496
1765877438.724297,495
1765877438.724302,495
1765877438.724307,494
1765877438.724312,495
1765877438.724318,494
1765877438.724323,495
1765877438.724328,495
1765877438.724334,495
1765877438.724339,494
1765877438.724344,495
1765877438.724349,495
1765877438.724355,495
1765877438.72436,496
1765877438.724365,495
1765877438.724371,495
1765877438.724376,495
1765877438.7243829,495
1765877438.724389,495
1765877438.724395,495
1765877438.724401,495
1765877438.724406,495
1765877438.7244108,495
1765877438.724416,495
1765877438.724422,495
1765877438.724427,495
1765877438.7244318,494
1765877438.724437,494
1765877438.724443,495
1765877438.724448,495
1765877438.7244532,495
1765877438.724459,495
1765877438.7244642,495
1765877438.72447,495
1765877438.7244759,494
1765877438.724481,495
1765877438.7244868,495
1765877438.724493,494
1765877438.724499,495
1765877438.7245052,495
1765877438.724511,495
1765877438.724517,494
1765877438.7245219,495
1765877438.724528,495
1765877438.7245362,494
1765877438.724544,495
1765877438.7245498,494
1765877438.724556,495
1765877438.724562,495
1765877438.724567,494
1765877438.724573,495
1765877438.724579,495
1765877438.7245839,494
1765877438.724589,494
1765877438.7245948,495
1765877438.7246,495
1765877438.7246048,495
1765877438.72461,495
1765877438.724616,494
1765877438.724621,495
1765877438.7246258,495
1765877438.724631,494
1765877438.724637,495
1765877438.724642,495
1765877438.7246468,495
1765877438.724652,495
1765877438.724658,495
1765877438.724663,494
1765877438.7246678,494
1765877438.724674,494
1765877438.724679,495
1765877438.72469,495
1765877438.7246962,495
1765877438.724702,495
1765877438.7247071,495
1765877438.724712,495
1765877438.7247171,495
1765877438.7247229,495
1765877438.724728,494
1765877438.724734,494
1765877438.724739,494
1765877438.7247438,495
1765877438.72475,494
1765877438.724755,494
1765877438.724761,494
1765877438.724766,495
1765877438.7247722,495
1765877438.724778,495
1765877438.7247841,495
1765877438.72479,495
1765877438.7247958,495
1765877438.724802,495
1765877438.724808,495
1765877438.7248142,495
1765877438.72482,495
1765877438.7248251,494
1765877438.7248309,494
1765877438.724839,494
1765877438.7248461,495
1765877438.724852,495
1765877438.724858,494
1765877438.724864,494
1765877438.72487,494
1765877438.724876,495
1765877438.724881,494
1765877438.7248871,495
1765877438.7248929,495
1765877438.724899,495
1765877438.724905,495
1765877438.7249112,495
1765877438.724917,494
1765877438.724923,494
1765877438.724929,494
1765877438.724936,494
1765877438.724942,494
1765877438.724948,495
1765877438.7249541,495
1765877438.72496,495
1765877438.724965,494
1765877438.724971,495
1765877438.7249768,495
1765877438.724983,494
1765877438.724989,494
1765877438.7249951,494
1765877438.725002,494
1765877438.725009,494
1765877438.725015,495
1765877438.725021,494
1765877438.725027,495
1765877438.725033,494
1765877438.725039,495
1765877438.725045,495
1765877438.725051,495
1765877438.7250571,495
1765877438.725062,494
1765877438.725068,494
1765877438.7250738,495
1765877438.72508,495
1765877438.725085,494
1765877438.725091,495
1765877438.725096,494
1765877438.7251022,495
1765877438.725107,494
1765877438.725112,494
1765877438.725118,495
1765877438.7251232,494
1765877438.725128,494
1765877438.7251341,495
1765877438.725139,494
1765877438.7251441,494
1765877438.7251499,495
1765877438.725156,494
1765877438.725163,495
1765877438.7251682,494
1765877438.725174,494
1765877438.725179,494
1765877438.725184,495
1765877438.7251892,495
1765877438.725195,495
1765877438.7252,494
1765877438.725205,494
1765877438.7252102,494
1765877438.725216,495
1765877438.7252212,495
1765877438.725226,494
1765877438.7252312,495
1765877438.725237,495
1765877438.7252421,494
1765877438.725249,494
1765877438.725256,495
1765877438.7252638,495
1765877438.725271,494
1765877438.725277,494
1765877438.7252831,494
1765877438.7252889,495
1765877438.725295,495
1765877438.725301,494
1765877438.725307,494
1765877438.7253141,495
1765877438.725321,494
1765877438.725327,494
1765877438.725333,494
1765877438.725339,495
1765877438.7253451,495
1765877438.7253509,495
1765877438.725357,495
1765877438.725363,494
1765877438.725369,494
1765877438.725375,495
1765877438.7253811,494
1765877438.725386,495
1765877438.7253919,495
1765877438.725398,495
1765877438.7254038,494
1765877438.7254112,495
1765877438.725416,495
1765877438.725423,495
1765877438.725429,494
1765877438.7254348,494
1765877438.725441,494
1765877438.725447,494
1765877438.725452,495
1765877438.725458,495
1765877438.725464,494
1765877438.72547,495
1765877438.725478,494
1765877438.725485,495
1765877438.725491,494
1765877438.725497,495
1765877438.725503,495
1765877438.7255082,495
1765877438.725514,495
1765877438.72552,495
1765877438.725526,495
1765877438.7255318,495
1765877438.725538,495
1765877438.725544,495
1765877438.7255502,495
1765877438.725556,494
1765877438.725562,495
1765877438.7255669,495
1765877438.725573,494
1765877438.725579,494
1765877438.7255838,495
1765877438.725589,494
1765877438.725595,494
1765877438.7256,495
1765877438.725605,494
1765877438.725611,495
1765877438.7256162,495
1765877438.725621,495
1765877438.7256289,495
1765877438.725636,496
1765877438.725641,494
1765877438.725646,495
1765877438.725652,495
1765877438.725657,495
1765877438.725662,495
1765877438.7256682,495
1765877438.725673,495
1765877438.725678,495
1765877438.725684,495
1765877438.7256892,495
1765877438.725694,495
1765877438.7257001,495
1765877438.725705,495
1765877438.7257102,495
1765877438.7257159,495
1765877438.7257211,495
1765877438.725726,495
1765877438.725732,494
1765877438.7257369,495
1765877438.725742,495
1765877438.725748,495
1765877438.725753,494
1765877438.725759,495
1765877438.725766,494
1765877438.725771,494
1765877438.725779,495
1765877438.7257862,495
1765877438.725792,495
1765877438.7257972,495
1765877438.725803,495
1765877438.7258089,495
1765877438.725815,495
1765877438.725821,495
1765877438.725827,495
1765877438.725833,494
1765877438.7258391,495
1765877438.725845,494
1765877438.7258508,495
1765877438.725857,495
1765877438.725863,494
1765877438.725869,494
1765877438.725875,494
1765877438.725881,495
1765877438.725887,495
1765877438.725893,494
1765877438.725899,495
1765877438.725905,494
1765877438.7259111,495
1765877438.7259169,495
1765877438.725923,495
1765877438.725929,495
1765877438.7259352,494
1765877438.7259421,495
1765877438.7259488,495
1765877438.725955,494
1765877438.725961,494
1765877438.7259672,495
1765877438.725972,494
1765877438.7259781,495
1765877438.725984,494
1765877438.7259898,494
1765877438.725996,494
1765877438.726003,494
1765877438.7260091,494
1765877438.726015,495
1765877438.72602,495
1765877438.726026,494
1765877438.7260318,495
1765877438.726038,495
1765877438.726044,495
1765877438.7260501,495
1765877438.726055,496
1765877438.726061,495
1765877438.7260668,496
1765877438.7260742,496
1765877438.72608,496
1765877438.7260852,497
1765877438.726091,497
1765877438.7260969,496
1765877438.726103,496
1765877438.72611,496
1765877438.726115,497
1765877438.72612,496
1765877438.7261262,496
1765877438.726131,495
1765877438.726136,496
1765877438.726141,495
1765877438.7261472,495
1765877438.726152,495
1765877438.726157,496
1765877438.726162,495
1765877438.7261682,495
1765877438.726173,495
1765877438.726178,495
1765877438.726184,495
1765877438.72619,495
1765877438.726196,495
1765877438.726201,494
1765877438.726207,495
1765877438.7262132,495
1765877438.726219,495
1765877438.726225,495
1765877438.726231,495
1765877438.7262368,495
1765877438.726243,495
1765877438.72625,495
1765877438.7262568,495
1765877438.726263,496
1765877438.726269,495
1765877438.726275,496
1765877438.726281,495
1765877438.7262871,495
1765877438.726292,495
1765877438.726298,495
1765877438.726304,495
1765877438.7263098,496
1765877438.726316,495
1765877438.726322,495
1765877438.7263281,495
1765877438.7263339,495
1765877438.726339,495
1765877438.726345,495
1765877438.726351,495
1765877438.726357,495
1765877438.726363,495
1765877438.7263691,495
1765877438.7263749,496
1765877438.726381,495
1765877438.726387,495
1765877438.726392,495
1765877438.726398,494
1765877438.7264042,494
1765877438.726412,495
1765877438.726419,495
1765877438.7264252,495
1765877438.726431,495
1765877438.7264361,495
1765877438.726442,495
1765877438.726448,495
1765877438.726454,496
1765877438.72646,495
1765877438.726465,496
1765877438.726471,495
1765877438.7264771,495
1765877438.7264829,494
1765877438.726489,494
1765877438.7264938,495
1765877438.7265,495
1765877438.726506,495
1765877438.7265122,495
1765877438.726518,495
1765877438.7265239,495
1765877438.7265291,495
1765877438.7265348,495
1765877438.726541,495
1765877438.726547,495
1765877438.7265532,495
1765877438.726559,495
1765877438.7265651,495
1765877438.726572,495
1765877438.726579,495
1765877438.726584,495
1765877438.72659,495
1765877438.7265952,495
1765877438.7266,495
1765877438.7266061,494
1765877438.726611,495
1765877438.7266161,495
1765877438.7266219,495
1765877438.726627,495
1765877438.7266319,495
1765877438.726638,495
1765877438.7266428,495
1765877438.726648,495
1765877438.7266529,495
1765877438.726659,494
1765877438.7266638,495
1765877438.726669,495
1765877438.726675,495
1765877438.72668,496
1765877438.726685,495
1765877438.726691,496
1765877438.726696,495
1765877438.726701,495
1765877438.726706,495
1765877438.726712,495
1765877438.726718,495
1765877438.726725,495
1765877438.7267299,494
1765877438.726735,495
1765877438.726741,495
1765877438.726746,495
1765877438.726752,495
1765877438.726758,495
1765877438.726763,495
1765877438.726769,495
1765877438.726775,495
1765877438.726781,495
1765877438.726787,495
1765877438.7267919,495
1765877438.726798,495
1765877438.726804,495
1765877438.7268102,495
1765877438.726816,495
1765877438.726822,495
1765877438.726827,495
1765877438.7268329,495
1765877438.726839,495
1765877438.726845,494
1765877438.726851,494
1765877438.726857,494
1765877438.7268622,495
1765877438.72687,495
1765877438.726877,495
1765877438.7268832,495
1765877438.726889,495
1765877438.726895,495
1765877438.7268999,495
1765877438.726906,495
1765877438.726912,495
1765877438.726918,495
1765877438.726924,495
1765877438.72693,495
1765877438.726936,494
1765877438.726942,495
1765877438.726948,494
1765877438.726954,495
1765877438.726959,495
1765877438.726965,495
1765877438.726971,495
1765877438.726977,495
1765877438.7269828,495
1765877438.726989,495
1765877438.726995,495
1765877438.7270012,495
1765877438.727007,496
1765877438.727013,495
1765877438.727019,495
1765877438.7270248,495
1765877438.727038,496
1765877438.727045,495
1765877438.727051,494
1765877438.727057,494
1765877438.727062,495
1765877438.727068,495
1765877438.7270741,496
1765877438.7270799,495
1765877438.727085,495
1765877438.7270908,495
1765877438.727096,495
1765877438.7271008,494
1765877438.727106,495
1765877438.727112,495
1765877438.727117,495
1765877438.7271218,495
1765877438.727127,495
1765877438.727133,495
1765877438.727138,495
1765877438.7271428,495
1765877438.727149,495
1765877438.727154,495
1765877438.727159,495
1765877438.7271638,495
1765877438.72717,495
1765877438.727175,495
1765877438.7271821,494
1765877438.7271879,495
1765877438.727194,495
1765877438.727199,494
1765877438.727204,495
1765877438.72721,495
1765877438.727215,495
1765877438.72722,495
1765877438.727225,495
1765877438.727231,495
1765877438.727236,495
1765877438.727241,495
1765877438.727247,494
1765877438.727253,495
1765877438.7272582,495
1765877438.727264,495
1765877438.72727,495
1765877438.727276,495
1765877438.7272818,495
1765877438.727288,495
1765877438.727294,495
1765877438.727299,495
1765877438.727305,494
1765877438.7273111,495
1765877438.727317,495
1765877438.7273228,495
1765877438.727329,495
1765877438.727336,494
1765877438.727344,495
1765877438.727349,495
1765877438.7273548,495
1765877438.727361,495
1765877438.727367,495
1765877438.7273731,495
1765877438.7273788,495
1765877438.727385,495
1765877438.72739,496
1765877438.727396,495
1765877438.727402,495
1765877438.7274082,495
1765877438.7274141,495
1765877438.7274199,495
1765877438.727427,495
1765877438.727434,495
1765877438.727442,495
1765877438.727448,496
1765877438.727454,495
1765877438.727461,495
1765877438.727467,495
1765877438.7274728,495
1765877438.727479,495
1765877438.727485,495
1765877438.7274911,494
1765877438.7274969,494
1765877438.727505,494
1765877438.727511,494
1765877438.727517,495
1765877438.727523,495
1765877438.727529,495
1765877438.727535,495
1765877438.727541,495
1765877438.727547,495
1765877438.727552,495
1765877438.727558,495
1765877438.727564,495
1765877438.7275698,495
1765877438.727576,496
1765877438.727582,494
1765877438.727587,494
1765877438.727593,495
1765877438.7275982,495
1765877438.727604,495
1765877438.7276092,495
1765877438.7276149,495
1765877438.7276201,495
1765877438.727625,495
1765877438.727631,495
1765877438.7276359,494
1765877438.727642,495
1765877438.727647,495
1765877438.727653,495
1765877438.727659,495
1765877438.727666,495
1765877438.7276711,495
1765877438.727676,495
1765877438.727682,495
1765877438.727687,495
1765877438.727693,495
1765877438.727699,494
1765877438.727705,495
1765877438.727711,495
1765877438.7277172,495
1765877438.7277231,494
1765877438.7277288,495
1765877438.727735,495
1765877438.727741,495
1765877438.727747,495
1765877438.727753,495
1765877438.7277591,495
1765877438.727765,495
1765877438.7277708,495
1765877438.727777,495
1765877438.727783,495
1765877438.7277892,495
1765877438.727795,495
1765877438.727801,495
1765877438.727807,495
1765877438.727814,495
1765877438.727822,495
1765877438.727828,495
1765877438.727833,495
1765877438.727839,495
1765877438.7278452,495
1765877438.727851,495
1765877438.7278569,495
1765877438.727863,495
1765877438.727869,495
1765877438.727874,495
1765877438.72788,495
1765877438.727886,495
1765877438.727892,495
1765877438.7278981,495
1765877438.727904,494
1765877438.7279098,494
1765877438.727916,495
1765877438.727922,495
1765877438.727927,495
1765877438.727933,495
1765877438.7279391,495
1765877438.7279449,495
1765877438.727951,495
1765877438.727957,495
1765877438.727963,495
1765877438.727969,495
1765877438.7279758,495
1765877438.727983,495
1765877438.727989,495
1765877438.7279942,495
1765877438.728,495
1765877438.728006,495
1765877438.728012,495
1765877438.7280178,495
1765877438.728024,495
1765877438.72803,495
1765877438.7280362,495
1765877438.728042,495
1765877438.728048,495
1765877438.728054,495
1765877438.72806,494
1765877438.728066,495
1765877438.728072,495
1765877438.7280781,495
1765877438.728083,495
1765877438.728089,495
1765877438.7280939,495
1765877438.728099,495
1765877438.728105,495
1765877438.72811,495
1765877438.7281148,495
1765877438.72812,495
1765877438.728126,495
1765877438.728131,495
1765877438.7281358,495
1765877438.728141,495
1765877438.728147,496
1765877438.728152,496
1765877438.728157,497
1765877438.728163,496
1765877438.728168,496
1765877438.728174,496
1765877438.72818,497
1765877438.7281861,496
1765877438.728192,496
1765877438.7281978,496
1765877438.728204,496
1765877438.72821,496
1765877438.7282162,497
1765877438.728222,496
1765877438.728228,496
1765877438.728234,497
1765877438.72824,496
1765877438.728246,496
1765877438.728252,495
1765877438.7282581,496
1765877438.7282639,495
1765877438.72827,495
1765877438.728276,496
1765877438.7282822,496
1765877438.728288,495
1765877438.728294,496
1765877438.7283,495
1765877438.7283058,495
1765877438.728311,496
1765877438.728318,496
1765877438.7283251,495
1765877438.728332,495
1765877438.728338,495
1765877438.728344,496
1765877438.72835,495
1765877438.7283561,495
1765877438.728362,495
1765877438.728368,495
1765877438.7283819,495
1765877438.728391,495
1765877438.728398,495
1765877438.728404,495
1765877438.72841,496
1765877438.728416,495
1765877438.728422,496
1765877438.7284281,495
1765877438.7284338,496
1765877438.72844,495
1765877438.728446,495
1765877438.7284522,496
1765877438.728458,495
1765877438.728464,495
1765877438.72847,495
1765877438.7284758,495
1765877438.728482,495
1765877438.728488,495
1765877438.7284942,496
1765877438.728499,495
1765877438.7285051,495
1765877438.72851,496
1765877438.728516,495
1765877438.7285209,495
1765877438.728527,496
1765877438.728532,495
1765877438.728537,495
1765877438.728543,495
1765877438.728549,495
1765877438.728556,495
1765877438.728561,495
1765877438.728568,495
1765877438.728574,496
1765877438.72858,495
1765877438.728585,495
1765877438.7285912,495
1765877438.728598,495
1765877438.728603,495
1765877438.728609,495
1765877438.7286148,495
1765877438.72862,495
1765877438.7286248,495
1765877438.728631,495
1765877438.7286358,495
1765877438.728642,495
1765877438.728647,495
1765877438.728653,495
1765877438.728658,495
1765877438.7286642,495
1765877438.72867,495
1765877438.7286751,495
1765877438.72868,495
1765877438.728686,495
1765877438.7286909,495
1765877438.728697,495
1765877438.728702,495
1765877438.728708,495
1765877438.728713,495
1765877438.728718,495
1765877438.728724,495
1765877438.7287302,495
1765877438.728736,495
1765877438.728742,495
1765877438.728748,495
1765877438.7287529,495
1765877438.72876,495
1765877438.728766,495
1765877438.7287722,495
1765877438.728778,494
1765877438.7287838,495
1765877438.72879,495
1765877438.728796,494
1765877438.728802,495
1765877438.728808,495
1765877438.7288141,494
1765877438.72882,495
1765877438.728826,495
1765877438.728832,495
1765877438.728838,494
1765877438.728844,494
1765877438.72885,494
1765877438.728856,495
1765877438.728862,494
1765877438.728868,495
1765877438.728874,494
1765877438.7288802,495
1765877438.7288861,495
1765877438.7288918,495
1765877438.728898,495
1765877438.728904,495
1765877438.72891,495
1765877438.728916,495
1765877438.7289221,495
1765877438.728928,495
1765877438.7289338,494
1765877438.72894,495
1765877438.728946,495
1765877438.728951,495
1765877438.728957,495
1765877438.7289631,495
1765877438.7289689,495
1765877438.728975,494
1765877438.728981,495
1765877438.728988,495
1765877438.728995,495
1765877438.729002,495
1765877438.729009,495
1765877438.729015,495
1765877438.7290208,495
1765877438.729026,495
1765877438.729032,495
1765877438.729037,495
1765877438.729043,495
1765877438.729048,495
1765877438.729054,494
1765877438.729059,495
1765877438.729064,495
1765877438.7290702,495
1765877438.729075,495
1765877438.7291038,495
1765877438.730038,494
1765877438.731055,495
1765877438.732065,495
1765877438.733085,495
1765877438.734097,495
1765877438.735203,494
1765877438.736125,495
1765877438.73709,495
1765877438.738167,495
1765877438.739131,495
1765877438.74014,496
1765877438.741138,495
1765877438.742122,496
1765877438.7431118,495
1765877438.744087,495
1765877438.7451022,496
1765877438.746109,495
1765877438.747125,495
1765877438.748117,494
1765877438.749187,495
1765877438.7501812,495
1765877438.751174,495
1765877438.752189,495
1765877438.7531269,495
1765877438.75413,495
1765877438.755143,496
1765877438.756129,496
1765877438.757204,495
1765877438.758183,495
1765877438.7591538,495
1765877438.76019,495
1765877438.761193,495
1765877438.762188,495
1765877438.763171,495
1765877438.764183,495
1765877438.765174,495
1765877438.766189,495
1765877438.767176,496
1765877438.768239,495
1765877438.7691782,495
1765877438.7701812,495
1765877438.771185,495
1765877438.77221,495
1765877438.773216,496
1765877438.774226,495
1765877438.7752361,495
1765877438.7762308,495
1765877438.777195,495
1765877438.7782028,494
1765877438.7792408,495
1765877438.780237,496
1765877438.7812412,495
1765877438.782258,496
1765877438.783255,495
1765877438.78426,495
1765877438.785254,496
1765877438.786228,495
1765877438.7872472,496
1765877438.788218,495
1765877438.789249,495
1765877438.7902322,496
1765877438.7912672,496
1765877438.7922828,496
1765877438.793302,495
1765877438.794247,495
1765877438.7952268,495
1765877438.796242,495
1765877438.797333,495
1765877438.7982569,496
1765877438.7992918,495
1765877438.80029,496
1765877438.8013,495
1765877438.802312,495
1765877438.8033018,495
1765877438.804275,495
1765877438.805279,495
1765877438.806311,495
1765877438.807324,495
1765877438.808289,496
1765877438.8093162,496
1765877438.810362,496
1765877438.8113549,495
1765877438.812307,495
1765877438.8133068,495
1765877438.814314,496
1765877438.815344,495
1765877438.816342,495
1765877438.81735,495
1765877438.8183308,495
1765877438.819346,495
1765877438.820369,496
1765877438.8213491,495
1765877438.822346,495
1765877438.8233469,495
1765877438.824352,496
1765877438.8253498,495
1765877438.8263402,495
1765877438.8273652,495
1765877438.828368,495
1765877438.829349,496
1765877438.8303318,495
1765877438.831348,495
1765877438.832351,496
1765877438.8333519,495
1765877438.8343449,495
1765877438.835362,495
1765877438.8363671,495
1765877438.837357,495
1765877438.838367,496
1765877438.839355,496
1765877438.840353,496
1765877438.8413599,496
1765877438.842392,495
1765877438.843405,496
1765877438.8443751,495
1765877438.845441,496
1765877438.846426,496
1765877438.8473868,496
1765877438.848383,495
1765877438.8494442,495
1765877438.850431,495
1765877438.851435,495
1765877438.852442,496
1765877438.8534038,496
1765877438.854403,497
1765877438.855386,496
1765877438.856425,496
1765877438.8573859,496
1765877438.8584058,495
1765877438.859404,496
1765877438.860398,496
1765877438.8614058,496
1765877438.8624032,496
1765877438.8634062,496
1765877438.864407,495
1765877438.865435,496
1765877438.866448,496
1765877438.867456,496
1765877438.868525,496
1765877438.869457,496
1765877438.870442,495
1765877438.871436,495
1765877438.872449,496
1765877438.8734531,496
1765877438.8744588,496
1765877438.8754811,496
1765877438.8764951,496
1765877438.877483,496
1765877438.878453,496
1765877438.879455,496
1765877438.880466,496
1765877438.881473,497
1765877438.882488,496
1765877438.883481,496
1765877438.8844879,496
1765877438.885498,496
1765877438.8864708,496
1765877438.887478,496
1765877438.8884852,497
1765877438.889499,495
1765877438.8905091,495
1765877438.891556,495
1765877438.892491,496
1765877438.8935602,496
1765877438.894496,496
1765877438.895502,496
1765877438.8965151,496
1765877438.8975072,496
1765877438.898508,496
1765877438.899523,496
1765877438.900518,496
1765877438.90153,496
1765877438.902514,496
1765877438.903509,497
1765877438.904523,497
1765877438.905531,497
1765877438.906548,497
1765877438.9075499,497
1765877438.908552,496
1765877438.909562,496
1765877438.9106078,495
1765877438.911568,495
1765877438.912549,495
1765877438.913558,496
1765877438.914557,495
1765877438.915566,496
1765877438.916539,496
1765877438.917569,496
1765877438.918559,496
1765877438.9195662,496
1765877438.920578,496
1765877438.921577,496
1765877438.922569,496
1765877438.923581,496
1765877438.924594,496
1765877438.925581,496
1765877438.926579,496
1765877438.9276102,496
1765877438.928618,496
1765877438.92961,497
1765877438.930594,497
1765877438.931592,497
1765877438.932601,498
1765877438.933602,497
1765877438.9346151,497
1765877438.9356182,497
1765877438.936605,497
1765877438.937613,496
1765877438.938612,495
1765877438.9396212,496
1765877438.940622,496
1765877438.9416351,496
1765877438.9426591,497
1765877438.94366,497
1765877438.9446778,497
1765877438.945641,497
1765877438.94665,496
1765877438.947655,497
1765877438.94866,496
1765877438.9496489,497
1765877438.950658,497
1765877438.951663,497
1765877438.952666,497
1765877438.953751,497
1765877438.954727,497
1765877438.9556742,497
1765877438.956673,497
1765877438.957684,497
1765877438.9586802,496
1765877438.9596832,496
1765877438.960726,496
1765877438.961719,496
1765877438.9627001,496
1765877438.963713,496
1765877438.964809,496
1765877438.965727,496
1765877438.966739,495
1765877438.967732,496
1765877438.968717,496
1765877438.969756,496
1765877438.970747,496
1765877438.9717472,496
1765877438.9727318,496
1765877438.97373,495
1765877438.9747279,495
1765877438.975723,495
1765877438.9767199,496
1765877438.977729,496
1765877438.9787352,496
1765877438.9797602,496
1765877438.980742,496
1765877438.981746,496
1765877438.9827468,496
1765877438.983742,496
1765877438.9847438,496
1765877438.9857569,496
1765877438.9867609,496
1765877438.9877849,496
1765877438.988791,495
1765877438.989755,496
1765877438.990758,497
1765877438.991772,496
1765877438.992786,496
1765877438.993776,496
1765877438.994805,496
1765877438.9957938,495
1765877438.996799,496
1765877438.997796,496
1765877438.9987998,496
1765877438.999789,496
1765877439.0007958,496
1765877439.001788,496
1765877439.002816,497
1765877439.003818,497
1765877439.004809,496
1765877439.005813,496
1765877439.006803,496
1765877439.007822,496
1765877439.008826,495
1765877439.009818,496
1765877439.010817,496
1765877439.011822,497
1765877439.012835,495
1765877439.013843,496
1765877439.0148458,496
1765877439.0158951,496
1765877439.0168362,496
1765877439.0178401,496
1765877439.0188842,496
1765877439.019862,495
1765877439.020962,496
1765877439.021852,496
1765877439.022871,497
1765877439.023863,496
1765877439.024965,496
1765877439.025952,496
1765877439.0269408,496
1765877439.027946,495
1765877439.028949,495
1765877439.0299551,495
1765877439.030955,495
1765877439.031944,495
1765877439.0329611,496
1765877439.033951,495
1765877439.034955,495
1765877439.035966,496
1765877439.037002,495
1765877439.037966,496
1765877439.038945,496
1765877439.039958,496
1765877439.040939,495
1765877439.04195,496
1765877439.042937,497
1765877439.0439308,496
1765877439.0449421,496
1765877439.045953,496
1765877439.046945,497
1765877439.047939,497
1765877439.049005,497
1765877439.049951,495
1765877439.050945,496
1765877439.051949,496
1765877439.052942,495
1765877439.053948,495
1765877439.054968,495
1765877439.0559611,496
1765877439.056993,496
1765877439.0579681,495
1765877439.0589418,495
1765877439.05994,495
1765877439.0609632,495
1765877439.061985,495
1765877439.062968,495
1765877439.0639648,495
1765877439.064987,496
1765877439.065981,497
1765877439.066985,498
1765877439.0679848,498
1765877439.0689769,498
1765877439.0699918,498
1765877439.0709949,500
1765877439.072001,500
1765877439.073014,499
1765877439.074008,498
1765877439.07503,499
1765877439.0760388,498
1765877439.077047,496
1765877439.078057,493
1765877439.07906,494
1765877439.0800588,494
1765877439.0810602,494
1765877439.082057,495
1765877439.083072,495
1765877439.0840561,494
1765877439.0850282,494
1765877439.08603,493
1765877439.087059,494
1765877439.0880861,496
1765877439.08905,497
1765877439.090047,497
1765877439.0910459,497
1765877439.092059,501
1765877439.093044,502
1765877439.0940642,502
1765877439.0950599,501
1765877439.096079,499
1765877439.097077,498
1765877439.098079,495
1765877439.099096,490
1765877439.10007,492
1765877439.1010702,493
1765877439.102069,494
1765877439.103072,495
1765877439.104088,494
1765877439.105083,496
1765877439.106081,497
1765877439.107083,496
1765877439.108084,496
1765877439.109083,497
1765877439.110093,496
1765877439.1111,496
1765877439.112112,495
1765877439.1131089,496
1765877439.114121,498
1765877439.1151092,500
1765877439.116108,501
1765877439.117113,500
1765877439.118112,500
1765877439.1191208,498
1765877439.1201699,498
1765877439.121163,497
1765877439.12213,497
1765877439.123135,496
1765877439.124135,494
1765877439.12513,494
1765877439.126137,496
1765877439.12714,497
1765877439.128143,497
1765877439.1291468,495
1765877439.1301749,498
1765877439.1311831,504
1765877439.13217,507
1765877439.133169,507
1765877439.134186,511
1765877439.135204,516
1765877439.136182,517
1765877439.137205,509
1765877439.1381938,504
1765877439.139186,498
1765877439.1402838,494
1765877439.14121,491
1765877439.142215,489
1765877439.1432042,486
1765877439.144205,489
1765877439.145204,487
1765877439.1462212,493
1765877439.147224,497
1765877439.1482298,505
1765877439.149236,511
1765877439.1502159,511
1765877439.151217,510
1765877439.152213,507
1765877439.153226,505
1765877439.1542451,490
1765877439.155261,486
1765877439.156227,490
1765877439.1572502,489
1765877439.158221,488
1765877439.159231,490
1765877439.160256,489
1765877439.1612391,490
1765877439.162282,491
1765877439.163268,492
1765877439.164275,493
1765877439.1652741,495
1765877439.1662478,495
1765877439.167254,496
1765877439.168246,493
1765877439.169269,492
1765877439.170288,494
1765877439.171296,494
1765877439.172284,493
1765877439.173284,493
1765877439.1742852,495
1765877439.175276,495
1765877439.17628,495
1765877439.177279,497
1765877439.178316,499
1765877439.1793122,498
1765877439.180319,498
1765877439.181313,496
1765877439.182292,497
1765877439.183298,499
1765877439.184316,501
1765877439.185314,501
1765877439.186325,504
1765877439.18732,504
1765877439.1883252,501
1765877439.1893241,510
1765877439.1903172,517
1765877439.1913228,521
1765877439.192329,526
1765877439.1933289,518
1765877439.1943219,509
1765877439.1953542,485
1765877439.196351,486
1765877439.197373,492
1765877439.1983612,492
1765877439.19936,490
1765877439.2003741,489
1765877439.201377,495
1765877439.2023838,495
1765877439.203385,490
1765877439.204469,487
1765877439.205379,490
1765877439.2063959,490
1765877439.207381,490
1765877439.2083688,491
1765877439.209379,492
1765877439.210382,493
1765877439.21139,492
1765877439.2124119,494
1765877439.21339,495
1765877439.214398,493
1765877439.215446,494
1765877439.2164211,495
1765877439.217401,495
1765877439.218396,494
1765877439.2193952,494
1765877439.2203991,495
1765877439.2214139,495
1765877439.2224152,494
1765877439.223448,495
1765877439.224427,495
1765877439.225417,495
1765877439.2264059,495
1765877439.2274282,497
1765877439.228441,496
1765877439.229434,496
1765877439.230447,496
1765877439.231436,498
1765877439.232428,502
1765877439.233433,501
1765877439.234445,504
1765877439.235445,504
1765877439.236439,502
1765877439.237479,501
1765877439.238514,503
1765877439.2394738,507
1765877439.240457,508
1765877439.241484,503
1765877439.242474,492
1765877439.243489,486
1765877439.24452,490
1765877439.2455192,489
1765877439.246523,490
1765877439.247518,491
1765877439.248517,491
1765877439.249523,495
1765877439.2505012,497
1765877439.251512,500
1765877439.252508,505
1765877439.2535071,506
1765877439.254505,502
1765877439.2555351,497
1765877439.256522,496
1765877439.257526,489
1765877439.258508,487
1765877439.25952,491
1765877439.260532,491
1765877439.261518,495
1765877439.262523,495
1765877439.26353,495
1765877439.264551,495
1765877439.265547,494
1765877439.2665331,497
1765877439.267536,499
1765877439.268543,496
1765877439.2695522,498
1765877439.270556,496
1765877439.271559,496
1765877439.272567,497
1765877439.2735639,497
1765877439.274567,495
1765877439.275573,493
1765877439.2765708,493
1765877439.2775521,495
1765877439.278584,494
1765877439.2795699,493
1765877439.280599,494
1765877439.281582,496
1765877439.28258,495
1765877439.2835782,495
1765877439.284587,495
1765877439.285611,495
1765877439.286628,495
1765877439.2876558,496
1765877439.28862,497
1765877439.289602,497
1765877439.290637,498
1765877439.2916229,496
1765877439.2925959,496
1765877439.2936041,498
1765877439.29461,499
1765877439.2956228,500
1765877439.2966201,498
1765877439.297628,496
1765877439.2986329,491
1765877439.299627,492
1765877439.3006349,494
1765877439.30164,495
1765877439.302649,494
1765877439.303639,494
1765877439.304651,494
1765877439.305654,496
1765877439.306643,497
1765877439.307633,498
1765877439.308662,500
1765877439.309644,501
1765877439.310643,500
1765877439.311657,496
1765877439.3126569,494
1765877439.31365,494
1765877439.314656,496
1765877439.315663,496
1765877439.3166752,495
1765877439.317676,496
1765877439.318671,494
1765877439.319687,494
1765877439.320701,495
1765877439.321696,495
1765877439.322688,495
1765877439.32368,495
1765877439.324707,495
1765877439.325699,495
1765877439.32669,494
1765877439.32774,495
1765877439.328748,496
1765877439.329726,497
1765877439.330709,499
1765877439.331727,505
1765877439.332712,509
1765877439.333709,510
1765877439.3347049,510
1765877439.3357198,499
1765877439.336732,489
1765877439.337743,485
1765877439.338749,490
1765877439.339746,491
1765877439.3407319,492
1765877439.341735,493
1765877439.342735,492
1765877439.3437471,492
1765877439.3447528,493
1765877439.345768,493
1765877439.346792,493
1765877439.347748,493
1765877439.348748,492
1765877439.3497732,493
1765877439.350765,495
1765877439.351786,496
1765877439.35275,495
1765877439.3537831,497
1765877439.354809,499
1765877439.355789,500
1765877439.3567889,505
1765877439.357785,508
1765877439.3587961,505
1765877439.35981,501
1765877439.360804,501
1765877439.3617978,497
1765877439.362787,489
1765877439.363807,486
1765877439.364811,489
1765877439.3658051,492
1765877439.3668008,493
1765877439.367798,492
1765877439.368819,492
1765877439.369878,493
1765877439.3708642,493
1765877439.37187,492
1765877439.372834,493
1765877439.373853,496
1765877439.37484,496
1765877439.375828,496
1765877439.376818,495
1765877439.3778172,494
1765877439.3788512,493
1765877439.379829,495
1765877439.380836,494
1765877439.381849,494
1765877439.3828428,494
1765877439.3838441,495
1765877439.384856,495
1765877439.385848,495
1765877439.386859,495
1765877439.387879,494
1765877439.388951,494
1765877439.3899362,494
1765877439.390941,494
1765877439.391944,493
1765877439.3929338,494
1765877439.393949,494
1765877439.394955,495
1765877439.395948,495
1765877439.396945,495
1765877439.3979478,495
1765877439.3989382,495
1765877439.399945,496
1765877439.400959,497
1765877439.401956,497
1765877439.402941,495
1765877439.403983,494
1765877439.40498,492
1765877439.405976,496
1765877439.406965,498
1765877439.407973,498
1765877439.408968,497
1765877439.4099798,500
1765877439.410988,496
1765877439.411983,491
1765877439.412976,494
1765877439.4139771,498
1765877439.4149828,499
1765877439.41598,499
1765877439.416963,499
1765877439.417987,497
1765877439.4189818,493
1765877439.420321,491
1765877439.420995,493
1765877439.421979,494
1765877439.422962,496
1765877439.423983,494
1765877439.4249759,494
1765877439.425969,492
1765877439.4269671,492
1765877439.427965,493
1765877439.429003,495
1765877439.4299798,495
1765877439.430971,494
1765877439.432009,494
1765877439.4330182,495
1765877439.434011,494
1765877439.435018,495
1765877439.4360378,495
1765877439.437035,495
1765877439.4380171,495
1765877439.439018,494
1765877439.440028,494
1765877439.4410272,495
1765877439.442044,494
1765877439.4430459,495
1765877439.444119,495
1765877439.445081,495
1765877439.446058,495
1765877439.447066,495
1765877439.448054,494
1765877439.449041,495
1765877439.45004,495
1765877439.451046,495
1765877439.452053,495
1765877439.453214,495
1765877439.4540749,495
1765877439.455065,495
1765877439.4560452,495
1765877439.4570408,496
1765877439.4580429,494
1765877439.459049,495
1765877439.4600441,497
1765877439.461056,500
1765877439.462063,505
1765877439.463073,508
1765877439.4640682,510
1765877439.465059,512
1765877439.466063,510
1765877439.467078,506
1765877439.468062,500
1765877439.469074,492
1765877439.470068,490
1765877439.471092,489
1765877439.472078,494
1765877439.473099,497
1765877439.474098,496
1765877439.4750988,491
1765877439.4760919,489
1765877439.477081,488
1765877439.478102,491
1765877439.479109,491
1765877439.4801128,491
1765877439.481122,492
1765877439.4821088,492
1765877439.4831161,494
1765877439.48411,494
1765877439.485125,494
1765877439.486123,494
1765877439.4871418,494
1765877439.488128,494
1765877439.489126,494
1765877439.4901319,495
1765877439.491148,495
1765877439.492139,496
1765877439.493145,496
1765877439.4941518,495
1765877439.4951591,495
1765877439.496153,494
1765877439.497157,493
1765877439.498146,495
1765877439.4991622,495
1765877439.500167,495
1765877439.501156,495
1765877439.5021608,496
1765877439.5031838,495
1765877439.504194,495
1765877439.505186,495
1765877439.506179,495
1765877439.507175,495
1765877439.508178,495
1765877439.5091999,495
1765877439.510198,495
1765877439.511188,494
1765877439.512192,495
1765877439.513217,494
1765877439.51421,495
1765877439.515213,495
1765877439.516223,495
1765877439.517202,495
1765877439.518212,495
1765877439.5192199,494
1765877439.5202339,495
1765877439.521235,495
1765877439.5222342,494
1765877439.523235,495
1765877439.524251,496
1765877439.5252259,498
1765877439.52623,500
1765877439.527244,505
1765877439.528244,504
1765877439.5292459,504
1765877439.530258,502
1765877439.5312471,496
1765877439.532274,484
1765877439.533279,491
1765877439.534288,493
1765877439.535296,493
1765877439.536476,494
1765877439.5374122,494
1765877439.538332,495
1765877439.5393338,495
1765877439.540312,495
1765877439.5413,493
1765877439.542312,495
1765877439.543297,495
1765877439.54431,495
1765877439.5453172,496
1765877439.546303,497
1765877439.547341,495
1765877439.5483048,494
1765877439.549314,493
1765877439.5503302,493
1765877439.551409,494
1765877439.552341,494
1765877439.553356,495
1765877439.5543418,495
1765877439.5553331,494
1765877439.556322,494
1765877439.557308,497
1765877439.558326,500
1765877439.559329,500
1765877439.560331,500
1765877439.5613408,501
1765877439.562345,492
1765877439.563358,491
1765877439.5643399,493
1765877439.565342,495
1765877439.566338,497
1765877439.567338,499
1765877439.568344,499
1765877439.569345,501
1765877439.570386,499
1765877439.5713952,497
1765877439.5723572,495
1765877439.573356,495
1765877439.574377,498
1765877439.575383,497
1765877439.576371,495
1765877439.5773911,494
1765877439.578458,493
1765877439.579419,493
1765877439.58041,492
1765877439.581423,491
1765877439.582417,493
1765877439.583404,493
1765877439.584385,494
1765877439.585404,494
1765877439.586393,494
1765877439.5874088,493
1765877439.588413,495
1765877439.58942,495
1765877439.590417,495
1765877439.5914052,495
1765877439.5924249,495
1765877439.5934331,494
1765877439.594433,496
1765877439.59543,496
1765877439.596444,495
1765877439.597436,494
1765877439.5984352,495
1765877439.5994391,496
1765877439.6004522,496
1765877439.60144,495
1765877439.602459,495
1765877439.603467,494
1765877439.604458,495
1765877439.6054559,496
1765877439.6064608,495
1765877439.60749,495
1765877439.608484,496
1765877439.609473,497
1765877439.610484,497
1765877439.611496,498
1765877439.6125078,498
1765877439.613489,499
1765877439.614495,497
1765877439.61555,497
1765877439.616502,492
1765877439.617494,492
1765877439.618516,495
1765877439.619547,494
1765877439.6206021,495
1765877439.621614,494
1765877439.6225438,495
1765877439.623538,495
1765877439.624511,497
1765877439.625522,498
1765877439.626532,498
1765877439.6275158,496
1765877439.628553,492
1765877439.629555,495
1765877439.630541,494
1765877439.631555,494
1765877439.632555,494
1765877439.633538,494
1765877439.634534,494
1765877439.635536,496
1765877439.636544,495
1765877439.637553,494
1765877439.638561,495
1765877439.639578,494
1765877439.640557,495
1765877439.641552,495
1765877439.642555,496
1765877439.64358,496
1765877439.644576,497
1765877439.645587,497
1765877439.646581,497
1765877439.6475892,496
1765877439.648582,496
1765877439.649593,495
1765877439.650592,494
1765877439.6515808,495
1765877439.6525838,497
1765877439.653592,498
1765877439.654604,498
1765877439.655597,497
1765877439.656606,495
1765877439.657611,493
1765877439.658615,493
1765877439.659599,495
1765877439.66063,496
1765877439.6617322,495
1765877439.662691,495
1765877439.663666,494
1765877439.664622,495
1765877439.6656508,495
1765877439.666662,497
1765877439.667657,499
1765877439.66867,499
1765877439.669667,501
1765877439.67067,501
1765877439.671672,499
1765877439.672673,499
1765877439.673662,500
1765877439.6747048,497
1765877439.6756961,499
1765877439.6766798,499
1765877439.677684,496
1765877439.6787012,492
1765877439.679689,492
1765877439.680674,492
1765877439.681675,494
1765877439.682681,495
1765877439.68369,493
1765877439.684693,495
1765877439.685705,495
1765877439.6867058,494
1765877439.687741,495
1765877439.688697,494
1765877439.689724,495
1765877439.6907158,495
1765877439.691721,495
1765877439.692734,495
