timestamp,emg_value
1765877453.822509,495
1765877453.822558,494
1765877453.822576,495
1765877453.822593,494
1765877453.822612,493
1765877453.822627,494
1765877453.8226418,494
1765877453.822656,494
1765877453.822669,495
1765877453.8226812,494
1765877453.822696,495
1765877453.822708,496
1765877453.822721,495
1765877453.82274,495
1765877453.822755,495
1765877453.8227682,494
1765877453.822782,496
1765877453.8228009,496
1765877453.822814,498
1765877453.822826,498
1765877453.8228428,497
1765877453.822861,494
1765877453.8228748,495
1765877453.822888,492
1765877453.822901,494
1765877453.822925,493
1765877453.8229408,494
1765877453.822957,495
1765877453.8229718,494
1765877453.822985,495
1765877453.822997,495
1765877453.823009,495
1765877453.82302,497
1765877453.823037,497
1765877453.823049,494
1765877453.82306,496
1765877453.8230772,498
1765877453.823092,500
1765877453.823105,498
1765877453.823116,494
1765877453.823128,493
1765877453.823151,492
1765877453.8231628,494
1765877453.8231769,495
1765877453.823191,495
1765877453.8232052,494
1765877453.823217,493
1765877453.8232288,494
1765877453.82324,493
1765877453.823252,493
1765877453.823263,495
1765877453.8232782,495
1765877453.823293,494
1765877453.823318,495
1765877453.823337,497
1765877453.8233511,499
1765877453.823363,501
1765877453.823375,501
1765877453.823387,501
1765877453.8233988,494
1765877453.823411,489
1765877453.823429,493
1765877453.8234408,493
1765877453.823453,492
1765877453.8234649,493
1765877453.823495,495
1765877453.8235142,494
1765877453.823526,493
1765877453.8235378,494
1765877453.82355,494
1765877453.823561,494
1765877453.8235729,494
1765877453.8235872,495
1765877453.823599,496
1765877453.823615,498
1765877453.82363,499
1765877453.823644,500
1765877453.8236659,497
1765877453.823681,494
1765877453.8237078,496
1765877453.823722,496
1765877453.823738,495
1765877453.8237498,497
1765877453.823776,498
1765877453.82379,495
1765877453.823802,493
1765877453.823814,491
1765877453.823825,491
1765877453.823837,493
1765877453.823849,493
1765877453.8238668,494
1765877453.823881,494
1765877453.8238962,494
1765877453.823909,493
1765877453.823931,494
1765877453.8239481,494
1765877453.8239622,494
1765877453.823977,494
1765877453.823988,494
1765877453.824012,495
1765877453.824032,495
1765877453.8240461,495
1765877453.82406,493
1765877453.824086,495
1765877453.8241012,495
1765877453.824127,495
1765877453.824139,495
1765877453.824157,494
1765877453.824181,493
1765877453.824233,493
1765877453.824246,496
1765877453.824258,497
1765877453.824269,498
1765877453.824281,499
1765877453.8242922,499
1765877453.824304,496
1765877453.8243148,492
1765877453.824327,494
1765877453.824343,494
1765877453.824356,493
1765877453.8243709,494
1765877453.824383,494
1765877453.824395,495
1765877453.824406,494
1765877453.824418,494
1765877453.824429,494
1765877453.8244412,494
1765877453.824457,494
1765877453.824471,494
1765877453.824492,494
1765877453.824506,495
1765877453.824518,495
1765877453.82453,495
1765877453.824546,498
1765877453.8245609,499
1765877453.824574,501
1765877453.824586,500
1765877453.824598,496
1765877453.824609,493
1765877453.824621,494
1765877453.8246322,492
1765877453.824644,494
1765877453.8246558,498
1765877453.824667,498
1765877453.824683,495
1765877453.824697,492
1765877453.824712,491
1765877453.824723,493
1765877453.824735,495
1765877453.824747,496
1765877453.824758,496
1765877453.82477,497
1765877453.824789,495
1765877453.824808,493
1765877453.824821,495
1765877453.824836,494
1765877453.824849,492
1765877453.8248608,493
1765877453.824873,495
1765877453.824884,495
1765877453.824896,495
1765877453.824914,495
1765877453.824928,496
1765877453.824943,497
1765877453.824955,497
1765877453.824967,497
1765877453.8249779,497
1765877453.82499,495
1765877453.825002,493
1765877453.825013,494
1765877453.8250299,495
1765877453.825044,496
1765877453.825057,495
1765877453.825069,494
1765877453.825081,493
1765877453.825093,494
1765877453.8251038,495
1765877453.825116,496
1765877453.825127,496
1765877453.825139,497
1765877453.825151,497
1765877453.825164,498
1765877453.825184,496
1765877453.825196,497
1765877453.825207,497
1765877453.825224,498
1765877453.825238,497
1765877453.825251,494
1765877453.825263,493
1765877453.825275,495
1765877453.8252869,496
1765877453.8252978,497
1765877453.82531,498
1765877453.825322,498
1765877453.8253329,496
1765877453.825349,496
1765877453.825363,495
1765877453.825377,495
1765877453.825391,494
1765877453.825404,495
1765877453.8254158,495
1765877453.825428,495
1765877453.82544,495
1765877453.825452,495
1765877453.825464,495
1765877453.825475,495
1765877453.8254871,494
1765877453.825508,495
1765877453.825521,495
1765877453.825533,495
1765877453.825545,495
1765877453.825557,495
1765877453.825568,496
1765877453.8255801,501
1765877453.825592,502
1765877453.8256042,504
1765877453.8256152,503
1765877453.8256269,497
1765877453.8256378,489
1765877453.82565,496
1765877453.825661,497
1765877453.8256729,496
1765877453.825685,496
1765877453.825697,494
1765877453.8257082,493
1765877453.82572,494
1765877453.825731,493
1765877453.8257432,492
1765877453.825755,493
1765877453.8257658,494
1765877453.825778,495
1765877453.825789,494
1765877453.825801,495
1765877453.825814,495
1765877453.825829,495
1765877453.8258429,496
1765877453.825854,496
1765877453.825866,496
1765877453.8258822,495
1765877453.8258948,496
1765877453.825909,494
1765877453.825922,496
1765877453.825933,496
1765877453.8259451,497
1765877453.825956,492
1765877453.825968,495
1765877453.82598,494
1765877453.825996,496
1765877453.826011,497
1765877453.826025,496
1765877453.826036,496
1765877453.826048,497
1765877453.82606,499
1765877453.826071,497
1765877453.8260832,493
1765877453.8260942,492
1765877453.826112,493
1765877453.826126,493
1765877453.826139,494
1765877453.8261518,494
1765877453.826168,495
1765877453.8261812,495
1765877453.8261929,495
1765877453.826205,494
1765877453.8262222,495
1765877453.826237,495
1765877453.826249,496
1765877453.8262668,497
1765877453.826296,497
1765877453.826315,494
1765877453.8263412,494
1765877453.826356,493
1765877453.826368,493
1765877453.82638,495
1765877453.8263922,495
1765877453.8264031,495
1765877453.826416,495
1765877453.826427,495
1765877453.826439,496
1765877453.826451,495
1765877453.826467,496
1765877453.8264809,497
1765877453.826499,496
1765877453.8265128,497
1765877453.8265269,498
1765877453.8265421,501
1765877453.826557,501
1765877453.826575,503
1765877453.826588,499
1765877453.826603,495
1765877453.826615,491
1765877453.826626,492
1765877453.826638,491
1765877453.8266492,492
1765877453.826665,493
1765877453.82668,494
1765877453.8266938,494
1765877453.826705,494
1765877453.826717,494
1765877453.8267279,494
1765877453.82674,494
1765877453.826752,494
1765877453.826763,495
1765877453.826775,494
1765877453.826786,495
1765877453.826803,495
1765877453.826818,495
1765877453.826831,495
1765877453.826842,495
1765877453.826855,494
1765877453.826866,494
1765877453.826879,495
1765877453.826894,495
1765877453.826912,494
1765877453.826926,495
1765877453.8269398,495
1765877453.826951,496
1765877453.826963,496
1765877453.8269749,499
1765877453.826991,502
1765877453.827005,502
1765877453.827019,500
1765877453.8270311,501
1765877453.827042,497
1765877453.827054,492
1765877453.827065,490
1765877453.8270772,493
1765877453.8270888,493
1765877453.827101,493
1765877453.827112,493
1765877453.8271239,494
1765877453.827141,494
1765877453.8271549,495
1765877453.827168,494
1765877453.8271801,494
1765877453.827192,494
1765877453.827203,494
1765877453.827216,495
1765877453.827231,494
1765877453.827244,495
1765877453.827261,495
1765877453.827276,495
1765877453.827293,495
1765877453.827307,495
1765877453.827321,495
1765877453.8273332,495
1765877453.827345,495
1765877453.8273559,496
1765877453.827368,496
1765877453.82738,496
1765877453.8273962,496
1765877453.827411,496
1765877453.827425,495
1765877453.82744,495
1765877453.827451,496
1765877453.827463,497
1765877453.82748,497
1765877453.827494,496
1765877453.827509,493
1765877453.827523,494
1765877453.8275368,494
1765877453.827551,494
1765877453.827563,495
1765877453.827575,495
1765877453.82759,495
1765877453.827608,494
1765877453.827622,494
1765877453.82764,495
1765877453.8276532,496
1765877453.827668,496
1765877453.82768,495
1765877453.827692,495
1765877453.827704,496
1765877453.8277152,497
1765877453.827727,497
1765877453.8277388,497
1765877453.827756,496
1765877453.82777,492
1765877453.8277829,493
1765877453.827795,495
1765877453.827807,494
1765877453.827818,495
1765877453.82783,494
1765877453.8278432,495
1765877453.827858,495
1765877453.82787,495
1765877453.827882,495
1765877453.827893,496
1765877453.82791,496
1765877453.827926,496
1765877453.8279412,496
1765877453.827955,495
1765877453.827966,495
1765877453.827978,495
1765877453.827989,495
1765877453.828001,494
1765877453.828017,495
1765877453.8280299,495
1765877453.828044,495
1765877453.828057,495
1765877453.8280692,494
1765877453.828081,494
1765877453.8280928,494
1765877453.828104,494
1765877453.828116,495
1765877453.8281322,495
1765877453.828146,495
1765877453.82816,495
1765877453.828172,495
1765877453.828183,497
1765877453.828195,497
1765877453.828207,497
1765877453.828219,498
1765877453.82823,497
1765877453.8282418,497
1765877453.828255,493
1765877453.828274,493
1765877453.828287,494
1765877453.828298,493
1765877453.82831,494
1765877453.828322,495
1765877453.828334,494
1765877453.828345,496
1765877453.8283572,496
1765877453.828369,496
1765877453.828386,497
1765877453.8284009,496
1765877453.828415,496
1765877453.828429,494
1765877453.8284411,490
1765877453.8284538,492
1765877453.828467,494
1765877453.8285298,493
1765877453.8285482,494
1765877453.8285608,496
1765877453.828573,496
1765877453.828586,496
1765877453.828598,495
1765877453.82861,495
1765877453.828623,495
1765877453.828635,495
1765877453.82865,495
1765877453.828663,496
1765877453.828675,495
1765877453.8286872,495
1765877453.8286998,493
1765877453.828714,493
1765877453.828726,492
1765877453.828738,493
1765877453.828751,495
1765877453.8287628,496
1765877453.828811,498
1765877453.8288488,497
1765877453.828865,497
1765877453.8288782,497
1765877453.8288908,495
1765877453.828904,494
1765877453.8289201,494
1765877453.828932,495
1765877453.828945,495
1765877453.8289568,495
1765877453.82897,495
1765877453.828982,495
1765877453.828995,495
1765877453.8290079,496
1765877453.829032,495
1765877453.8290591,495
1765877453.829081,495
1765877453.829095,495
1765877453.829108,495
1765877453.82912,495
1765877453.829133,495
1765877453.8291452,495
1765877453.829157,495
1765877453.82917,495
1765877453.829182,495
1765877453.829194,495
1765877453.829206,495
1765877453.829219,495
1765877453.829231,495
1765877453.829244,495
1765877453.8292558,495
1765877453.829268,496
1765877453.82928,495
1765877453.829293,495
1765877453.8293061,495
1765877453.8293178,495
1765877453.829331,495
1765877453.829343,495
1765877453.829355,494
1765877453.829367,495
1765877453.8293839,494
1765877453.829396,495
1765877453.829421,495
1765877453.8294349,495
1765877453.82945,495
1765877453.829462,495
1765877453.829474,495
1765877453.8294861,495
1765877453.829505,494
1765877453.8295171,495
1765877453.82953,494
1765877453.829542,495
1765877453.8295538,495
1765877453.829622,496
1765877453.82964,496
1765877453.829653,495
1765877453.8296661,495
1765877453.829679,495
1765877453.829691,495
1765877453.8297029,494
1765877453.829731,495
1765877453.829744,495
1765877453.8297899,495
1765877453.829804,496
1765877453.829816,496
1765877453.8298292,496
1765877453.829843,495
1765877453.829855,494
1765877453.8298812,495
1765877453.829912,495
1765877453.8299289,495
1765877453.829942,495
1765877453.829955,495
1765877453.829968,495
1765877453.8299809,495
1765877453.829993,495
1765877453.8300061,494
1765877453.830019,494
1765877453.8300312,495
1765877453.830069,494
1765877453.830084,494
1765877453.830097,492
1765877453.8301098,494
1765877453.830123,494
1765877453.830137,494
1765877453.83015,496
1765877453.830163,497
1765877453.830175,497
1765877453.830189,497
1765877453.830202,497
1765877453.8302138,497
1765877453.83027,496
1765877453.830284,496
1765877453.830297,497
1765877453.8303208,496
1765877453.830334,497
1765877453.8303459,496
1765877453.830359,497
1765877453.830372,496
1765877453.830384,497
1765877453.830397,496
1765877453.830409,496
1765877453.830422,496
1765877453.830435,495
1765877453.8304472,495
1765877453.8304598,495
1765877453.830475,495
1765877453.830488,496
1765877453.8305001,495
1765877453.830512,495
1765877453.830525,495
1765877453.8305368,495
1765877453.83055,494
1765877453.830584,495
1765877453.8305979,496
1765877453.83061,495
1765877453.830623,495
1765877453.830636,495
1765877453.830648,495
1765877453.830661,495
1765877453.830685,495
1765877453.830698,495
1765877453.83073,496
1765877453.830786,495
1765877453.8307998,495
1765877453.830813,495
1765877453.830826,495
1765877453.8308392,495
1765877453.830851,495
1765877453.830864,495
1765877453.8308759,495
1765877453.830891,495
1765877453.830904,495
1765877453.8309162,495
1765877453.8309278,495
1765877453.830941,495
1765877453.830953,495
1765877453.830966,495
1765877453.830981,495
1765877453.830993,496
1765877453.831009,495
1765877453.831021,495
1765877453.831037,494
1765877453.831049,494
1765877453.831062,494
1765877453.831074,494
1765877453.831092,495
1765877453.831106,495
1765877453.831121,495
1765877453.831133,495
1765877453.831146,496
1765877453.831158,495
1765877453.83117,496
1765877453.831182,495
1765877453.8311949,495
1765877453.8312068,495
1765877453.831219,495
1765877453.8312309,495
1765877453.831243,495
1765877453.831255,495
1765877453.831268,495
1765877453.831282,495
1765877453.831294,495
1765877453.831306,495
1765877453.831319,495
1765877453.831331,495
1765877453.8313432,495
1765877453.8313549,495
1765877453.831367,495
1765877453.831379,495
1765877453.8313909,495
1765877453.831403,495
1765877453.831419,494
1765877453.831431,495
1765877453.8314428,495
1765877453.831455,495
1765877453.831468,494
1765877453.83148,494
1765877453.8314922,494
1765877453.8315039,494
1765877453.831541,495
1765877453.8315551,495
1765877453.8315678,496
1765877453.8315809,495
1765877453.8316102,495
1765877453.831624,495
1765877453.831637,495
1765877453.831649,495
1765877453.831701,495
1765877453.831715,495
1765877453.831727,495
1765877453.83174,495
1765877453.8317518,495
1765877453.831765,495
1765877453.831778,495
1765877453.83179,495
1765877453.8318028,494
1765877453.831816,495
1765877453.8318322,494
1765877453.831844,495
1765877453.831857,495
1765877453.831869,495
1765877453.831882,495
1765877453.831895,495
1765877453.831907,494
1765877453.8319201,495
1765877453.8319318,495
1765877453.831944,495
1765877453.831957,494
1765877453.831969,494
1765877453.8319821,495
1765877453.831994,495
1765877453.832006,495
1765877453.8320189,495
1765877453.832031,496
1765877453.8320441,496
1765877453.832056,496
1765877453.8320682,496
1765877453.8320808,495
1765877453.832093,495
1765877453.8321059,495
1765877453.832119,495
1765877453.832135,495
1765877453.8321931,495
1765877453.832221,495
1765877453.832234,495
1765877453.832246,494
1765877453.8322592,495
1765877453.8322718,495
1765877453.832284,495
1765877453.8322968,495
1765877453.832309,495
1765877453.8323221,495
1765877453.832334,495
1765877453.832347,495
1765877453.8323588,495
1765877453.832372,495
1765877453.832385,494
1765877453.832397,496
1765877453.83241,496
1765877453.8324218,495
1765877453.832435,494
1765877453.832447,494
1765877453.83246,494
1765877453.832472,495
1765877453.8324852,495
1765877453.832497,496
1765877453.83251,495
1765877453.832522,495
1765877453.8325498,496
1765877453.832594,495
1765877453.832609,495
1765877453.832622,494
1765877453.832635,495
1765877453.8326468,495
1765877453.83266,495
1765877453.832673,496
1765877453.8326862,495
1765877453.832698,495
1765877453.832711,494
1765877453.8327239,495
1765877453.832737,495
1765877453.8327491,495
1765877453.832762,495
1765877453.832774,496
1765877453.832787,495
1765877453.8328,495
1765877453.832812,495
1765877453.8328252,495
1765877453.8328378,494
1765877453.83285,495
1765877453.832863,495
1765877453.832875,495
1765877453.8328881,496
1765877453.8329,495
1765877453.8329852,495
1765877453.833014,495
1765877453.833039,495
1765877453.833051,495
1765877453.8330638,495
1765877453.833083,495
1765877453.833096,495
1765877453.833108,495
1765877453.833121,496
1765877453.833133,495
1765877453.833146,495
1765877453.833164,495
1765877453.8332632,495
1765877453.8333151,495
1765877453.833332,496
1765877453.833348,495
1765877453.833364,494
1765877453.83338,495
1765877453.833396,494
1765877453.8334122,494
1765877453.833427,495
1765877453.8334432,495
1765877453.833458,495
1765877453.8334742,495
1765877453.833489,495
1765877453.833505,495
1765877453.833531,495
1765877453.833554,495
1765877453.83357,496
1765877453.833586,495
1765877453.833601,495
1765877453.833617,495
1765877453.833633,495
1765877453.8336482,495
1765877453.833663,495
1765877453.833684,495
1765877453.8337002,495
1765877453.833716,496
1765877453.8337312,495
1765877453.833747,495
1765877453.8337631,496
1765877453.833778,496
1765877453.833794,496
1765877453.833809,495
1765877453.833825,494
1765877453.8338408,495
1765877453.833874,495
1765877453.8339021,495
1765877453.8339179,495
1765877453.833933,495
1765877453.8339489,494
1765877453.833966,495
1765877453.833982,495
1765877453.8340008,495
1765877453.8340192,495
1765877453.834034,495
1765877453.83405,495
1765877453.8341372,495
1765877453.834153,495
1765877453.8341691,495
1765877453.834186,495
1765877453.834202,496
1765877453.834218,494
1765877453.834233,495
1765877453.834249,495
1765877453.834264,495
1765877453.83428,495
1765877453.834296,496
1765877453.834311,496
1765877453.834327,495
1765877453.834342,494
1765877453.834381,494
1765877453.834396,495
1765877453.834412,495
1765877453.8344269,496
1765877453.834442,496
1765877453.8344572,495
1765877453.834473,495
1765877453.8344882,494
1765877453.834507,494
1765877453.834524,495
1765877453.834539,495
1765877453.834555,495
1765877453.83457,495
1765877453.8345852,495
1765877453.834601,495
1765877453.834616,495
1765877453.834632,495
1765877453.8346481,495
1765877453.834663,494
1765877453.834678,495
1765877453.834694,494
1765877453.834712,495
1765877453.8347268,495
1765877453.834743,495
1765877453.8347578,495
1765877453.834774,495
1765877453.834789,496
1765877453.834805,495
1765877453.8348212,495
1765877453.834836,495
1765877453.834852,495
1765877453.834868,495
1765877453.834883,495
1765877453.834899,495
1765877453.834922,495
1765877453.83494,495
1765877453.834955,496
1765877453.83497,495
1765877453.834985,495
1765877453.835001,495
1765877453.835016,495
1765877453.835032,494
1765877453.835047,494
1765877453.835062,495
1765877453.835078,495
1765877453.835093,495
1765877453.8351092,495
1765877453.835124,495
1765877453.835139,495
1765877453.835155,495
1765877453.83517,496
1765877453.8351848,495
1765877453.835201,495
1765877453.835217,495
1765877453.835232,496
1765877453.835247,495
1765877453.835262,495
1765877453.835278,495
1765877453.8352928,495
1765877453.835309,495
1765877453.8353238,496
1765877453.835348,495
1765877453.8353631,495
1765877453.835379,495
1765877453.835398,495
1765877453.835414,495
1765877453.8354292,495
1765877453.835445,495
1765877453.8354602,495
1765877453.835475,495
1765877453.8354912,495
1765877453.835506,495
1765877453.835521,496
1765877453.8355358,495
1765877453.835552,495
1765877453.835567,495
1765877453.835583,495
1765877453.835598,495
1765877453.835613,495
1765877453.835629,495
1765877453.835644,495
1765877453.83566,496
1765877453.8356748,495
1765877453.835695,495
1765877453.835711,496
1765877453.835726,496
1765877453.835742,496
1765877453.8357608,496
1765877453.835777,495
1765877453.8357918,495
1765877453.835807,496
1765877453.835822,495
1765877453.8358378,495
1765877453.835853,495
1765877453.8358688,495
1765877453.835884,495
1765877453.8358989,496
1765877453.835915,496
1765877453.83593,497
1765877453.835945,497
1765877453.835961,497
1765877453.835976,496
1765877453.835992,497
1765877453.8360069,496
1765877453.836022,497
1765877453.8360379,497
1765877453.836053,496
1765877453.8360682,496
1765877453.836084,497
1765877453.8360991,496
1765877453.836115,497
1765877453.8361301,497
1765877453.836145,498
1765877453.836169,499
1765877453.836184,498
1765877453.8362,497
1765877453.836215,495
1765877453.8362298,496
1765877453.836246,495
1765877453.836261,495
1765877453.836276,496
1765877453.836292,495
1765877453.836307,495
1765877453.836322,496
1765877453.8363378,495
1765877453.836353,495
1765877453.8363678,496
1765877453.836384,495
1765877453.836399,495
1765877453.8364139,495
1765877453.83643,496
1765877453.8364449,495
1765877453.836461,496
1765877453.8364758,496
1765877453.836491,496
1765877453.8365068,496
1765877453.836522,495
1765877453.836538,496
1765877453.8365529,496
1765877453.836573,495
1765877453.836589,496
1765877453.8366039,495
1765877453.836619,496
1765877453.8366349,495
1765877453.83665,495
1765877453.8366652,495
1765877453.836681,495
1765877453.8366961,495
1765877453.836711,495
1765877453.836726,495
1765877453.836742,496
1765877453.836757,496
1765877453.8367722,496
1765877453.836787,496
1765877453.836847,496
1765877453.836867,496
1765877453.8368828,496
1765877453.8369,496
1765877453.836916,496
1765877453.8369322,496
1765877453.836948,495
1765877453.8369632,496
1765877453.836979,496
1765877453.836994,497
1765877453.83701,496
1765877453.837031,495
1765877453.837048,496
1765877453.837064,496
1765877453.837079,496
1765877453.837095,495
1765877453.83711,496
1765877453.8371258,495
1765877453.837141,496
1765877453.837172,495
1765877453.837186,496
1765877453.8371992,496
1765877453.837215,495
1765877453.837228,495
1765877453.8372412,495
1765877453.8372538,496
1765877453.837267,496
1765877453.83728,496
1765877453.837292,496
1765877453.837306,496
1765877453.837319,495
1765877453.837331,496
1765877453.837344,496
1765877453.837357,497
1765877453.8373702,497
1765877453.8373828,496
1765877453.837396,497
1765877453.837413,495
1765877453.837427,496
1765877453.83744,496
1765877453.8374531,495
1765877453.837467,496
1765877453.8374798,495
1765877453.837493,495
1765877453.837506,495
1765877453.8375192,495
1765877453.8375318,496
1765877453.837545,496
1765877453.837558,496
1765877453.8375711,495
1765877453.8375838,496
1765877453.837597,496
1765877453.837609,496
1765877453.837622,495
1765877453.8377442,495
1765877453.837932,495
1765877453.8380318,497
1765877453.838069,497
1765877453.838083,497
1765877453.8380969,496
1765877453.83811,494
1765877453.838123,496
1765877453.838136,495
1765877453.838169,496
1765877453.838187,496
1765877453.8382,496
1765877453.8382132,496
1765877453.83833,496
1765877453.8384042,496
1765877453.838444,496
1765877453.838484,496
1765877453.838498,496
1765877453.838511,495
1765877453.8385248,495
1765877453.838538,496
1765877453.838551,495
1765877453.838573,496
1765877453.838586,496
1765877453.838599,496
1765877453.838612,496
1765877453.838625,496
1765877453.838638,495
1765877453.8391721,496
1765877453.839186,495
1765877453.839205,496
1765877453.8392189,496
1765877453.839232,496
1765877453.839245,496
1765877453.8392582,495
1765877453.8392751,496
1765877453.8392901,496
1765877453.839303,497
1765877453.839316,496
1765877453.83933,496
1765877453.839343,496
1765877453.839357,495
1765877453.83937,495
1765877453.8393831,495
1765877453.839396,495
1765877453.8394089,496
1765877453.839423,496
1765877453.839455,496
1765877453.839468,496
1765877453.839481,496
1765877453.839495,496
1765877453.839508,496
1765877453.839521,496
1765877453.839541,496
1765877453.839554,496
1765877453.8395672,496
1765877453.8395798,496
1765877453.839593,496
1765877453.839606,495
1765877453.8396192,496
1765877453.839679,496
1765877453.839703,496
1765877453.8397188,496
1765877453.839732,496
1765877453.839746,496
1765877453.839759,495
1765877453.839772,496
1765877453.8397849,495
1765877453.839798,495
1765877453.839811,495
1765877453.839824,496
1765877453.839844,496
1765877453.8398569,496
1765877453.83987,496
1765877453.839883,495
1765877453.839896,496
1765877453.839909,496
1765877453.839922,495
1765877453.839935,495
1765877453.839948,496
1765877453.839961,496
1765877453.839974,496
1765877453.839987,496
1765877453.84,495
1765877453.840013,496
1765877453.8400261,495
1765877453.840039,496
1765877453.840055,496
1765877453.840069,496
1765877453.840082,496
1765877453.840095,496
1765877453.840108,495
1765877453.840121,495
1765877453.840134,494
1765877453.840147,495
1765877453.84016,496
1765877453.8401752,496
1765877453.8401878,496
1765877453.840202,496
1765877453.840214,495
1765877453.8402271,496
1765877453.8402402,496
1765877453.8402529,495
1765877453.840265,495
1765877453.840278,495
1765877453.840291,496
1765877453.8403041,496
1765877453.840317,497
1765877453.84033,496
1765877453.840343,495
1765877453.840356,495
1765877453.840369,495
1765877453.8403819,495
1765877453.840395,495
1765877453.840414,496
1765877453.840427,495
1765877453.84044,495
1765877453.8404531,495
1765877453.840466,495
1765877453.840478,497
1765877453.840491,496
1765877453.8405042,497
1765877453.840517,496
1765877453.84053,496
1765877453.840543,496
1765877453.8405561,496
1765877453.840569,495
1765877453.840582,496
1765877453.840595,496
1765877453.840607,496
1765877453.840621,496
1765877453.840634,496
1765877453.840647,496
1765877453.840659,495
1765877453.840672,495
1765877453.8406851,495
1765877453.840698,496
1765877453.8407109,496
1765877453.840724,496
1765877453.840737,496
1765877453.840754,496
1765877453.840769,496
1765877453.8407822,496
1765877453.8407948,496
1765877453.840808,497
1765877453.84082,497
1765877453.840833,496
1765877453.840846,495
1765877453.840859,495
1765877453.840872,496
1765877453.840885,495
1765877453.840898,496
1765877453.8409111,496
1765877453.8409238,495
1765877453.840937,495
1765877453.84095,496
1765877453.8409631,496
1765877453.8409758,496
1765877453.8409889,496
1765877453.841002,495
1765877453.841015,495
1765877453.8410282,495
1765877453.8410408,496
1765877453.841054,496
1765877453.841067,496
1765877453.84108,495
1765877453.841096,495
1765877453.841111,496
1765877453.841124,495
1765877453.841137,496
1765877453.84115,496
1765877453.841163,495
1765877453.841176,495
1765877453.8411891,495
1765877453.841202,496
1765877453.841215,496
1765877453.841228,495
1765877453.8412411,496
1765877453.841254,495
1765877453.8412669,496
1765877453.84128,495
1765877453.841293,496
1765877453.8413062,496
1765877453.8413188,495
1765877453.841332,496
1765877453.841345,496
1765877453.8413582,496
1765877453.841372,496
1765877453.841384,496
1765877453.841397,496
1765877453.8414102,496
1765877453.841423,496
1765877453.841436,495
1765877453.841454,496
1765877453.8414679,496
1765877453.84148,496
1765877453.841493,496
1765877453.841506,495
1765877453.841519,496
1765877453.841532,496
1765877453.8415449,496
1765877453.841557,496
1765877453.8415701,496
1765877453.841583,496
1765877453.841596,496
1765877453.841609,495
1765877453.841622,494
1765877453.841635,495
1765877453.841648,495
1765877453.841661,495
1765877453.841674,496
1765877453.841687,496
1765877453.8417,496
1765877453.841713,495
1765877453.8417249,496
1765877453.841738,495
1765877453.841752,495
1765877453.8417652,495
1765877453.8417768,495
1765877453.841794,496
1765877453.8418071,496
1765877453.84182,496
1765877453.8418329,496
1765877453.841846,495
1765877453.841859,495
1765877453.841872,495
1765877453.8418849,495
1765877453.841898,496
1765877453.841911,496
1765877453.841923,496
1765877453.8419359,496
1765877453.841949,496
1765877453.841962,496
1765877453.8419762,496
1765877453.841989,496
1765877453.842001,496
1765877453.8420138,497
1765877453.842027,497
1765877453.842039,496
1765877453.842052,496
1765877453.8420658,495
1765877453.842079,495
1765877453.842092,496
1765877453.8421052,497
1765877453.8421178,496
1765877453.842134,497
1765877453.842149,497
1765877453.842162,497
1765877453.842174,496
1765877453.842187,496
1765877453.8422,497
1765877453.8422132,497
1765877453.842226,497
1765877453.842239,498
1765877453.842252,498
1765877453.8422651,498
1765877453.842278,497
1765877453.8422909,497
1765877453.842304,497
1765877453.8423162,498
1765877453.842329,496
1765877453.842342,496
1765877453.842355,496
1765877453.842368,496
1765877453.842381,496
1765877453.842394,496
1765877453.842407,496
1765877453.8424199,496
1765877453.842433,496
1765877453.842446,495
1765877453.842458,496
1765877453.842474,496
1765877453.842499,496
1765877453.842562,496
1765877453.8425758,496
1765877453.842589,496
1765877453.842601,497
1765877453.842614,497
1765877453.842627,496
1765877453.84264,496
1765877453.842653,497
1765877453.842666,496
1765877453.842678,496
1765877453.8426912,495
1765877453.842703,495
1765877453.842716,496
1765877453.8427289,496
1765877453.842742,496
1765877453.842755,496
1765877453.842768,496
1765877453.8427808,496
1765877453.842793,497
1765877453.842806,497
1765877453.842819,497
1765877453.8428319,498
1765877453.842845,498
1765877453.842857,498
1765877453.842877,497
1765877453.84289,498
1765877453.8429031,497
1765877453.842916,497
1765877453.842929,497
1765877453.8429592,495
1765877453.8429718,494
1765877453.842985,495
1765877453.842998,495
1765877453.8430111,495
1765877453.8430238,495
1765877453.843037,495
1765877453.843049,495
1765877453.843062,495
1765877453.843075,495
1765877453.843088,495
1765877453.843101,496
1765877453.843114,495
1765877453.843127,494
1765877453.8431401,494
1765877453.843153,495
1765877453.8431659,495
1765877453.8431768,496
1765877453.843188,496
1765877453.843199,496
1765877453.84321,496
1765877453.843224,496
1765877453.8432372,496
1765877453.8432481,495
1765877453.8432589,495
1765877453.8432698,496
1765877453.8432808,496
1765877453.843292,496
1765877453.843303,496
1765877453.843314,495
1765877453.843325,495
1765877453.8433359,496
1765877453.8433468,496
1765877453.843358,496
1765877453.84337,495
1765877453.843381,496
1765877453.843392,496
1765877453.843403,497
1765877453.843414,497
1765877453.843425,496
1765877453.843436,496
1765877453.843447,496
1765877453.843458,496
1765877453.8434691,495
1765877453.84348,495
1765877453.843491,495
1765877453.843503,495
1765877453.8435142,495
1765877453.843532,494
1765877453.843543,495
1765877453.843554,496
1765877453.8435662,495
1765877453.8435771,496
1765877453.843588,497
1765877453.843599,496
1765877453.84361,495
1765877453.843621,495
1765877453.8436322,495
1765877453.843643,495
1765877453.843654,495
1765877453.8436658,495
1765877453.843677,495
1765877453.843688,495
1765877453.843699,495
1765877453.843711,495
1765877453.8437219,496
1765877453.843733,496
1765877453.843744,496
1765877453.843755,495
1765877453.843767,496
1765877453.8437781,496
1765877453.843789,495
1765877453.8438,494
1765877453.843811,494
1765877453.8438349,495
1765877453.8438458,495
1765877453.8438568,495
1765877453.843869,496
1765877453.84388,496
1765877453.843891,497
1765877453.8439019,497
1765877453.843914,497
1765877453.843925,497
1765877453.843936,497
1765877453.843947,497
1765877453.843959,496
1765877453.843976,495
1765877453.843987,494
1765877453.843998,494
1765877453.844009,495
1765877453.84402,496
1765877453.8440309,494
1765877453.844042,492
1765877453.844053,493
1765877453.844064,495
1765877453.844075,496
1765877453.8440871,495
1765877453.844098,495
1765877453.844109,496
1765877453.844121,497
1765877453.844138,496
1765877453.8441489,497
1765877453.84416,496
1765877453.844171,495
1765877453.844183,496
1765877453.844193,496
1765877453.8442051,496
1765877453.844216,496
1765877453.844227,497
1765877453.844238,499
1765877453.844249,497
1765877453.84426,497
1765877453.8442712,498
1765877453.8442822,496
1765877453.844293,495
1765877453.8443038,495
1765877453.8443148,494
1765877453.8443258,493
1765877453.844337,492
1765877453.844348,492
1765877453.844359,493
1765877453.84437,494
1765877453.8443809,495
1765877453.844393,496
1765877453.844404,497
1765877453.844415,496
1765877453.8444312,497
1765877453.8444421,495
1765877453.844453,495
1765877453.844464,494
1765877453.8444748,495
1765877453.844486,496
1765877453.844497,496
1765877453.844509,496
1765877453.8445199,496
1765877453.844531,496
1765877453.844542,496
1765877453.844553,495
1765877453.844564,495
1765877453.844576,496
1765877453.844587,495
1765877453.844599,495
1765877453.84461,495
1765877453.844621,497
1765877453.8446321,497
1765877453.844643,497
1765877453.844654,496
1765877453.844665,496
1765877453.8446772,496
1765877453.844688,496
1765877453.844699,496
1765877453.8447099,496
1765877453.844724,495
1765877453.844736,495
1765877453.844748,495
1765877453.844759,495
1765877453.84477,495
1765877453.8447812,496
1765877453.8447921,495
1765877453.844803,495
1765877453.844814,496
1765877453.844825,497
1765877453.844836,498
1765877453.8448472,495
1765877453.8448582,495
1765877453.8448691,495
1765877453.8448799,495
1765877453.8448918,495
1765877453.844903,495
1765877453.844914,496
1765877453.844925,495
1765877453.844936,495
1765877453.8449469,495
1765877453.844958,496
1765877453.844969,497
1765877453.84498,496
1765877453.844991,496
1765877453.845002,496
1765877453.845013,497
1765877453.8450282,497
1765877453.8450391,499
1765877453.84505,498
1765877453.845061,497
1765877453.845073,496
1765877453.845084,495
1765877453.845095,494
1765877453.845106,492
1765877453.8451169,493
1765877453.8451278,495
1765877453.845139,495
1765877453.84515,496
1765877453.845161,496
1765877453.845173,496
1765877453.845184,496
1765877453.845195,496
1765877453.845206,496
1765877453.845217,496
1765877453.845228,496
1765877453.845239,497
1765877453.8452501,496
1765877453.845262,495
1765877453.845273,497
1765877453.845284,496
1765877453.84532,495
1765877453.845334,495
1765877453.845355,495
1765877453.845366,494
1765877453.8453782,494
1765877453.8453891,495
1765877453.8454359,495
1765877453.845448,496
1765877453.845459,495
1765877453.845471,495
1765877453.8454819,495
1765877453.845493,495
1765877453.845504,495
1765877453.845516,495
1765877453.845527,495
1765877453.8455381,496
1765877453.84555,495
1765877453.845561,495
1765877453.845572,496
1765877453.845584,497
1765877453.845595,500
1765877453.8456059,500
1765877453.845629,501
1765877453.84564,502
1765877453.845651,503
1765877453.8456619,503
1765877453.845674,502
1765877453.845685,501
1765877453.8457012,496
1765877453.8457139,488
1765877453.8457248,490
1765877453.845737,492
1765877453.845748,493
1765877453.845759,493
1765877453.84577,493
1765877453.845781,493
1765877453.845792,493
1765877453.845803,493
1765877453.845814,494
1765877453.845825,495
1765877453.845836,495
1765877453.8458471,495
1765877453.845858,495
1765877453.845869,495
1765877453.84588,495
1765877453.845891,496
1765877453.845902,494
1765877453.8459132,494
1765877453.8459241,493
1765877453.845935,494
1765877453.845946,494
1765877453.845957,494
1765877453.845975,495
1765877453.8459861,495
1765877453.845999,495
1765877453.8460119,495
1765877453.846024,495
1765877453.846035,495
1765877453.846046,495
1765877453.846057,495
1765877453.846068,495
1765877453.8460789,495
1765877453.84609,495
1765877453.846101,496
1765877453.846112,495
1765877453.846123,495
1765877453.846134,495
1765877453.846145,495
1765877453.846157,495
1765877453.846168,496
1765877453.846179,496
1765877453.8461912,496
1765877453.8462012,496
1765877453.8462121,496
1765877453.8462238,496
1765877453.846236,495
1765877453.846247,495
1765877453.846258,495
1765877453.846269,495
1765877453.8462799,496
1765877453.846292,495
1765877453.846308,496
1765877453.8463202,495
1765877453.846331,496
1765877453.8463418,496
1765877453.846354,496
1765877453.846365,496
1765877453.846376,496
1765877453.846387,496
1765877453.8463979,496
1765877453.8464088,496
1765877453.84642,496
1765877453.846431,495
1765877453.846442,495
1765877453.846453,494
1765877453.846466,494
1765877453.846477,495
1765877453.846488,495
1765877453.846499,496
1765877453.8465102,496
1765877453.8465211,496
1765877453.846532,496
1765877453.846543,497
1765877453.846555,497
1765877453.846566,497
1765877453.846577,497
1765877453.846588,498
1765877453.846604,497
1765877453.846617,497
1765877453.8466282,496
1765877453.84664,496
1765877453.8466508,497
1765877453.8466618,497
1765877453.846673,497
1765877453.846684,497
1765877453.846696,496
1765877453.8467069,496
1765877453.8467178,496
1765877453.846729,495
1765877453.84674,496
1765877453.846751,496
1765877453.846762,496
1765877453.846773,496
1765877453.846784,497
1765877453.846795,495
1765877453.846807,496
1765877453.846818,496
1765877453.846829,496
1765877453.846841,495
1765877453.846852,495
1765877453.846863,495
1765877453.846874,496
1765877453.846886,496
1765877453.846897,496
1765877453.846913,497
1765877453.846924,496
1765877453.846936,496
1765877453.846947,497
1765877453.8469582,496
1765877453.8469691,496
1765877453.84698,496
1765877453.8469918,496
1765877453.847003,496
1765877453.847014,496
1765877453.847025,496
1765877453.8470368,496
1765877453.847048,495
1765877453.84706,496
1765877453.847071,495
1765877453.847082,496
1765877453.847093,495
1765877453.847104,495
1765877453.847116,495
1765877453.847127,495
1765877453.8471382,495
1765877453.8471491,496
1765877453.84716,496
1765877453.847171,496
1765877453.847182,496
1765877453.847187,496
1765877453.8471959,495
1765877453.8472042,496
1765877453.847212,496
1765877453.847219,497
1765877453.8472252,496
1765877453.847231,495
1765877453.8472378,495
1765877453.847245,496
1765877453.847252,495
1765877453.84726,496
1765877453.8472672,496
1765877453.847274,495
1765877453.847282,496
1765877453.847289,496
1765877453.847297,496
1765877453.8473039,495
1765877453.847311,495
1765877453.847317,496
1765877453.8473222,495
1765877453.847328,495
1765877453.8473332,495
1765877453.847338,495
1765877453.8473442,495
1765877453.847349,496
1765877453.8473542,496
1765877453.847361,496
1765877453.8473668,496
1765877453.8473752,495
1765877453.8473809,495
1765877453.8473861,495
1765877453.847391,496
1765877453.8473961,496
1765877453.847402,496
1765877453.847407,495
1765877453.8474119,495
1765877453.847418,496
1765877453.847423,495
1765877453.847428,496
1765877453.8474329,496
1765877453.847438,495
1765877453.847444,496
1765877453.847449,496
1765877453.847454,495
1765877453.847459,495
1765877453.8474638,495
1765877453.84747,495
1765877453.847475,496
1765877453.84748,496
1765877453.8474848,495
1765877453.84749,496
1765877453.847496,495
1765877453.847501,495
1765877453.8475058,496
1765877453.8475142,495
1765877453.847522,495
1765877453.847527,495
1765877453.847532,496
1765877453.8475368,495
1765877453.847543,496
1765877453.847548,496
1765877453.847553,496
1765877453.847559,496
1765877453.847564,495
1765877453.847569,495
1765877453.847574,496
1765877453.84758,496
1765877453.847585,495
1765877453.84759,496
1765877453.847595,496
1765877453.847601,495
1765877453.847606,495
1765877453.847611,496
1765877453.847617,496
1765877453.847622,496
1765877453.847627,496
1765877453.847633,496
1765877453.8476381,495
1765877453.847643,496
1765877453.847649,496
1765877453.8476539,496
1765877453.847662,496
1765877453.847669,496
1765877453.8476741,496
1765877453.847679,496
1765877453.847685,496
1765877453.8476899,495
1765877453.847695,495
1765877453.847701,496
1765877453.847708,495
1765877453.847716,496
1765877453.847723,496
1765877453.84773,495
1765877453.847735,496
1765877453.847741,495
1765877453.847747,495
1765877453.847753,495
1765877453.847759,496
1765877453.847765,496
1765877453.847771,495
1765877453.847776,496
1765877453.8477812,495
1765877453.847787,496
1765877453.8477921,496
1765877453.847798,496
1765877453.847806,496
1765877453.8478131,496
1765877453.8478231,496
1765877453.847831,496
1765877453.8478389,496
1765877453.8478458,496
1765877453.847853,496
1765877453.8478599,496
1765877453.847868,496
1765877453.847876,496
1765877453.847882,496
1765877453.8478878,495
1765877453.847894,496
1765877453.8479,496
1765877453.847906,497
1765877453.847923,496
1765877453.847929,496
1765877453.847935,496
1765877453.8479402,496
1765877453.847945,496
1765877453.84795,496
1765877453.847957,496
1765877453.8479621,496
1765877453.847967,496
1765877453.8479722,496
1765877453.8479779,496
1765877453.847984,495
1765877453.847989,495
1765877453.847994,496
1765877453.848002,495
1765877453.848007,495
1765877453.8480132,496
1765877453.848019,496
1765877453.8480241,496
1765877453.848029,496
1765877453.8480341,496
1765877453.8480399,496
1765877453.848045,496
1765877453.8480499,496
1765877453.8480551,496
1765877453.84806,496
1765877453.8480651,496
1765877453.8480709,496
1765877453.848087,496
1765877453.848093,496
1765877453.848098,496
1765877453.8481028,496
1765877453.848108,495
1765877453.8481128,495
1765877453.848119,495
1765877453.8481238,496
1765877453.848129,496
1765877453.8481338,496
1765877453.84814,496
1765877453.848145,496
1765877453.84815,496
1765877453.848157,496
1765877453.848172,496
1765877453.848177,496
1765877453.848182,496
1765877453.848187,496
1765877453.848193,496
1765877453.848198,495
1765877453.848203,495
1765877453.848208,496
1765877453.848213,496
1765877453.8482182,496
1765877453.848224,496
1765877453.8482292,496
1765877453.848234,496
1765877453.8482392,496
1765877453.848244,495
1765877453.8482492,496
1765877453.848255,497
1765877453.8482602,496
1765877453.848265,496
1765877453.8482702,496
1765877453.848275,496
1765877453.84828,496
1765877453.848286,495
1765877453.8482912,495
1765877453.848296,496
1765877453.8483012,496
1765877453.848308,495
1765877453.848314,495
1765877453.84832,496
1765877453.848325,496
1765877453.848332,496
1765877453.848338,496
1765877453.848345,496
1765877453.848352,496
1765877453.8483589,495
1765877453.848366,495
1765877453.848372,495
1765877453.8483782,495
1765877453.848383,495
1765877453.8483891,495
1765877453.848395,496
1765877453.8483999,495
1765877453.848406,496
1765877453.8484118,496
1765877453.848418,496
1765877453.848423,496
1765877453.848429,496
1765877453.848435,496
1765877453.8484411,496
1765877453.848446,495
1765877453.848452,495
1765877453.8484569,495
1765877453.848462,495
1765877453.848469,495
1765877453.848475,496
1765877453.848481,496
1765877453.848486,496
1765877453.848491,496
1765877453.848497,496
1765877453.848502,496
1765877453.848507,496
1765877453.848512,496
1765877453.848518,495
1765877453.848523,496
1765877453.848528,496
1765877453.848533,496
1765877453.8485382,496
1765877453.848544,496
1765877453.8485491,496
1765877453.848554,496
1765877453.8485591,495
1765877453.848564,496
1765877453.84857,496
1765877453.8485749,495
1765877453.8485801,496
1765877453.848585,496
1765877453.848591,496
1765877453.8485959,496
1765877453.848602,496
1765877453.848613,495
1765877453.8486469,496
1765877453.848653,495
1765877453.848659,496
1765877453.848665,496
1765877453.84867,495
1765877453.8486762,496
1765877453.848682,496
1765877453.8486881,496
1765877453.848694,497
1765877453.8486998,496
1765877453.848705,495
1765877453.848711,495
1765877453.848717,495
1765877453.848723,496
1765877453.8487291,496
1765877453.848735,496
1765877453.848741,495
1765877453.848746,496
1765877453.848752,496
1765877453.848758,495
1765877453.848764,496
1765877453.8487701,496
1765877453.848775,495
1765877453.848781,495
1765877453.8487868,496
1765877453.848793,495
1765877453.8488,495
1765877453.8488069,495
1765877453.848812,496
1765877453.8488178,496
1765877453.848824,495
1765877453.84883,495
1765877453.8488362,496
1765877453.848843,496
1765877453.84885,495
1765877453.8488572,495
1765877453.848863,496
1765877453.8488698,495
1765877453.848875,496
1765877453.84888,495
1765877453.848885,496
1765877453.8488908,496
1765877453.848896,496
1765877453.848901,496
1765877453.848907,495
1765877453.8489118,495
1765877453.848917,495
1765877453.848935,495
1765877453.8489401,495
1765877453.848945,496
1765877453.848951,496
1765877453.8489559,495
1765877453.8489642,496
1765877453.84897,496
1765877453.848976,496
1765877453.848981,496
1765877453.8489861,495
1765877453.848992,496
1765877453.848997,496
1765877453.849002,495
1765877453.8490071,496
1765877453.849013,496
1765877453.849018,496
1765877453.8490229,497
1765877453.849028,496
1765877453.849034,497
1765877453.849039,497
1765877453.849044,496
1765877453.84905,497
1765877453.849055,497
1765877453.84906,497
1765877453.849066,497
1765877453.849071,496
1765877453.849076,496
1765877453.849082,496
1765877453.849087,496
1765877453.849092,496
1765877453.849098,496
1765877453.8491032,497
1765877453.849115,496
1765877453.849122,496
1765877453.8491268,496
1765877453.849133,496
1765877453.849138,496
1765877453.849143,496
1765877453.8491478,496
1765877453.849154,495
1765877453.849159,496
1765877453.849164,495
1765877453.8491688,495
1765877453.849174,495
1765877453.84918,496
1765877453.849185,496
1765877453.84919,496
1765877453.849196,496
1765877453.849201,495
1765877453.849206,496
1765877453.849211,496
1765877453.849216,496
1765877453.849222,496
1765877453.849227,495
1765877453.849232,496
1765877453.849238,496
1765877453.849243,496
1765877453.849248,496
1765877453.8492532,496
1765877453.849261,496
1765877453.849267,496
1765877453.8492749,495
1765877453.84928,496
1765877453.8492851,495
1765877453.849291,496
1765877453.8492959,496
1765877453.849301,495
1765877453.8493068,496
1765877453.849312,495
1765877453.849317,496
1765877453.849322,495
1765877453.849328,496
1765877453.849333,496
1765877453.8493388,496
1765877453.849345,496
1765877453.849351,496
1765877453.8493571,495
1765877453.8493629,495
1765877453.849369,496
1765877453.849375,496
1765877453.8493812,496
1765877453.849387,495
1765877453.849393,495
1765877453.849398,496
1765877453.8494039,496
1765877453.84941,495
1765877453.849417,495
1765877453.849424,495
1765877453.84943,495
1765877453.8494358,496
1765877453.849443,495
1765877453.849449,495
1765877453.8494542,495
1765877453.84946,496
1765877453.849466,496
1765877453.849472,496
1765877453.849478,495
1765877453.849483,495
1765877453.849489,496
1765877453.849495,495
1765877453.849501,495
1765877453.849507,496
1765877453.849513,496
1765877453.849519,495
1765877453.849524,496
1765877453.8495302,496
1765877453.849536,496
1765877453.849542,496
1765877453.849548,495
1765877453.8495538,495
1765877453.84956,496
1765877453.849565,495
1765877453.849571,495
1765877453.849579,496
1765877453.849727,496
1765877453.849733,496
1765877453.849739,496
1765877453.8497448,495
1765877453.849751,496
1765877453.849757,496
1765877453.8497632,495
1765877453.8497689,496
1765877453.8497741,496
1765877453.84978,496
1765877453.849786,495
1765877453.849791,496
1765877453.849797,495
1765877453.849803,496
1765877453.849809,495
1765877453.8498151,495
1765877453.8498209,496
1765877453.849827,495
1765877453.849833,496
1765877453.849838,495
1765877453.849844,494
1765877453.8498502,495
1765877453.849856,496
1765877453.8498611,496
1765877453.849867,496
1765877453.849874,495
1765877453.84988,495
1765877453.849885,495
1765877453.8498912,495
1765877453.849896,495
1765877453.849901,495
1765877453.849906,495
1765877453.8499122,496
1765877453.849917,496
1765877453.849922,496
1765877453.849927,496
1765877453.849932,495
1765877453.849938,495
1765877453.849943,495
1765877453.849949,496
1765877453.8499541,495
1765877453.8499599,496
1765877453.849965,496
1765877453.8499699,496
1765877453.849976,495
1765877453.8499808,496
1765877453.849986,496
1765877453.8499908,496
1765877453.849997,496
1765877453.8500018,496
1765877453.850007,494
1765877453.8500118,495
1765877453.850019,495
1765877453.850026,496
1765877453.850032,496
1765877453.850037,495
1765877453.850042,495
1765877453.8500469,495
1765877453.850053,495
1765877453.850058,496
1765877453.850063,495
1765877453.850069,496
1765877453.850074,495
1765877453.850079,496
1765877453.850084,495
1765877453.85009,495
1765877453.850095,496
1765877453.8501,496
1765877453.850106,496
1765877453.850111,496
1765877453.850116,496
1765877453.850121,496
1765877453.8501272,496
1765877453.850132,496
1765877453.850137,496
1765877453.850143,496
1765877453.8501482,496
1765877453.850153,496
1765877453.850158,496
1765877453.850165,496
1765877453.8501718,496
1765877453.850178,496
1765877453.850183,496
1765877453.850188,496
1765877453.850194,496
1765877453.850199,495
1765877453.850204,496
1765877453.850209,496
1765877453.850215,495
1765877453.85022,496
1765877453.850225,496
1765877453.85023,495
1765877453.850236,495
1765877453.850241,495
1765877453.850246,495
1765877453.850251,496
1765877453.850257,496
1765877453.850262,496
1765877453.850267,496
1765877453.850272,496
1765877453.850278,496
1765877453.850283,495
1765877453.8502882,496
1765877453.850293,496
1765877453.850299,496
1765877453.850305,496
1765877453.8503108,496
1765877453.850317,496
1765877453.850322,495
1765877453.850328,496
1765877453.850333,495
1765877453.8503392,495
1765877453.850345,495
1765877453.850351,495
1765877453.8503559,496
1765877453.850362,496
1765877453.850368,495
1765877453.850374,496
1765877453.85038,495
1765877453.850386,495
1765877453.8503911,497
1765877453.8503969,496
1765877453.850403,496
1765877453.850409,495
1765877453.850415,495
1765877453.850421,496
1765877453.850427,494
1765877453.850433,495
1765877453.8504379,495
1765877453.850444,496
1765877453.850451,496
1765877453.8504572,495
1765877453.850462,495
1765877453.8504698,495
1765877453.850477,495
1765877453.850483,496
1765877453.8504891,495
1765877453.8504949,496
1765877453.850501,495
1765877453.850506,495
1765877453.8505118,495
1765877453.850522,495
1765877453.850528,496
1765877453.850534,495
1765877453.85054,496
1765877453.850546,495
1765877453.850552,495
1765877453.850558,495
1765877453.850564,495
1765877453.85057,495
1765877453.850576,496
1765877453.8505821,496
1765877453.850587,496
1765877453.850593,495
1765877453.8505988,495
1765877453.850605,496
1765877453.850611,496
1765877453.8506172,496
1765877453.850623,496
1765877453.8506298,495
1765877453.850636,496
1765877453.850643,495
1765877453.850649,496
1765877453.850655,496
1765877453.850661,495
1765877453.850667,496
1765877453.8506722,496
1765877453.850678,495
1765877453.850684,496
1765877453.8506901,495
1765877453.8506958,495
1765877453.850702,495
1765877453.850707,495
1765877453.850713,495
1765877453.850719,496
1765877453.8507252,496
1765877453.850731,495
1765877453.8507361,495
1765877453.850742,495
1765877453.8507478,495
1765877453.850754,496
1765877453.85076,495
1765877453.8507662,495
1765877453.850771,495
1765877453.8507771,496
1765877453.8507829,495
1765877453.850791,495
1765877453.850797,495
1765877453.850803,495
1765877453.850809,495
1765877453.850815,496
1765877453.850821,495
1765877453.850827,496
1765877453.850833,496
1765877453.850838,495
1765877453.850844,496
1765877453.85085,495
1765877453.8508558,495
1765877453.850862,496
1765877453.850868,496
1765877453.8508742,496
1765877453.8508842,496
1765877453.850894,496
1765877453.850904,496
1765877453.850914,495
1765877453.850924,496
1765877453.850934,495
1765877453.850944,495
1765877453.850954,495
1765877453.8509629,495
1765877453.8509738,495
1765877453.850983,496
1765877453.850993,496
1765877453.851006,496
1765877453.851017,495
1765877453.851027,495
1765877453.851037,496
1765877453.8510468,496
1765877453.8510568,496
1765877453.8510668,495
1765877453.851077,495
1765877453.851087,496
1765877453.851097,496
1765877453.8511071,495
1765877453.8511171,496
1765877453.851126,495
1765877453.851136,496
1765877453.851146,496
1765877453.851156,496
1765877453.851166,496
1765877453.851176,496
1765877453.851186,495
1765877453.8511958,495
1765877453.8512058,495
1765877453.8512158,496
1765877453.851226,496
1765877453.851236,496
1765877453.851246,496
1765877453.8512561,495
1765877453.8512661,495
1765877453.851281,496
1765877453.851291,495
1765877453.8513012,496
1765877453.8513112,496
1765877453.85132,495
1765877453.85133,495
1765877453.85134,496
1765877453.85135,496
1765877453.85136,496
1765877453.85137,495
1765877453.8513799,495
1765877453.85139,496
1765877453.8514,496
1765877453.8514109,496
1765877453.8514209,496
1765877453.851437,496
1765877453.851447,496
1765877453.851457,496
1765877453.851467,496
1765877453.851477,496
1765877453.851487,496
1765877453.851497,496
1765877453.851507,495
1765877453.851517,495
1765877453.851527,496
1765877453.851537,496
1765877453.851552,496
1765877453.851562,496
1765877453.851572,496
1765877453.851582,497
1765877453.8515918,497
1765877453.8516018,497
1765877453.8516119,497
1765877453.8516219,497
1765877453.851632,496
1765877453.8516421,497
1765877453.8516521,497
1765877453.8516622,497
1765877453.851671,497
1765877453.851681,497
1765877453.851691,497
1765877453.851701,497
1765877453.851711,497
1765877453.851721,497
1765877453.851731,497
1765877453.8517408,496
1765877453.8517509,496
1765877453.8517601,497
1765877453.8517702,495
1765877453.8517802,496
1765877453.8517902,495
1765877453.8518,495
1765877453.851813,496
1765877453.851825,496
1765877453.8518348,496
1765877453.851845,496
1765877453.851855,496
1765877453.851865,496
1765877453.851875,496
1765877453.8518841,496
1765877453.851894,496
1765877453.851904,496
1765877453.851914,495
1765877453.851924,496
1765877453.851935,495
1765877453.851944,496
1765877453.851954,495
1765877453.851964,495
1765877453.8519738,495
1765877453.8519838,496
1765877453.851994,495
1765877453.852004,495
1765877453.852014,495
1765877453.852024,495
1765877453.852034,495
1765877453.852044,495
1765877453.852054,496
1765877453.852064,495
1765877453.852074,495
1765877453.852087,495
1765877453.852097,496
1765877453.852107,496
1765877453.8521159,496
1765877453.852127,496
1765877453.852136,495
1765877453.8521469,496
1765877453.8521569,495
1765877453.852167,495
1765877453.852176,496
1765877453.852187,495
1765877453.852198,495
1765877453.8522081,495
1765877453.8522182,495
1765877453.852229,495
1765877453.8522391,496
1765877453.8522491,496
1765877453.8522592,496
1765877453.8522692,495
1765877453.852279,495
1765877453.852289,495
1765877453.852299,496
1765877453.852309,495
1765877453.852319,496
1765877453.852329,495
1765877453.852339,495
1765877453.852351,496
1765877453.852362,496
1765877453.852372,495
1765877453.852382,495
1765877453.852392,495
1765877453.852402,495
1765877453.852412,495
1765877453.852423,495
1765877453.852433,495
1765877453.852443,495
1765877453.8524532,495
1765877453.852463,495
1765877453.852473,495
1765877453.852483,495
1765877453.852493,495
1765877453.852503,496
1765877453.852514,496
1765877453.852524,496
1765877453.852534,495
1765877453.852544,495
1765877453.852554,495
1765877453.8525639,496
1765877453.852575,496
1765877453.852585,496
1765877453.8525949,495
1765877453.8526049,495
1765877453.8526149,495
1765877453.852632,495
1765877453.852643,495
1765877453.852653,495
1765877453.852663,495
1765877453.85268,495
1765877453.85269,496
1765877453.8527,495
1765877453.8527098,495
1765877453.85272,496
1765877453.85273,495
1765877453.85274,496
1765877453.85275,495
1765877453.85276,496
1765877453.85277,495
1765877453.85278,494
1765877453.85279,494
1765877453.8528,495
1765877453.85281,495
1765877453.85282,495
1765877453.85283,496
1765877453.852839,496
1765877453.852849,495
1765877453.8528588,495
1765877453.852869,495
1765877453.852889,495
1765877453.852899,495
1765877453.852911,495
1765877453.8529222,495
1765877453.8529322,495
1765877453.852942,495
1765877453.852952,495
1765877453.852962,495
1765877453.852972,496
1765877453.852982,495
1765877453.852992,496
1765877453.8530009,495
1765877453.853011,495
1765877453.853021,495
1765877453.853031,495
1765877453.853041,495
1765877453.853051,495
1765877453.85306,495
1765877453.85307,496
1765877453.85308,495
1765877453.85309,495
1765877453.8531,495
1765877453.85311,495
1765877453.85312,495
1765877453.853129,495
1765877453.8531399,496
1765877453.853149,495
1765877453.853159,495
1765877453.853169,496
1765877453.8531818,495
1765877453.8531919,495
1765877453.8532019,495
1765877453.8532119,495
1765877453.853222,496
1765877453.8532321,495
1765877453.8532422,495
1765877453.8532522,496
1765877453.853261,496
1765877453.853271,496
1765877453.853281,495
1765877453.853291,495
1765877453.853301,495
1765877453.8533099,495
1765877453.85332,496
1765877453.85333,495
1765877453.8533409,495
1765877453.8533509,496
1765877453.853361,495
1765877453.853371,495
1765877453.8533819,496
1765877453.853392,496
1765877453.8534021,496
1765877453.8534122,495
1765877453.8534222,496
1765877453.853455,495
1765877453.8534698,495
1765877453.853481,495
1765877453.8534908,495
1765877453.853502,496
1765877453.853512,496
1765877453.8535218,496
1765877453.8535318,495
1765877453.8535419,496
1765877453.853552,496
1765877453.853562,495
1765877453.8535721,496
1765877453.8535821,495
1765877453.8535922,495
1765877453.853602,496
1765877453.853612,495
1765877453.853622,496
1765877453.853633,496
1765877453.853643,496
1765877453.853653,495
1765877453.853663,496
1765877453.853673,495
1765877453.853683,495
1765877453.853693,495
1765877453.853704,496
1765877453.853714,496
1765877453.853724,496
1765877453.85374,496
1765877453.85375,495
1765877453.853761,495
1765877453.853771,496
1765877453.853781,496
1765877453.853791,495
1765877453.8537998,496
1765877453.853811,496
1765877453.8538198,496
1765877453.8538299,496
1765877453.8538399,496
1765877453.8538501,496
1765877453.853861,496
1765877453.853872,496
1765877453.853882,496
1765877453.853892,495
1765877453.853902,496
1765877453.853912,496
1765877453.8539221,496
1765877453.8539321,496
1765877453.853942,496
1765877453.8539531,496
1765877453.853963,496
1765877453.853973,496
1765877453.853983,496
1765877453.853993,496
1765877453.854005,496
1765877453.854017,496
1765877453.854027,496
1765877453.854037,496
1765877453.854048,496
1765877453.854057,495
1765877453.854068,495
1765877453.854086,496
1765877453.854096,496
1765877453.8541062,496
1765877453.8541172,495
1765877453.8541272,496
1765877453.8541372,495
1765877453.854147,496
1765877453.854157,495
1765877453.8541682,496
1765877453.854178,496
1765877453.854188,496
1765877453.854198,496
1765877453.854208,496
1765877453.854218,496
1765877453.854228,496
1765877453.854238,496
1765877453.854248,496
1765877453.8542578,495
1765877453.8542678,496
1765877453.8542788,495
1765877453.854291,495
1765877453.854302,496
1765877453.854312,495
1765877453.854322,495
1765877453.854332,495
1765877453.854342,496
1765877453.8543518,496
1765877453.854362,496
1765877453.854372,495
1765877453.854382,495
1765877453.854392,496
1765877453.854403,496
1765877453.854413,496
1765877453.854423,496
1765877453.854433,496
1765877453.854443,495
1765877453.854453,495
1765877453.8544629,495
1765877453.8544729,495
1765877453.854483,495
1765877453.854493,495
1765877453.8545039,496
1765877453.854514,495
1765877453.854524,495
1765877453.854534,495
1765877453.854544,495
1765877453.8545558,495
1765877453.8545668,496
1765877453.8545768,496
1765877453.8545868,495
1765877453.8545978,494
1765877453.8546078,496
1765877453.854618,495
1765877453.854628,495
1765877453.854638,495
1765877453.854648,495
1765877453.8546581,496
1765877453.8546681,495
1765877453.854678,496
1765877453.854688,495
1765877453.854698,495
1765877453.854708,496
1765877453.854717,496
1765877453.854728,496
1765877453.854738,496
1765877453.8547468,496
1765877453.854757,496
1765877453.854767,496
1765877453.854777,496
1765877453.854787,495
1765877453.8547971,495
1765877453.8548071,495
1765877453.85482,496
1765877453.8548312,496
1765877453.854841,495
1765877453.854851,496
1765877453.854861,496
1765877453.854871,495
1765877453.85488,496
1765877453.854889,496
1765877453.854898,495
1765877453.8549068,495
1765877453.8549151,495
1765877453.854924,495
1765877453.854933,495
1765877453.8549418,495
1765877453.854951,495
1765877453.8549602,496
1765877453.854969,495
1765877453.854978,495
1765877453.854987,496
1765877453.854996,495
1765877453.855005,496
1765877453.8550138,495
1765877453.8550231,496
1765877453.855032,495
1765877453.855041,495
1765877453.85505,496
1765877453.855059,496
1765877453.8550699,496
1765877453.85508,495
1765877453.855089,495
1765877453.855098,495
1765877453.855107,495
1765877453.8551161,495
1765877453.855125,495
1765877453.855134,495
1765877453.8551428,496
1765877453.8551521,495
1765877453.8551612,495
1765877453.85517,495
1765877453.855179,495
1765877453.855188,495
1765877453.855197,495
1765877453.8552058,495
1765877453.855215,495
1765877453.8552241,495
1765877453.855233,496
1765877453.855241,496
1765877453.85525,496
1765877453.855259,497
1765877453.855268,496
1765877453.855277,496
1765877453.8552861,496
1765877453.855295,496
1765877453.855306,497
1765877453.855316,496
1765877453.855325,497
1765877453.855335,496
1765877453.855344,496
1765877453.855353,496
1765877453.855362,496
1765877453.855371,496
1765877453.85538,496
1765877453.8553889,495
1765877453.8553972,496
1765877453.855407,496
1765877453.855415,496
1765877453.855424,496
1765877453.855433,495
1765877453.8554418,496
1765877453.855464,495
1765877453.855474,496
1765877453.855482,495
1765877453.8554912,495
1765877453.8555,495
1765877453.855509,495
1765877453.8555179,495
1765877453.855527,495
1765877453.8555362,495
1765877453.855545,494
1765877453.855554,495
1765877453.855566,495
1765877453.855575,496
1765877453.855584,495
1765877453.855593,495
1765877453.855602,495
1765877453.8556118,495
1765877453.8556201,495
1765877453.8556318,495
1765877453.855642,495
1765877453.8556511,495
1765877453.855665,495
1765877453.855674,495
1765877453.855683,495
1765877453.855693,495
1765877453.855701,496
1765877453.85571,496
1765877453.85572,495
1765877453.8557289,495
1765877453.8557389,495
1765877453.8557482,496
1765877453.855757,496
1765877453.855766,495
1765877453.855776,495
1765877453.855785,496
1765877453.855794,495
1765877453.8558028,496
1765877453.855813,495
1765877453.8558238,496
1765877453.855833,495
1765877453.855842,496
1765877453.855851,495
1765877453.85586,494
1765877453.8558688,495
1765877453.8558779,495
1765877453.8558872,495
1765877453.855896,495
1765877453.855905,495
1765877453.8559139,495
1765877453.855923,495
1765877453.855932,495
1765877453.855941,495
1765877453.85595,495
1765877453.855959,495
1765877453.855968,495
1765877453.855978,495
1765877453.8559868,495
1765877453.855996,495
1765877453.8560052,495
1765877453.856014,495
1765877453.856023,496
1765877453.856032,495
1765877453.856041,495
1765877453.85605,495
1765877453.856063,495
1765877453.856072,496
1765877453.856081,495
1765877453.8560908,495
1765877453.8561,496
1765877453.8561091,495
1765877453.856117,495
1765877453.856126,495
1765877453.856135,495
1765877453.856144,495
1765877453.856153,496
1765877453.856162,496
1765877453.856171,495
1765877453.85618,496
1765877453.856189,496
1765877453.8561978,495
1765877453.8562071,495
1765877453.856216,495
1765877453.856225,495
1765877453.856234,496
1765877453.856243,496
1765877453.856252,495
1765877453.856261,495
1765877453.85627,495
1765877453.8562791,495
1765877453.856288,494
1765877453.856299,496
1765877453.856308,496
1765877453.856317,495
1765877453.8563259,496
1765877453.8563352,495
1765877453.856344,496
1765877453.856353,495
1765877453.8563619,495
1765877453.856371,495
1765877453.85638,495
1765877453.856389,496
1765877453.856398,495
1765877453.856407,495
1765877453.856416,495
1765877453.856425,496
1765877453.8564339,495
1765877453.856443,495
1765877453.8564532,495
1765877453.856462,495
1765877453.856471,495
1765877453.85648,495
1765877453.856489,495
1765877453.856498,495
1765877453.856506,495
1765877453.856527,496
1765877453.856535,495
1765877453.8565462,495
1765877453.856556,496
1765877453.856565,495
1765877453.856574,495
1765877453.8565829,495
1765877453.856592,495
1765877453.856601,495
1765877453.85661,495
1765877453.8566191,495
1765877453.856628,496
1765877453.856637,495
1765877453.8566458,495
1765877453.8566551,496
1765877453.8566642,496
1765877453.856673,495
1765877453.856682,495
1765877453.856691,496
1765877453.8567,495
1765877453.856709,496
1765877453.856718,496
1765877453.8567271,496
1765877453.856736,496
1765877453.856745,497
1765877453.8567538,496
1765877453.8567622,495
1765877453.856771,495
1765877453.85678,496
1765877453.856792,495
1765877453.856801,495
1765877453.856811,496
1765877453.8568199,495
1765877453.856829,496
1765877453.856838,496
1765877453.856847,496
1765877453.856856,495
1765877453.856865,495
1765877453.856874,496
1765877453.856883,495
1765877453.8568919,496
1765877453.8569012,496
1765877453.85691,495
1765877453.856918,495
1765877453.856927,495
1765877453.856936,496
1765877453.8569448,496
1765877453.856954,496
1765877453.856964,496
1765877453.8569732,496
1765877453.856982,495
1765877453.856991,496
1765877453.8569999,496
1765877453.857009,496
1765877453.857018,495
1765877453.8570292,495
1765877453.8570392,495
1765877453.857048,496
1765877453.857057,496
1765877453.857066,497
1765877453.857074,496
1765877453.8570828,496
1765877453.8570921,496
1765877453.857101,496
1765877453.85711,496
1765877453.857119,496
1765877453.857128,495
1765877453.857137,496
1765877453.857146,496
1765877453.857155,496
1765877453.857165,495
1765877453.857173,495
1765877453.857182,496
1765877453.8571908,496
1765877453.8572001,495
1765877453.8572092,495
1765877453.857218,496
1765877453.857227,496
1765877453.857236,495
1765877453.857245,495
1765877453.8572538,496
1765877453.857263,495
1765877453.857274,496
1765877453.857284,495
1765877453.8572931,495
1765877453.857302,495
1765877453.857311,496
1765877453.8573198,494
1765877453.857329,496
1765877453.8573382,495
1765877453.857347,496
1765877453.857356,496
1765877453.857364,496
1765877453.857373,496
1765877453.8573818,496
1765877453.857392,496
1765877453.8574011,496
1765877453.85741,495
1765877453.857419,495
1765877453.857428,495
1765877453.857437,496
1765877453.857446,495
1765877453.857455,495
1765877453.857464,495
1765877453.8574731,496
1765877453.857482,495
1765877453.857491,495
1765877453.8574998,495
1765877453.8575108,495
1765877453.8575208,496
1765877453.85753,495
1765877453.8575392,496
1765877453.857548,495
1765877453.857557,495
1765877453.8575659,496
1765877453.857574,496
1765877453.8575842,495
1765877453.857593,496
1765877453.8576021,495
1765877453.857611,495
1765877453.85762,495
1765877453.8576288,495
1765877453.857638,495
1765877453.8576472,495
1765877453.857656,496
1765877453.857665,495
1765877453.857674,495
1765877453.857683,495
1765877453.857693,496
1765877453.8577018,496
1765877453.8577101,495
1765877453.857719,495
1765877453.857728,495
1765877453.857737,496
1765877453.857746,496
1765877453.857758,496
1765877453.8577678,495
1765877453.8577769,496
1765877453.8577862,495
1765877453.857794,495
1765877453.857804,495
1765877453.857821,496
1765877453.8578298,495
1765877453.857839,495
1765877453.8578482,495
1765877453.857857,495
1765877453.857866,495
1765877453.8578749,495
1765877453.857884,495
1765877453.8578932,496
1765877453.857901,496
1765877453.857911,495
1765877453.85792,496
1765877453.857929,495
1765877453.8579378,495
1765877453.8579469,495
1765877453.8579562,495
1765877453.857965,495
1765877453.857974,495
1765877453.8579829,495
1765877453.857991,495
1765877453.858006,496
1765877453.858016,495
1765877453.858025,495
1765877453.858034,495
1765877453.858043,495
1765877453.858052,495
1765877453.858061,495
1765877453.8580701,495
1765877453.858079,496
1765877453.858088,495
1765877453.8580968,495
1765877453.8581061,495
1765877453.8581161,496
1765877453.858143,495
1765877453.858152,495
1765877453.858162,495
1765877453.858171,495
1765877453.85818,495
1765877453.858188,495
1765877453.858197,495
1765877453.858206,495
1765877453.8582149,496
1765877453.8582242,495
1765877453.858233,495
1765877453.858242,495
1765877453.858251,496
1765877453.858262,495
1765877453.858272,495
1765877453.858281,496
1765877453.85829,495
1765877453.858298,496
1765877453.8583071,495
1765877453.858316,495
1765877453.858325,495
1765877453.858334,496
1765877453.858343,495
1765877453.8583522,495
1765877453.858361,495
1765877453.858371,495
1765877453.85838,495
1765877453.858388,495
1765877453.858397,496
1765877453.8584058,495
1765877453.8584151,495
1765877453.858424,496
1765877453.858433,495
1765877453.858442,496
1765877453.858451,496
1765877453.85846,495
1765877453.858469,495
1765877453.858478,495
1765877453.8584871,495
1765877453.858496,495
1765877453.858508,495
1765877453.858517,496
1765877453.858526,496
1765877453.8585348,497
1765877453.858544,496
1765877453.8585532,497
1765877453.858562,496
1765877453.858571,496
1765877453.8585799,497
1765877453.858589,497
1765877453.858598,497
1765877453.858607,496
1765877453.858616,496
1765877453.858625,497
1765877453.858634,497
1765877453.858643,496
1765877453.8586519,496
1765877453.8586612,496
1765877453.85867,496
1765877453.858679,496
1765877453.858688,496
1765877453.858697,496
1765877453.858706,496
1765877453.8587148,496
1765877453.858724,496
1765877453.858733,496
1765877453.8587441,495
1765877453.8587542,496
1765877453.858763,496
1765877453.858772,496
1765877453.8587809,496
1765877453.85879,496
1765877453.8587992,496
1765877453.858808,495
1765877453.858817,496
1765877453.858826,495
1765877453.858835,496
1765877453.858845,495
1765877453.858857,496
1765877453.858866,496
1765877453.858874,496
1765877453.8588889,496
1765877453.858894,496
1765877453.8588989,496
1765877453.858905,496
1765877453.8589098,495
1765877453.858915,496
1765877453.8589199,496
1765877453.858926,496
1765877453.8589308,495
1765877453.858936,495
1765877453.858942,496
1765877453.8589492,496
1765877453.858955,496
1765877453.85896,495
1765877453.858965,495
1765877453.8589709,496
1765877453.858976,495
1765877453.8589811,495
1765877453.858987,495
1765877453.858992,495
1765877453.858997,496
1765877453.8590028,496
1765877453.859008,496
1765877453.859013,496
1765877453.859018,495
1765877453.8590238,495
1765877453.859029,495
1765877453.859034,496
1765877453.85904,496
1765877453.859045,495
1765877453.85905,495
1765877453.8590562,496
1765877453.859061,495
1765877453.859067,495
1765877453.859072,495
1765877453.8590772,495
1765877453.859082,496
1765877453.859088,496
1765877453.859097,496
1765877453.859103,496
1765877453.8591082,496
1765877453.859113,496
1765877453.8591192,496
1765877453.859124,496
1765877453.8591292,496
1765877453.859134,496
1765877453.8591402,495
1765877453.8591459,496
1765877453.8591511,496
1765877453.859156,495
1765877453.859162,495
1765877453.8591669,495
1765877453.859172,496
1765877453.859178,496
1765877453.859183,496
1765877453.859188,496
1765877453.859193,495
1765877453.859199,496
1765877453.859204,496
1765877453.859209,495
1765877453.859215,496
1765877453.85922,496
1765877453.859225,496
1765877453.85923,496
1765877453.859236,496
1765877453.859241,496
1765877453.859246,496
1765877453.859252,496
1765877453.859257,495
1765877453.859262,495
1765877453.8592682,495
1765877453.859273,496
1765877453.859278,496
1765877453.859284,495
1765877453.8592892,495
1765877453.859295,495
1765877453.8593001,496
1765877453.859305,496
1765877453.8593102,496
1765877453.8593159,495
1765877453.859321,495
1765877453.859326,496
1765877453.859332,495
1765877453.8593369,496
1765877453.859342,496
1765877453.859348,496
1765877453.859353,496
1765877453.859359,496
1765877453.859364,496
1765877453.859369,496
1765877453.859375,496
1765877453.85938,496
1765877453.859385,496
1765877453.859391,496
1765877453.859396,495
1765877453.859401,496
1765877453.8594072,496
1765877453.859412,495
1765877453.8594172,496
1765877453.859423,496
1765877453.8594282,496
1765877453.859433,496
1765877453.8594391,496
1765877453.859444,496
1765877453.8594491,496
1765877453.859454,496
1765877453.85946,496
1765877453.859465,496
1765877453.8594701,496
1765877453.8594759,496
1765877453.859481,495
1765877453.859487,496
1765877453.859492,496
1765877453.859497,495
1765877453.859503,496
1765877453.859508,496
1765877453.859513,496
1765877453.859519,496
1765877453.859524,496
1765877453.859529,496
1765877453.859534,496
1765877453.85954,495
1765877453.859545,495
1765877453.85955,495
1765877453.8595562,495
1765877453.859561,496
1765877453.859566,496
1765877453.859572,495
1765877453.8595772,496
1765877453.859582,496
1765877453.8595881,495
1765877453.859593,495
1765877453.859599,496
1765877453.859604,495
1765877453.85961,496
1765877453.859615,496
1765877453.859621,496
1765877453.859626,495
1765877453.859634,495
1765877453.859639,496
1765877453.859644,496
1765877453.859654,495
1765877453.859659,495
1765877453.859664,495
1765877453.85967,495
1765877453.859675,496
1765877453.85968,495
1765877453.859686,496
1765877453.859691,495
1765877453.8596961,495
1765877453.859702,495
1765877453.8597078,495
1765877453.859713,495
1765877453.8597178,495
1765877453.859723,495
1765877453.8597288,496
1765877453.859734,496
1765877453.85974,496
1765877453.859745,495
1765877453.8597498,495
1765877453.859756,495
1765877453.859761,496
1765877453.859767,495
1765877453.8597739,495
1765877453.85978,495
1765877453.859787,496
1765877453.859793,495
1765877453.859798,495
1765877453.859803,496
1765877453.859809,496
1765877453.859814,495
1765877453.859819,495
1765877453.859825,495
1765877453.85983,495
1765877453.859835,495
1765877453.859841,495
1765877453.8598459,495
1765877453.8598511,496
1765877453.8598568,496
1765877453.859862,495
1765877453.8598669,495
1765877453.859873,495
1765877453.8598778,496
1765877453.859883,496
1765877453.8598888,495
1765877453.859894,495
1765877453.8599,495
1765877453.859905,495
1765877453.8599098,495
1765877453.859916,496
1765877453.859921,495
1765877453.859927,495
1765877453.859932,496
1765877453.859937,495
1765877453.859943,495
1765877453.859948,496
1765877453.859953,496
1765877453.8599591,496
1765877453.859964,496
1765877453.85997,495
1765877453.8599749,495
1765877453.85998,495
1765877453.8599858,495
1765877453.859991,495
1765877453.859997,495
1765877453.860003,495
1765877453.860009,495
1765877453.8600152,495
1765877453.8600209,495
1765877453.8600268,495
1765877453.860033,495
1765877453.860039,495
1765877453.860045,494
1765877453.860051,495
1765877453.860057,495
1765877453.860063,495
1765877453.860068,495
1765877453.860074,496
1765877453.8600802,495
1765877453.860086,495
1765877453.860092,495
1765877453.8600981,496
1765877453.860685,495
1765877453.861651,495
1765877453.8626869,495
1765877453.863689,495
1765877453.864693,495
1765877453.865717,495
1765877453.866693,495
1765877453.867647,495
1765877453.8686662,495
1765877453.8699589,496
1765877453.870789,496
1765877453.871734,495
1765877453.872693,496
1765877453.873696,495
1765877453.874731,495
1765877453.875683,495
1765877453.8767202,496
1765877453.877686,495
1765877453.878674,495
1765877453.8796768,496
1765877453.880738,495
1765877453.881693,495
1765877453.882721,496
1765877453.883708,495
1765877453.8847349,495
1765877453.885729,495
1765877453.886731,495
1765877453.887754,494
1765877453.8887308,496
1765877453.8897338,495
1765877453.890728,495
1765877453.8917131,495
1765877453.892725,495
1765877453.89374,495
1765877453.8947148,495
1765877453.8957288,496
1765877453.8967319,495
1765877453.8977332,495
1765877453.898741,495
1765877453.899748,496
1765877453.900744,495
1765877453.901757,496
1765877453.902733,495
1765877453.903745,495
1765877453.904763,495
1765877453.905762,495
1765877453.906765,495
1765877453.907775,495
1765877453.9087832,496
1765877453.909772,496
1765877453.910795,495
1765877453.9118001,495
1765877453.912802,495
1765877453.9137962,495
1765877453.914787,495
1765877453.91579,495
1765877453.916797,495
1765877453.9178,495
1765877453.918803,496
1765877453.9197829,495
1765877453.9208078,495
1765877453.921809,496
1765877453.922807,496
1765877453.923815,495
1765877453.924829,495
1765877453.925828,496
1765877453.92687,495
1765877453.927808,495
1765877453.928818,496
1765877453.929821,495
1765877453.930825,496
1765877453.931818,496
1765877453.93285,495
1765877453.933856,495
1765877453.934885,495
1765877453.935861,495
1765877453.936903,495
1765877453.9378781,495
1765877453.93887,495
1765877453.939893,495
1765877453.9408698,495
1765877453.9418828,495
1765877453.9428859,496
1765877453.943903,495
1765877453.944888,496
1765877453.9458702,496
1765877453.946908,495
1765877453.947885,496
1765877453.948894,496
1765877453.949899,495
1765877453.950903,495
1765877453.951874,495
1765877453.952906,496
1765877453.9539149,496
1765877453.95491,496
1765877453.955935,495
1765877453.956904,496
1765877453.957945,495
1765877453.9589398,496
1765877453.959944,496
1765877453.9609642,496
1765877453.961938,496
1765877453.962935,496
1765877453.963966,496
1765877453.964949,496
1765877453.9659362,496
1765877453.966926,496
1765877453.9679308,496
1765877453.96893,497
1765877453.969943,497
1765877453.9709492,497
1765877453.971936,498
1765877453.972936,497
1765877453.9739451,497
1765877453.974957,497
1765877453.975979,497
1765877453.976982,497
1765877453.978184,497
1765877453.97909,497
1765877453.980059,497
1765877453.9810429,497
1765877453.982046,496
1765877453.983048,496
1765877453.9840431,496
1765877453.9850361,495
1765877453.9860349,495
1765877453.987065,496
1765877453.9880488,496
1765877453.989045,496
1765877453.9900532,496
1765877453.991063,496
1765877453.9920452,496
1765877453.993066,496
1765877453.994077,496
1765877453.995266,496
1765877453.996175,496
1765877453.997041,496
1765877453.99804,496
1765877453.999052,496
1765877454.0000472,496
1765877454.001056,496
1765877454.0020459,496
1765877454.0030441,496
1765877454.004046,496
1765877454.005041,496
1765877454.00604,495
1765877454.007048,496
1765877454.008064,496
1765877454.009063,496
1765877454.010062,496
1765877454.0110688,496
1765877454.0120618,496
1765877454.0130508,496
1765877454.014101,496
1765877454.015062,495
1765877454.016067,496
1765877454.017067,496
1765877454.0180721,496
1765877454.019063,497
1765877454.020066,497
1765877454.0210822,496
1765877454.022076,496
1765877454.023068,496
1765877454.024096,496
1765877454.0251021,496
1765877454.026077,496
1765877454.027083,496
1765877454.0281,496
1765877454.0290828,496
1765877454.030095,495
1765877454.031119,496
1765877454.032109,496
1765877454.0331268,496
1765877454.034119,496
1765877454.035159,496
1765877454.036145,496
1765877454.037199,496
1765877454.038173,496
1765877454.0391612,496
1765877454.040127,496
1765877454.041136,496
1765877454.042154,496
1765877454.043227,496
1765877454.044199,496
1765877454.045218,496
1765877454.0462441,497
1765877454.047217,497
1765877454.048231,498
1765877454.049215,499
1765877454.050165,497
1765877454.05116,497
1765877454.052203,497
1765877454.053204,496
1765877454.0542321,497
1765877454.055229,497
1765877454.056276,497
1765877454.057281,496
1765877454.058271,496
1765877454.059286,495
1765877454.0602272,495
1765877454.06125,495
1765877454.062241,495
1765877454.063264,496
1765877454.064268,496
1765877454.0652952,496
1765877454.066262,496
1765877454.067339,496
1765877454.0682619,496
1765877454.069252,496
1765877454.070279,496
1765877454.071245,497
1765877454.072254,499
1765877454.0732539,500
1765877454.07424,500
1765877454.0752692,499
1765877454.07628,499
1765877454.077274,499
1765877454.0783591,497
1765877454.079364,495
1765877454.0803149,495
1765877454.081297,496
1765877454.082276,496
1765877454.083275,495
1765877454.084262,495
1765877454.0852952,496
1765877454.0863051,495
1765877454.087292,494
1765877454.0882912,495
1765877454.089349,494
1765877454.090323,495
1765877454.0913348,496
1765877454.092319,495
1765877454.093342,495
1765877454.094322,495
1765877454.09533,496
1765877454.096336,495
1765877454.097331,495
1765877454.098335,495
1765877454.099349,495
1765877454.100353,496
1765877454.1013172,495
1765877454.102329,495
1765877454.103341,496
1765877454.1043441,496
1765877454.105338,496
1765877454.1063402,495
1765877454.107348,496
1765877454.108335,496
1765877454.1093361,496
1765877454.110345,496
1765877454.111361,495
1765877454.112391,495
1765877454.113375,495
1765877454.114371,496
1765877454.11535,496
1765877454.116361,496
1765877454.117373,496
1765877454.118403,496
1765877454.1193888,496
1765877454.120417,496
1765877454.1214342,497
1765877454.122383,496
1765877454.123381,496
1765877454.1244009,495
1765877454.12538,495
1765877454.12639,496
1765877454.12739,497
1765877454.128406,496
1765877454.1294029,496
1765877454.1304011,496
1765877454.131413,496
1765877454.132386,495
1765877454.1333919,495
1765877454.1343958,496
1765877454.135412,496
1765877454.1363971,496
1765877454.137425,495
1765877454.138418,496
1765877454.1394129,496
1765877454.140417,497
1765877454.141428,496
1765877454.142408,495
1765877454.1434171,495
1765877454.1444201,496
1765877454.145429,496
1765877454.146432,496
1765877454.147439,496
1765877454.1484292,496
1765877454.149444,496
1765877454.150443,495
1765877454.1514418,495
1765877454.1524448,495
1765877454.153443,495
1765877454.154443,496
1765877454.155467,496
1765877454.156466,497
1765877454.157472,496
1765877454.1584718,496
1765877454.159484,497
1765877454.160495,496
1765877454.1615071,496
1765877454.162518,497
1765877454.1634839,496
1765877454.164482,495
1765877454.1655009,496
1765877454.1665092,496
1765877454.167495,497
1765877454.1685178,496
1765877454.1695209,497
1765877454.170521,497
1765877454.171519,496
1765877454.172516,497
1765877454.1735291,497
1765877454.1745222,496
1765877454.17552,495
1765877454.176542,494
1765877454.177553,495
1765877454.178582,495
1765877454.179565,495
1765877454.1805382,495
1765877454.1815438,495
1765877454.182543,496
1765877454.183562,496
1765877454.184532,495
1765877454.185552,496
1765877454.1865659,496
1765877454.187563,495
1765877454.188558,496
1765877454.189586,495
1765877454.1905658,495
1765877454.1915798,495
1765877454.192555,496
1765877454.193564,496
1765877454.194579,495
1765877454.195575,495
1765877454.196575,495
1765877454.1975648,496
1765877454.198592,495
1765877454.1996002,495
1765877454.200607,496
1765877454.201598,496
1765877454.202641,496
1765877454.2036748,496
1765877454.204629,496
1765877454.2056031,496
1765877454.206602,496
1765877454.2076302,496
1765877454.208608,496
1765877454.2096078,496
1765877454.2106292,495
1765877454.211623,495
1765877454.212628,495
1765877454.21364,495
1765877454.214645,496
1765877454.215619,496
1765877454.216655,496
1765877454.2176461,496
1765877454.218663,496
1765877454.219646,496
1765877454.2206569,495
1765877454.221648,496
1765877454.222657,496
1765877454.2236428,496
1765877454.224679,496
1765877454.225655,496
1765877454.2266471,496
1765877454.227649,496
1765877454.228674,496
1765877454.2296698,495
1765877454.2306612,495
1765877454.231662,495
1765877454.2326882,496
1765877454.233688,496
1765877454.234685,496
1765877454.2356842,496
1765877454.2366898,497
1765877454.237678,497
1765877454.2386932,497
1765877454.239677,499
1765877454.2407308,501
1765877454.241709,500
1765877454.242711,500
1765877454.243724,502
1765877454.244749,503
1765877454.245764,500
1765877454.2467341,498
1765877454.247722,497
1765877454.2487218,498
1765877454.249714,497
1765877454.250747,496
1765877454.25172,494
1765877454.2527192,494
1765877454.253728,494
1765877454.2547252,495
1765877454.255754,493
1765877454.256753,493
1765877454.257756,494
1765877454.258757,495
1765877454.259778,495
1765877454.260758,498
1765877454.261748,499
1765877454.262774,500
1765877454.26377,503
1765877454.2647731,503
1765877454.265783,501
1765877454.266788,499
1765877454.267787,497
1765877454.268777,495
1765877454.269805,497
1765877454.2708008,497
1765877454.2718148,498
1765877454.27281,496
1765877454.273843,496
1765877454.274834,496
1765877454.275846,494
1765877454.2768419,491
1765877454.277838,494
1765877454.278841,493
1765877454.279807,495
1765877454.280829,496
1765877454.281845,497
1765877454.2828538,497
1765877454.2838662,495
1765877454.2848651,493
1765877454.285883,493
1765877454.287019,494
1765877454.287921,496
1765877454.2888691,498
1765877454.289889,497
1765877454.2909188,496
1765877454.291897,498
1765877454.292901,496
1765877454.29389,497
1765877454.294901,497
1765877454.295893,502
1765877454.296893,504
1765877454.297921,502
1765877454.29892,506
1765877454.299911,511
1765877454.300895,507
1765877454.301879,500
1765877454.302902,501
1765877454.303904,498
1765877454.3048892,498
1765877454.305884,499
1765877454.306894,499
1765877454.307891,501
1765877454.308928,499
1765877454.3099468,497
1765877454.3109372,497
1765877454.3119638,492
1765877454.312978,494
1765877454.313952,498
1765877454.3149161,501
1765877454.3159301,503
1765877454.316923,504
1765877454.3179169,508
1765877454.3189209,506
1765877454.319923,504
1765877454.32092,507
1765877454.321923,500
1765877454.3229408,494
1765877454.323929,489
1765877454.3249578,489
1765877454.325946,491
1765877454.326997,492
1765877454.327989,495
1765877454.3289611,497
1765877454.329986,499
1765877454.331014,502
1765877454.332048,504
1765877454.332961,506
1765877454.333961,508
1765877454.3349602,502
1765877454.33603,502
1765877454.337033,508
1765877454.3380291,506
1765877454.339089,497
1765877454.3400488,492
1765877454.341053,491
1765877454.3420649,493
1765877454.34308,494
1765877454.344074,497
1765877454.345075,501
1765877454.346071,504
1765877454.3470669,506
1765877454.348063,505
1765877454.349063,502
1765877454.350069,499
1765877454.351053,499
1765877454.352065,494
1765877454.353099,494
1765877454.354089,490
1765877454.355079,489
1765877454.3560781,490
1765877454.357076,491
1765877454.35808,492
1765877454.35907,493
1765877454.360078,494
1765877454.361063,493
1765877454.362062,494
1765877454.363055,495
1765877454.36405,495
1765877454.365066,496
1765877454.3660722,498
1765877454.3670819,499
1765877454.368084,494
1765877454.3690822,495
1765877454.3701482,500
1765877454.371182,501
1765877454.372103,499
1765877454.373108,495
1765877454.3741078,497
1765877454.37512,499
1765877454.376123,499
1765877454.377119,498
1765877454.378174,497
1765877454.3791611,499
1765877454.38015,495
1765877454.3811998,493
1765877454.382177,492
1765877454.383171,492
1765877454.3841631,494
1765877454.385134,496
1765877454.386123,497
1765877454.387106,499
1765877454.388126,500
1765877454.389153,503
1765877454.3901818,503
1765877454.39119,503
1765877454.392163,501
1765877454.39323,499
1765877454.394204,498
1765877454.3952808,497
1765877454.3961759,498
1765877454.397147,498
1765877454.398179,498
1765877454.399162,492
1765877454.400171,493
1765877454.401132,494
1765877454.4021351,494
1765877454.403143,491
1765877454.40414,494
1765877454.4051561,497
1765877454.406199,499
1765877454.4071722,500
1765877454.4081779,500
1765877454.409185,499
1765877454.410187,494
1765877454.4113128,493
1765877454.412291,495
1765877454.413244,496
1765877454.41422,498
1765877454.415206,498
1765877454.4162261,498
1765877454.41722,495
1765877454.418208,494
1765877454.4193122,493
1765877454.420235,493
1765877454.421221,495
1765877454.422209,495
1765877454.423241,498
1765877454.4242308,499
1765877454.425295,501
1765877454.426267,503
1765877454.42728,500
1765877454.428263,489
1765877454.429238,491
1765877454.430275,494
1765877454.4312901,495
1765877454.432297,496
1765877454.433281,495
1765877454.43426,495
1765877454.4352908,494
1765877454.43631,494
1765877454.437282,494
1765877454.438294,494
1765877454.439274,495
1765877454.440282,495
1765877454.441291,494
1765877454.442301,495
1765877454.443323,494
1765877454.4443252,496
1765877454.445376,495
1765877454.4610162,496
1765877454.46116,497
1765877454.4613419,496
1765877454.461356,496
1765877454.461374,495
1765877454.4614358,495
1765877454.461452,497
1765877454.4614651,499
1765877454.461477,499
1765877454.46149,499
1765877454.4615018,501
1765877454.461515,495
1765877454.461527,493
1765877454.4615538,495
1765877454.46157,496
1765877454.4615839,494
1765877454.462445,494
1765877454.463437,496
1765877454.464458,497
1765877454.4654222,498
1765877454.466381,497
1765877454.467372,497
1765877454.468422,495
1765877454.469377,492
1765877454.470363,494
1765877454.471355,496
1765877454.472367,496
1765877454.4733582,497
1765877454.474421,498
1765877454.475379,494
1765877454.476348,493
1765877454.4773529,494
1765877454.478395,495
1765877454.479351,496
1765877454.480364,497
1765877454.481363,497
1765877454.482362,498
1765877454.48336,495
1765877454.484374,496
1765877454.485373,497
1765877454.486374,496
1765877454.48738,497
1765877454.488368,500
1765877454.4893792,500
1765877454.4903948,496
1765877454.491402,496
1765877454.4923918,498
1765877454.49341,496
1765877454.494405,492
1765877454.495407,491
1765877454.496403,493
1765877454.497427,494
1765877454.49841,495
1765877454.4994109,494
1765877454.500414,494
1765877454.5014348,493
1765877454.5024261,494
1765877454.5034938,495
1765877454.5044422,494
1765877454.505429,494
1765877454.5064352,495
1765877454.5074492,496
1765877454.5084329,498
1765877454.509485,500
1765877454.510462,500
1765877454.511459,499
1765877454.512444,496
1765877454.513462,495
1765877454.5144682,494
1765877454.515465,495
1765877454.5164511,494
1765877454.5174668,494
1765877454.518454,495
1765877454.519469,496
1765877454.5204759,495
1765877454.521499,492
1765877454.522493,494
1765877454.523494,494
1765877454.524501,496
1765877454.525505,498
1765877454.526496,498
1765877454.5274932,497
1765877454.528508,500
1765877454.529505,499
1765877454.530495,494
1765877454.531507,490
1765877454.532511,492
1765877454.533525,495
1765877454.534511,496
1765877454.535512,496
1765877454.536523,495
1765877454.537536,495
1765877454.538516,494
1765877454.539519,493
1765877454.540554,492
1765877454.541543,494
1765877454.5425322,494
1765877454.543535,495
1765877454.5445771,496
1765877454.545585,495
1765877454.5466151,493
1765877454.5475688,493
1765877454.548564,494
1765877454.549557,494
1765877454.550572,494
1765877454.551589,495
1765877454.5525792,495
1765877454.553579,498
1765877454.554576,499
1765877454.555579,500
1765877454.55661,500
1765877454.557567,496
1765877454.558583,497
1765877454.559594,498
1765877454.560593,495
1765877454.561585,497
1765877454.562582,501
1765877454.563612,503
1765877454.56459,499
1765877454.565603,487
1765877454.566605,490
1765877454.567604,492
1765877454.568612,492
1765877454.569633,493
1765877454.570613,497
1765877454.571625,497
1765877454.5726101,497
1765877454.573636,496
1765877454.5746481,493
1765877454.5756679,492
1765877454.576672,493
1765877454.577662,494
1765877454.578686,494
1765877454.5797079,493
1765877454.5806909,493
1765877454.581655,493
1765877454.582669,494
1765877454.583661,494
1765877454.5846689,494
1765877454.58567,494
1765877454.586676,494
1765877454.5876858,494
1765877454.58866,494
1765877454.5896761,493
1765877454.5906932,494
1765877454.591687,496
1765877454.592681,497
1765877454.593677,499
1765877454.594687,504
1765877454.595701,502
1765877454.5967,496
1765877454.597694,494
1765877454.598701,490
1765877454.5997179,492
1765877454.6007218,494
1765877454.6017091,494
1765877454.602711,493
1765877454.603709,494
1765877454.6047108,494
1765877454.6057322,495
1765877454.606721,495
1765877454.607714,495
1765877454.60874,495
1765877454.6097379,496
1765877454.610743,496
1765877454.611742,497
1765877454.6127858,500
1765877454.613743,498
1765877454.6147351,497
1765877454.615768,497
1765877454.61675,498
1765877454.6177542,494
1765877454.618752,492
1765877454.619888,490
1765877454.620791,491
1765877454.6217542,493
1765877454.622754,494
1765877454.6237729,494
1765877454.624771,495
1765877454.625773,495
1765877454.6267872,495
1765877454.6277819,494
1765877454.6287959,494
1765877454.629803,496
1765877454.630816,496
1765877454.631815,494
1765877454.632808,493
1765877454.6337888,493
1765877454.634803,493
1765877454.635803,494
1765877454.63682,494
1765877454.637812,494
1765877454.638819,494
1765877454.6398258,494
1765877454.640846,494
1765877454.641851,495
1765877454.642865,495
1765877454.64391,497
1765877454.644907,497
1765877454.645895,495
1765877454.6468391,496
1765877454.6478431,493
1765877454.6488478,492
1765877454.649865,493
1765877454.650838,495
1765877454.65185,495
1765877454.652852,497
1765877454.65385,495
1765877454.654847,496
1765877454.6558468,497
1765877454.656843,496
1765877454.65788,494
1765877454.658877,496
1765877454.659889,498
1765877454.662029,498
1765877454.66205,497
1765877454.662905,492
1765877454.663924,491
1765877454.664916,493
1765877454.665932,493
1765877454.666941,494
1765877454.667947,495
1765877454.6689641,496
1765877454.6699252,495
1765877454.670943,492
1765877454.671982,494
1765877454.672949,494
1765877454.67396,493
1765877454.6749818,493
1765877454.675961,494
1765877454.676967,495
1765877454.6779552,494
1765877454.678974,495
1765877454.6799738,495
1765877454.680992,496
1765877454.681988,496
1765877454.6829922,496
1765877454.683979,495
1765877454.68497,501
1765877454.685961,502
1765877454.686961,504
1765877454.687967,503
1765877454.688977,504
1765877454.690002,502
1765877454.691096,499
1765877454.692,494
1765877454.693033,491
1765877454.694011,492
1765877454.695122,493
1765877454.696086,493
1765877454.697102,493
1765877454.698097,494
1765877454.6990862,496
1765877454.7000818,497
1765877454.7010822,497
1765877454.702091,500
1765877454.703083,494
1765877454.704133,493
1765877454.705083,492
1765877454.706069,493
1765877454.70708,495
1765877454.708074,497
1765877454.709077,497
1765877454.7100952,497
1765877454.7110841,497
1765877454.712144,497
1765877454.7131069,495
1765877454.7140741,495
1765877454.7150779,496
1765877454.716117,495
1765877454.717095,492
1765877454.718081,490
1765877454.7190988,493
1765877454.720085,494
1765877454.721066,494
1765877454.72205,493
1765877454.7230568,494
1765877454.724042,494
1765877454.725089,494
1765877454.726086,494
1765877454.727068,495
1765877454.728064,494
1765877454.729072,494
1765877454.7300649,495
1765877454.7310688,495
1765877454.7320662,496
1765877454.7330828,500
1765877454.73408,500
1765877454.73508,499
1765877454.736083,499
1765877454.737092,495
1765877454.738081,493
1765877454.739094,495
1765877454.740104,495
1765877454.741111,492
1765877454.7421381,492
1765877454.743145,493
1765877454.7441568,494
1765877454.745179,493
1765877454.746142,494
1765877454.747146,494
1765877454.748153,493
1765877454.74914,494
1765877454.750145,495
1765877454.751146,495
1765877454.752158,495
1765877454.753139,495
1765877454.7541308,495
1765877454.755156,494
1765877454.756144,494
1765877454.757164,494
1765877454.7581499,495
1765877454.759171,495
1765877454.7601979,495
1765877454.761156,494
1765877454.762175,494
1765877454.76319,493
1765877454.764182,493
1765877454.765162,495
1765877454.76617,495
1765877454.767211,495
1765877454.768203,495
1765877454.769227,496
1765877454.770199,495
1765877454.771206,493
1765877454.7722251,494
1765877454.7732182,497
1765877454.7742279,501
1765877454.775212,504
1765877454.776212,502
1765877454.7772129,495
1765877454.778236,487
1765877454.779308,489
1765877454.7802272,493
1765877454.7812328,492
1765877454.782208,493
1765877454.783204,495
1765877454.784231,494
1765877454.785249,494
1765877454.786245,495
1765877454.787238,494
1765877454.788255,495
1765877454.789234,496
1765877454.7902389,496
1765877454.791255,496
1765877454.792223,497
1765877454.7932858,496
1765877454.794241,495
1765877454.795237,496
1765877454.796289,498
1765877454.7972622,500
1765877454.798291,499
1765877454.799277,499
1765877454.800277,496
1765877454.801257,490
1765877454.802399,490
1765877454.803276,492
1765877454.804291,493
1765877454.805297,492
1765877454.806298,493
1765877454.807285,493
1765877454.808293,494
1765877454.8093069,495
1765877454.810291,496
1765877454.811285,499
1765877454.812292,498
1765877454.813293,495
1765877454.814295,490
1765877454.815295,492
1765877454.816309,494
1765877454.817307,494
1765877454.818316,494
1765877454.819316,496
1765877454.820339,496
1765877454.821345,495
1765877454.822339,495
