timestamp,emg_value
1765877488.935491,497
1765877488.935507,500
1765877488.93552,502
1765877488.935533,502
1765877488.9355478,498
1765877488.935561,492
1765877488.935574,495
1765877488.935586,496
1765877488.935599,496
1765877488.935612,493
1765877488.935624,493
1765877488.935637,494
1765877488.935652,495
1765877488.9356642,496
1765877488.9356759,495
1765877488.935688,496
1765877488.9357,496
1765877488.935714,496
1765877488.9357288,497
1765877488.935743,496
1765877488.935755,497
1765877488.935767,497
1765877488.935779,497
1765877488.935798,498
1765877488.9358132,495
1765877488.935833,493
1765877488.935848,495
1765877488.935861,497
1765877488.935879,499
1765877488.935893,500
1765877488.935908,499
1765877488.9359229,498
1765877488.935936,497
1765877488.93595,498
1765877488.9359622,497
1765877488.9359732,495
1765877488.9359848,492
1765877488.936,493
1765877488.9360151,494
1765877488.9360268,495
1765877488.93604,496
1765877488.936055,495
1765877488.936068,496
1765877488.936081,499
1765877488.9360929,498
1765877488.936105,497
1765877488.936116,496
1765877488.936128,495
1765877488.9361432,495
1765877488.9361558,496
1765877488.936169,498
1765877488.936183,500
1765877488.936198,499
1765877488.936213,493
1765877488.936227,493
1765877488.936239,493
1765877488.936251,494
1765877488.936262,494
1765877488.9362738,494
1765877488.936285,496
1765877488.9363022,496
1765877488.936317,496
1765877488.936329,495
1765877488.936341,495
1765877488.936356,494
1765877488.936373,495
1765877488.936387,496
1765877488.936401,496
1765877488.936415,497
1765877488.936429,497
1765877488.9364412,496
1765877488.936453,498
1765877488.9364648,498
1765877488.936478,499
1765877488.93649,497
1765877488.936502,495
1765877488.936515,495
1765877488.936534,496
1765877488.9365492,500
1765877488.9365618,501
1765877488.936574,498
1765877488.936585,499
1765877488.936597,496
1765877488.9366112,493
1765877488.936626,496
1765877488.936639,496
1765877488.936651,497
1765877488.9366632,496
1765877488.936678,495
1765877488.936693,496
1765877488.936706,498
1765877488.936718,496
1765877488.9367309,495
1765877488.936744,497
1765877488.936756,496
1765877488.936769,494
1765877488.9367812,493
1765877488.936793,494
1765877488.936806,496
1765877488.936818,496
1765877488.93683,494
1765877488.936843,494
1765877488.936855,494
1765877488.9368691,493
1765877488.936884,494
1765877488.936897,496
1765877488.936909,499
1765877488.9369211,500
1765877488.936933,501
1765877488.936949,499
1765877488.936961,492
1765877488.936973,492
1765877488.9369862,495
1765877488.936998,494
1765877488.9370098,494
1765877488.937022,494
1765877488.937034,494
1765877488.937046,495
1765877488.9370592,495
1765877488.937071,495
1765877488.9370828,495
1765877488.937095,495
1765877488.9371068,496
1765877488.937118,494
1765877488.93713,496
1765877488.9371421,495
1765877488.937154,495
1765877488.937168,496
1765877488.937183,498
1765877488.9372,500
1765877488.937214,500
1765877488.937227,501
1765877488.937239,497
1765877488.937251,491
1765877488.937263,493
1765877488.937276,496
1765877488.937291,496
1765877488.937305,497
1765877488.937325,497
1765877488.937338,495
1765877488.9373498,493
1765877488.937363,494
1765877488.937377,495
1765877488.9373891,496
1765877488.937401,497
1765877488.937414,500
1765877488.937428,500
1765877488.937441,500
1765877488.937453,496
1765877488.9374652,489
1765877488.9374778,494
1765877488.93749,497
1765877488.937502,496
1765877488.937514,497
1765877488.937526,498
1765877488.937541,495
1765877488.937553,492
1765877488.937566,492
1765877488.93758,495
1765877488.937593,498
1765877488.9376051,498
1765877488.9376168,496
1765877488.937629,497
1765877488.937641,495
1765877488.9376519,495
1765877488.937664,495
1765877488.937676,496
1765877488.937688,496
1765877488.9377,496
1765877488.937715,496
1765877488.9377291,495
1765877488.937742,496
1765877488.9377542,496
1765877488.9377658,497
1765877488.937778,497
1765877488.93779,493
1765877488.937802,498
1765877488.937814,502
1765877488.937829,504
1765877488.9378428,504
1765877488.937858,503
1765877488.937873,494
1765877488.937887,489
1765877488.937901,490
1765877488.9379141,492
1765877488.9379258,493
1765877488.937939,494
1765877488.937953,494
1765877488.937966,495
1765877488.937978,495
1765877488.93799,494
1765877488.9380019,494
1765877488.938014,494
1765877488.938025,495
1765877488.938037,496
1765877488.9380538,496
1765877488.938069,496
1765877488.9380841,494
1765877488.938096,495
1765877488.938111,493
1765877488.938123,495
1765877488.938136,495
1765877488.938148,495
1765877488.9381618,495
1765877488.938176,496
1765877488.93819,496
1765877488.9382029,495
1765877488.938217,496
1765877488.9382331,495
1765877488.9382458,495
1765877488.938259,495
1765877488.938271,495
1765877488.938284,495
1765877488.938297,495
1765877488.93831,496
1765877488.9383218,494
1765877488.938334,495
1765877488.938346,496
1765877488.938358,499
1765877488.9383721,497
1765877488.938386,498
1765877488.9384,500
1765877488.938414,499
1765877488.938427,498
1765877488.938439,497
1765877488.93853,495
1765877488.9385521,495
1765877488.9385679,496
1765877488.938584,500
1765877488.9385998,501
1765877488.938616,502
1765877488.9386308,497
1765877488.938647,492
1765877488.9386702,495
1765877488.938688,497
1765877488.938703,494
1765877488.9387178,493
1765877488.938734,493
1765877488.93875,492
1765877488.938765,494
1765877488.9387798,495
1765877488.938796,495
1765877488.938812,496
1765877488.938827,494
1765877488.9388428,496
1765877488.938858,497
1765877488.938874,496
1765877488.93889,497
1765877488.938905,496
1765877488.938921,497
1765877488.938936,497
1765877488.938952,497
1765877488.938967,496
1765877488.93899,496
1765877488.939005,495
1765877488.939021,492
1765877488.939036,494
1765877488.939052,498
1765877488.9390678,497
1765877488.9390872,495
1765877488.939105,495
1765877488.939121,497
1765877488.939136,497
1765877488.9391518,493
1765877488.939168,496
1765877488.939183,498
1765877488.939199,498
1765877488.939214,498
1765877488.93923,494
1765877488.939245,495
1765877488.939261,498
1765877488.939276,500
1765877488.939292,502
1765877488.939308,504
1765877488.939323,502
1765877488.939339,497
1765877488.9393542,490
1765877488.93937,491
1765877488.9393852,492
1765877488.9394,491
1765877488.9394162,493
1765877488.939431,494
1765877488.939447,494
1765877488.939462,496
1765877488.939478,495
1765877488.939496,494
1765877488.9395132,495
1765877488.939529,495
1765877488.939544,495
1765877488.93956,495
1765877488.9395761,495
1765877488.939591,495
1765877488.9396071,494
1765877488.939622,495
1765877488.939638,496
1765877488.9396539,497
1765877488.939669,499
1765877488.939685,498
1765877488.939701,500
1765877488.939717,499
1765877488.939732,499
1765877488.939748,491
1765877488.939764,492
1765877488.939779,495
1765877488.939796,495
1765877488.939811,494
1765877488.939827,496
1765877488.939842,496
1765877488.939858,496
1765877488.939874,497
1765877488.93989,494
1765877488.9399118,493
1765877488.939929,494
1765877488.9399521,495
1765877488.939967,494
1765877488.9399831,494
1765877488.9399989,494
1765877488.9400141,497
1765877488.940029,499
1765877488.940045,498
1765877488.94006,497
1765877488.940076,497
1765877488.9400918,497
1765877488.940107,498
1765877488.9401228,497
1765877488.940139,498
1765877488.94017,497
1765877488.940186,496
1765877488.940202,493
1765877488.940217,495
1765877488.940232,495
1765877488.940248,496
1765877488.940264,496
1765877488.940286,496
1765877488.94031,496
1765877488.940325,496
1765877488.940341,495
1765877488.940356,499
1765877488.940377,498
1765877488.940393,496
1765877488.9404092,495
1765877488.940425,497
1765877488.9404411,496
1765877488.940456,497
1765877488.940477,496
1765877488.940492,494
1765877488.940508,494
1765877488.940523,494
1765877488.940546,494
1765877488.9405608,494
1765877488.940577,495
1765877488.940592,495
1765877488.940608,495
1765877488.9406238,495
1765877488.940639,495
1765877488.940654,495
1765877488.9406688,495
1765877488.940685,495
1765877488.9406998,495
1765877488.940715,495
1765877488.9407308,495
1765877488.940746,495
1765877488.940761,496
1765877488.940777,495
1765877488.940799,497
1765877488.9408169,499
1765877488.940832,501
1765877488.940848,501
1765877488.940863,500
1765877488.9408782,499
1765877488.940893,496
1765877488.9409091,494
1765877488.940924,493
1765877488.9409401,493
1765877488.9409559,493
1765877488.940971,494
1765877488.9409862,494
1765877488.941002,493
1765877488.9410172,493
1765877488.941033,494
1765877488.941122,495
1765877488.9411578,495
1765877488.9411762,495
1765877488.941192,498
1765877488.9412081,501
1765877488.941223,502
1765877488.94124,498
1765877488.9412549,491
1765877488.941317,492
1765877488.94134,495
1765877488.9413528,495
1765877488.9413812,495
1765877488.9413939,497
1765877488.941407,496
1765877488.9414191,494
1765877488.941431,493
1765877488.9414499,493
1765877488.941462,493
1765877488.9414752,495
1765877488.941487,495
1765877488.941499,495
1765877488.941515,496
1765877488.9415271,495
1765877488.94154,495
1765877488.9415522,494
1765877488.941671,494
1765877488.941746,497
1765877488.9417632,497
1765877488.941779,497
1765877488.941817,498
1765877488.9418619,498
1765877488.941951,499
1765877488.941973,499
1765877488.9419909,498
1765877488.942006,494
1765877488.9420218,493
1765877488.942042,492
1765877488.942059,491
1765877488.942074,492
1765877488.942125,494
1765877488.942145,493
1765877488.9421592,494
1765877488.9421718,495
1765877488.942239,495
1765877488.9422562,495
1765877488.942272,496
1765877488.9422889,497
1765877488.942304,497
1765877488.9423192,496
1765877488.942334,497
1765877488.942349,495
1765877488.942366,491
1765877488.9423811,493
1765877488.9423969,494
1765877488.9424121,495
1765877488.942427,499
1765877488.942442,500
1765877488.9424572,501
1765877488.942473,502
1765877488.942488,495
1765877488.942503,492
1765877488.942518,493
1765877488.942534,494
1765877488.942554,493
1765877488.942569,493
1765877488.942585,493
1765877488.9426,492
1765877488.942615,493
1765877488.9426298,494
1765877488.942645,495
1765877488.94266,495
1765877488.9426749,495
1765877488.942691,496
1765877488.9427059,495
1765877488.9427211,495
1765877488.942736,495
1765877488.942751,496
1765877488.942768,496
1765877488.9427829,498
1765877488.942799,499
1765877488.9428139,497
1765877488.9428291,494
1765877488.942844,495
1765877488.942859,495
1765877488.942875,494
1765877488.94289,493
1765877488.9429052,492
1765877488.942921,494
1765877488.9429362,494
1765877488.942955,494
1765877488.942971,495
1765877488.94299,495
1765877488.943008,494
1765877488.943027,495
1765877488.9430451,497
1765877488.943064,498
1765877488.943082,496
1765877488.9431,497
1765877488.943118,495
1765877488.943136,491
1765877488.943155,493
1765877488.9431732,496
1765877488.943191,496
1765877488.943211,496
1765877488.943226,495
1765877488.943242,494
1765877488.943257,494
1765877488.9432719,494
1765877488.9432871,495
1765877488.943302,495
1765877488.943319,495
1765877488.9433339,496
1765877488.943349,495
1765877488.943365,495
1765877488.943381,495
1765877488.9434009,495
1765877488.943416,495
1765877488.9434319,494
1765877488.943447,494
1765877488.9434628,495
1765877488.943478,496
1765877488.9434931,497
1765877488.943508,495
1765877488.9435232,494
1765877488.943539,494
1765877488.9435542,494
1765877488.943569,495
1765877488.943585,495
1765877488.9436002,494
1765877488.943615,495
1765877488.94363,495
1765877488.943645,495
1765877488.943661,495
1765877488.943676,495
1765877488.943692,496
1765877488.943707,495
1765877488.943723,495
1765877488.9437382,495
1765877488.943757,496
1765877488.943775,497
1765877488.9437928,500
1765877488.943816,501
1765877488.943837,502
1765877488.9438562,503
1765877488.9438741,498
1765877488.943892,502
1765877488.9439108,505
1765877488.9439292,503
1765877488.943947,495
1765877488.943966,489
1765877488.943984,490
1765877488.9440022,492
1765877488.944021,490
1765877488.9440389,492
1765877488.9440582,493
1765877488.944076,494
1765877488.944095,495
1765877488.9441128,494
1765877488.944132,494
1765877488.94415,494
1765877488.944169,494
1765877488.944187,494
1765877488.944205,494
1765877488.944224,494
1765877488.944242,494
1765877488.944261,494
1765877488.944279,495
1765877488.944297,495
1765877488.944314,494
1765877488.944329,495
1765877488.944344,495
1765877488.94436,495
1765877488.944375,494
1765877488.944391,495
1765877488.944406,495
1765877488.944422,495
1765877488.944437,495
1765877488.944453,495
1765877488.944468,495
1765877488.944484,495
1765877488.944499,496
1765877488.944514,495
1765877488.94453,494
1765877488.944545,498
1765877488.944561,501
1765877488.944576,498
1765877488.9445918,496
1765877488.944607,496
1765877488.944623,494
1765877488.944638,495
1765877488.944653,496
1765877488.944669,498
1765877488.944684,497
1765877488.944705,492
1765877488.944721,491
1765877488.944736,493
1765877488.9447522,493
1765877488.944768,492
1765877488.944784,495
1765877488.944799,495
1765877488.9448152,495
1765877488.94483,494
1765877488.944845,495
1765877488.94486,495
1765877488.944875,495
1765877488.94489,495
1765877488.944906,495
1765877488.944921,495
1765877488.944937,495
1765877488.944952,495
1765877488.944968,495
1765877488.944983,495
1765877488.944999,495
1765877488.945015,495
1765877488.94503,496
1765877488.945045,495
1765877488.9450612,496
1765877488.945076,495
1765877488.945091,494
1765877488.945109,494
1765877488.945127,495
1765877488.945142,495
1765877488.945157,496
1765877488.945173,495
1765877488.945188,497
1765877488.9452028,499
1765877488.945218,500
1765877488.9452338,498
1765877488.945249,499
1765877488.945264,496
1765877488.94528,495
1765877488.945295,499
1765877488.9453099,497
1765877488.945326,493
1765877488.945342,493
1765877488.945357,497
1765877488.9453719,501
1765877488.9453871,503
1765877488.9454029,501
1765877488.945418,500
1765877488.9454331,495
1765877488.945448,489
1765877488.945463,488
1765877488.945479,491
1765877488.945494,492
1765877488.9455092,493
1765877488.9455302,495
1765877488.945545,495
1765877488.945618,495
1765877488.945639,494
1765877488.945653,493
1765877488.9456651,493
1765877488.945678,493
1765877488.9456902,493
1765877488.9457018,494
1765877488.945714,494
1765877488.945725,494
1765877488.945737,495
1765877488.945749,495
1765877488.945761,495
1765877488.945772,495
1765877488.945784,495
1765877488.945803,495
1765877488.945817,496
1765877488.9458299,495
1765877488.945842,495
1765877488.945854,495
1765877488.945865,495
1765877488.945877,494
1765877488.945889,494
1765877488.945904,497
1765877488.945919,499
1765877488.945937,501
1765877488.945951,503
1765877488.945964,498
1765877488.945976,494
1765877488.9459882,498
1765877488.9460008,497
1765877488.946018,492
1765877488.946032,496
1765877488.9460459,492
1765877488.9460611,493
1765877488.946073,493
1765877488.9460852,494
1765877488.946097,495
1765877488.9461088,495
1765877488.94612,495
1765877488.946132,495
1765877488.946144,495
1765877488.946155,496
1765877488.946167,496
1765877488.9461792,496
1765877488.946195,496
1765877488.946214,496
1765877488.946229,496
1765877488.9462411,496
1765877488.946253,495
1765877488.946264,495
1765877488.9462788,497
1765877488.9462929,498
1765877488.946306,498
1765877488.946326,499
1765877488.946341,497
1765877488.946353,496
1765877488.9463649,495
1765877488.946377,493
1765877488.9463959,494
1765877488.94641,495
1765877488.9464252,495
1765877488.946444,496
1765877488.946458,495
1765877488.946471,495
1765877488.946483,495
1765877488.946495,496
1765877488.946507,496
1765877488.9465191,493
1765877488.946532,494
1765877488.9465432,494
1765877488.946557,495
1765877488.946572,496
1765877488.946584,494
1765877488.946597,496
1765877488.94661,496
1765877488.946622,496
1765877488.946636,496
1765877488.946651,495
1765877488.9466639,494
1765877488.946676,495
1765877488.946688,495
1765877488.9467,495
1765877488.946713,497
1765877488.9467251,496
1765877488.946736,498
1765877488.946748,499
1765877488.94676,499
1765877488.9467719,500
1765877488.946783,500
1765877488.946795,494
1765877488.9468071,492
1765877488.946818,491
1765877488.94683,492
1765877488.9468422,496
1765877488.94686,498
1765877488.9468741,499
1765877488.946888,500
1765877488.9469,498
1765877488.946912,494
1765877488.946924,494
1765877488.9469361,495
1765877488.946947,492
1765877488.946961,493
1765877488.946976,492
1765877488.9469929,492
1765877488.947007,495
1765877488.947022,494
1765877488.9470341,494
1765877488.9470458,494
1765877488.947058,494
1765877488.94707,494
1765877488.9470809,495
1765877488.947093,495
1765877488.9471092,495
1765877488.947124,495
1765877488.947138,494
1765877488.94715,495
1765877488.9471622,495
1765877488.9471738,495
1765877488.9471848,495
1765877488.9472032,495
1765877488.947218,495
1765877488.947231,496
1765877488.947249,495
1765877488.947263,496
1765877488.947275,496
1765877488.947287,495
1765877488.947298,494
1765877488.947312,494
1765877488.947326,495
1765877488.947339,497
1765877488.947351,496
1765877488.9473631,496
1765877488.947387,496
1765877488.9473999,496
1765877488.947412,497
1765877488.9474251,495
1765877488.947438,495
1765877488.9474502,496
1765877488.947464,495
1765877488.947476,493
1765877488.947488,493
1765877488.9475,494
1765877488.9475121,495
1765877488.94753,497
1765877488.947544,497
1765877488.947558,500
1765877488.9475698,501
1765877488.947582,496
1765877488.947594,495
1765877488.947606,499
1765877488.947618,501
1765877488.947629,500
1765877488.9476411,492
1765877488.947667,487
1765877488.9476821,491
1765877488.947695,492
1765877488.947708,491
1765877488.94772,494
1765877488.947733,494
1765877488.947745,494
1765877488.9477592,494
1765877488.9477708,494
1765877488.947784,494
1765877488.9478028,494
1765877488.947818,494
1765877488.947832,494
1765877488.947851,494
1765877488.947863,494
1765877488.9478788,495
1765877488.947892,495
1765877488.947905,495
1765877488.9479191,494
1765877488.947938,494
1765877488.947953,494
1765877488.947967,494
1765877488.94798,494
1765877488.947992,495
1765877488.948006,495
1765877488.9480178,495
1765877488.948032,495
1765877488.948052,495
1765877488.948066,496
1765877488.9480782,495
1765877488.94809,495
1765877488.948102,495
1765877488.948114,495
1765877488.9481258,495
1765877488.948138,495
1765877488.94815,496
1765877488.9481668,495
1765877488.94818,495
1765877488.948192,496
1765877488.948204,497
1765877488.948216,496
1765877488.9482281,495
1765877488.9482398,496
1765877488.948252,495
1765877488.948264,495
1765877488.948276,495
1765877488.948288,495
1765877488.9483001,495
1765877488.948312,494
1765877488.9483242,495
1765877488.9483361,495
1765877488.9483478,495
1765877488.948361,495
1765877488.948382,495
1765877488.948394,495
1765877488.948407,495
1765877488.948419,495
1765877488.948431,495
1765877488.948443,495
1765877488.9484549,496
1765877488.948467,495
1765877488.948479,495
1765877488.948491,494
1765877488.948503,494
1765877488.948514,494
1765877488.9485261,495
1765877488.9485388,495
1765877488.9486349,495
1765877488.948652,495
1765877488.948664,496
1765877488.948677,496
1765877488.948689,496
1765877488.948701,498
1765877488.948713,497
1765877488.948725,497
1765877488.948737,496
1765877488.94875,494
1765877488.9487622,495
1765877488.9487739,495
1765877488.9487948,495
1765877488.948809,495
1765877488.948822,494
1765877488.948833,495
1765877488.9488451,495
1765877488.94886,495
1765877488.948875,494
1765877488.948887,495
1765877488.948899,495
1765877488.9489112,495
1765877488.9489229,495
1765877488.9489348,495
1765877488.948947,496
1765877488.948958,495
1765877488.948971,495
1765877488.948985,495
1765877488.948999,495
1765877488.949012,494
1765877488.949024,494
1765877488.949037,495
1765877488.9490502,494
1765877488.9490619,495
1765877488.949074,495
1765877488.949087,494
1765877488.949099,495
1765877488.949111,495
1765877488.949125,495
1765877488.949137,495
1765877488.949149,496
1765877488.949161,495
1765877488.949173,495
1765877488.949186,495
1765877488.949198,495
1765877488.9492102,494
1765877488.9492218,495
1765877488.949237,495
1765877488.949249,495
1765877488.9492621,495
1765877488.949274,495
1765877488.949286,496
1765877488.949298,495
1765877488.94931,496
1765877488.949322,496
1765877488.949334,495
1765877488.949346,495
1765877488.9493592,495
1765877488.9493709,495
1765877488.949383,496
1765877488.949443,495
1765877488.949458,496
1765877488.949471,495
1765877488.949484,495
1765877488.949507,495
1765877488.9495192,495
1765877488.9495318,496
1765877488.949544,496
1765877488.949654,495
1765877488.949674,494
1765877488.949687,494
1765877488.9497,494
1765877488.949713,496
1765877488.949725,495
1765877488.949738,495
1765877488.9497511,495
1765877488.949763,495
1765877488.949776,495
1765877488.9497879,495
1765877488.9498,495
1765877488.949813,495
1765877488.949826,496
1765877488.949839,495
1765877488.9498508,495
1765877488.949864,495
1765877488.949877,495
1765877488.949891,496
1765877488.949903,496
1765877488.949916,495
1765877488.949928,495
1765877488.949944,495
1765877488.9499562,495
1765877488.9499679,496
1765877488.949981,496
1765877488.949993,495
1765877488.950005,495
1765877488.950018,495
1765877488.95003,495
1765877488.950043,495
1765877488.950055,496
1765877488.950067,495
1765877488.95008,495
1765877488.950092,495
1765877488.950104,495
1765877488.950117,496
1765877488.9501288,495
1765877488.950141,495
1765877488.950154,494
1765877488.950166,494
1765877488.9501781,495
1765877488.950191,495
1765877488.950203,495
1765877488.9502149,495
1765877488.950228,494
1765877488.95024,494
1765877488.950252,494
1765877488.9502668,495
1765877488.95028,497
1765877488.9502919,498
1765877488.950304,498
1765877488.9503539,498
1765877488.9503732,495
1765877488.95039,493
1765877488.9504058,491
1765877488.950441,491
1765877488.9504561,492
1765877488.9504719,495
1765877488.950488,496
1765877488.9505029,496
1765877488.9505181,496
1765877488.9505339,496
1765877488.950549,495
1765877488.9505658,495
1765877488.950581,496
1765877488.950597,497
1765877488.950612,498
1765877488.950628,497
1765877488.950643,497
1765877488.950658,497
1765877488.9506738,495
1765877488.950689,495
1765877488.9507048,495
1765877488.950725,495
1765877488.950742,495
1765877488.950757,495
1765877488.950772,495
1765877488.950788,494
1765877488.950803,494
1765877488.950819,495
1765877488.950834,495
1765877488.950849,496
1765877488.9508648,496
1765877488.95088,496
1765877488.950896,496
1765877488.950911,496
1765877488.950927,495
1765877488.950942,495
1765877488.950958,495
1765877488.950973,495
1765877488.950989,496
1765877488.9510038,495
1765877488.951019,495
1765877488.9510348,495
1765877488.95105,496
1765877488.951065,496
1765877488.951081,496
1765877488.951096,495
1765877488.951112,495
1765877488.9511302,495
1765877488.951147,495
1765877488.9511628,495
1765877488.951179,495
1765877488.951194,495
1765877488.951209,496
1765877488.951225,496
1765877488.9512398,496
1765877488.951256,497
1765877488.9512708,497
1765877488.951286,497
1765877488.9513018,497
1765877488.951317,496
1765877488.951333,497
1765877488.951348,496
1765877488.951364,497
1765877488.951379,497
1765877488.951395,497
1765877488.9514098,497
1765877488.951426,497
1765877488.951442,496
1765877488.951457,497
1765877488.951473,495
1765877488.951488,495
1765877488.9515038,496
1765877488.951519,497
1765877488.951535,496
1765877488.951555,496
1765877488.95157,496
1765877488.951586,496
1765877488.9516008,495
1765877488.951617,495
1765877488.9516318,496
1765877488.951648,496
1765877488.951663,495
1765877488.95168,495
1765877488.9516952,496
1765877488.951711,495
1765877488.9517262,495
1765877488.951742,496
1765877488.951757,495
1765877488.951772,495
1765877488.951788,495
1765877488.951803,496
1765877488.951818,495
1765877488.9518342,495
1765877488.951849,495
1765877488.9518652,495
1765877488.95188,496
1765877488.951896,495
1765877488.951911,496
1765877488.951927,495
1765877488.951943,495
1765877488.951963,495
1765877488.951978,496
1765877488.951993,496
1765877488.952009,497
1765877488.952024,498
1765877488.95204,497
1765877488.952055,497
1765877488.95207,495
1765877488.952086,495
1765877488.952102,495
1765877488.952117,496
1765877488.952132,495
1765877488.952147,495
1765877488.952163,494
1765877488.952178,492
1765877488.952193,492
1765877488.952209,493
1765877488.952224,495
1765877488.9522402,496
1765877488.952255,497
1765877488.9522712,497
1765877488.952286,497
1765877488.952302,496
1765877488.952317,496
1765877488.952332,497
1765877488.952348,496
1765877488.952373,496
1765877488.952391,496
1765877488.9524071,496
1765877488.952422,495
1765877488.952438,495
1765877488.9524539,495
1765877488.952469,496
1765877488.9524841,496
1765877488.9524999,495
1765877488.9525151,495
1765877488.9525309,495
1765877488.952547,495
1765877488.9525619,495
1765877488.952578,495
1765877488.9525928,496
1765877488.952609,495
1765877488.952624,495
1765877488.9526389,496
1765877488.9526541,495
1765877488.9526699,497
1765877488.952685,500
1765877488.9527009,499
1765877488.952716,498
1765877488.9527318,497
1765877488.952747,496
1765877488.9527628,495
1765877488.952785,496
1765877488.952801,494
1765877488.952816,495
1765877488.952832,495
1765877488.952847,496
1765877488.952863,495
1765877488.952878,496
1765877488.952894,496
1765877488.952909,495
1765877488.952925,495
1765877488.95294,495
1765877488.952956,494
1765877488.952971,494
1765877488.952987,495
1765877488.953002,495
1765877488.953017,495
1765877488.953033,495
1765877488.953048,495
1765877488.953064,496
1765877488.953079,497
1765877488.953095,496
1765877488.95311,495
1765877488.9531252,496
1765877488.953141,495
1765877488.953156,495
1765877488.953171,495
1765877488.9531908,495
1765877488.953207,495
1765877488.953223,495
1765877488.953238,494
1765877488.953253,495
1765877488.953269,494
1765877488.953284,494
1765877488.9533,495
1765877488.953315,495
1765877488.9533298,495
1765877488.953346,496
1765877488.9533608,497
1765877488.953377,497
1765877488.953392,496
1765877488.953408,497
1765877488.953423,496
1765877488.953439,496
1765877488.953454,495
1765877488.953469,493
1765877488.953485,494
1765877488.9534998,494
1765877488.953516,494
1765877488.9535308,494
1765877488.953547,495
1765877488.953562,496
1765877488.953577,497
1765877488.9535959,497
1765877488.953612,497
1765877488.9536269,495
1765877488.953643,494
1765877488.953658,495
1765877488.953673,496
1765877488.953689,495
1765877488.9537039,495
1765877488.9537191,495
1765877488.9537349,496
1765877488.9537501,495
1765877488.9537652,495
1765877488.953781,496
1765877488.9537961,495
1765877488.953812,495
1765877488.9538271,494
1765877488.9538429,495
1765877488.9538581,496
1765877488.9538739,495
1765877488.95389,495
1765877488.9539049,496
1765877488.953921,495
1765877488.9539359,496
1765877488.953952,495
1765877488.953967,496
1765877488.953983,495
1765877488.953998,495
1765877488.954018,495
1765877488.954033,496
1765877488.954049,494
1765877488.954064,495
1765877488.95408,496
1765877488.9540951,494
1765877488.9541109,495
1765877488.954127,495
1765877488.9541419,495
1765877488.954158,495
1765877488.9541728,495
1765877488.954186,496
1765877488.954199,496
1765877488.9542122,496
1765877488.9542248,495
1765877488.954238,496
1765877488.954251,497
1765877488.9542642,496
1765877488.954277,496
1765877488.95429,495
1765877488.954303,496
1765877488.9543161,495
1765877488.954329,495
1765877488.954342,494
1765877488.954355,494
1765877488.954368,494
1765877488.9543848,493
1765877488.954398,494
1765877488.954411,494
1765877488.9544241,496
1765877488.954437,496
1765877488.9544508,497
1765877488.954464,495
1765877488.954477,495
1765877488.9544902,495
1765877488.9545028,494
1765877488.954515,496
1765877488.954528,495
1765877488.954541,495
1765877488.954554,495
1765877488.954567,495
1765877488.95458,496
1765877488.954593,495
1765877488.954606,495
1765877488.954619,495
1765877488.954632,495
1765877488.954645,495
1765877488.954658,496
1765877488.9546711,496
1765877488.954684,496
1765877488.954697,495
1765877488.95471,495
1765877488.954726,495
1765877488.954741,493
1765877488.954753,493
1765877488.954766,494
1765877488.9547799,494
1765877488.954792,495
1765877488.954805,496
1765877488.954818,497
1765877488.9548311,495
1765877488.954844,496
1765877488.9548569,496
1765877488.95487,496
1765877488.954893,496
1765877488.955022,496
1765877488.955039,496
1765877488.955053,496
1765877488.955067,497
1765877488.955081,496
1765877488.955094,496
1765877488.9551082,497
1765877488.9551208,496
1765877488.955195,496
1765877488.955251,496
1765877488.955265,496
1765877488.955279,495
1765877488.955292,495
1765877488.95531,495
1765877488.955325,496
1765877488.9553542,495
1765877488.955371,495
1765877488.955384,495
1765877488.9554381,495
1765877488.955452,495
1765877488.955466,495
1765877488.9554791,494
1765877488.9554932,495
1765877488.9555058,496
1765877488.955519,496
1765877488.955533,497
1765877488.9555461,497
1765877488.955559,497
1765877488.955572,497
1765877488.955585,497
1765877488.955599,497
1765877488.955612,496
1765877488.955625,495
1765877488.9556391,494
1765877488.955652,495
1765877488.9556649,495
1765877488.955679,495
1765877488.955692,495
1765877488.9557052,494
1765877488.955719,495
1765877488.955738,495
1765877488.955752,495
1765877488.955765,494
1765877488.9557781,494
1765877488.955792,494
1765877488.955809,493
1765877488.955822,494
1765877488.9558349,495
1765877488.955848,496
1765877488.955861,497
1765877488.955874,498
1765877488.955888,498
1765877488.955901,497
1765877488.955915,496
1765877488.955928,495
1765877488.9559412,494
1765877488.9559538,492
1765877488.955967,493
1765877488.95598,493
1765877488.9559941,495
1765877488.956007,495
1765877488.9560199,496
1765877488.956033,496
1765877488.956046,496
1765877488.95606,497
1765877488.956073,495
1765877488.956089,494
1765877488.956104,494
1765877488.956117,495
1765877488.956131,494
1765877488.956144,493
1765877488.956157,492
1765877488.956171,495
1765877488.9561841,497
1765877488.956197,499
1765877488.95621,497
1765877488.956223,496
1765877488.956237,494
1765877488.9562502,493
1765877488.9562628,494
1765877488.956276,495
1765877488.956289,497
1765877488.9563031,499
1765877488.956316,498
1765877488.9563289,498
1765877488.956342,496
1765877488.956356,494
1765877488.956369,493
1765877488.956382,492
1765877488.956396,492
1765877488.956409,494
1765877488.9564219,496
1765877488.956445,495
1765877488.95646,496
1765877488.956474,495
1765877488.956487,495
1765877488.9565,493
1765877488.9565141,494
1765877488.956527,495
1765877488.9565399,495
1765877488.956554,496
1765877488.956567,496
1765877488.9565802,496
1765877488.9565928,496
1765877488.956606,496
1765877488.956619,496
1765877488.9566321,496
1765877488.956645,495
1765877488.9566588,495
1765877488.956672,494
1765877488.956685,494
1765877488.9566982,493
1765877488.9567108,492
1765877488.956724,495
1765877488.956738,497
1765877488.956751,497
1765877488.956764,498
1765877488.9567769,498
1765877488.956793,497
1765877488.9568079,497
1765877488.956822,497
1765877488.956835,496
1765877488.9568481,496
1765877488.956861,495
1765877488.956874,495
1765877488.956887,495
1765877488.956901,495
1765877488.956914,496
1765877488.956927,495
1765877488.95694,495
1765877488.956954,495
1765877488.9569669,496
1765877488.95698,496
1765877488.956994,498
1765877488.9570072,498
1765877488.9570198,497
1765877488.9570339,496
1765877488.957047,497
1765877488.95706,496
1765877488.9570749,495
1765877488.957089,494
1765877488.957103,494
1765877488.957116,495
1765877488.957129,496
1765877488.957143,495
1765877488.957161,496
1765877488.957175,496
1765877488.9571881,496
1765877488.957202,496
1765877488.957215,495
1765877488.957228,495
1765877488.957241,495
1765877488.957254,496
1765877488.957268,496
1765877488.957281,496
1765877488.957294,496
1765877488.9573069,493
1765877488.957321,492
1765877488.957334,492
1765877488.957348,493
1765877488.957361,495
1765877488.957375,496
1765877488.957388,495
1765877488.957401,496
1765877488.957414,496
1765877488.957427,496
1765877488.957441,496
1765877488.957454,496
1765877488.9574668,495
1765877488.95748,495
1765877488.957494,497
1765877488.957512,496
1765877488.957525,497
1765877488.9575381,496
1765877488.957551,495
1765877488.9575648,495
1765877488.957578,494
1765877488.957591,495
1765877488.9576042,494
1765877488.9576168,494
1765877488.95763,495
1765877488.957644,495
1765877488.957657,495
1765877488.95767,495
1765877488.957684,495
1765877488.957697,495
1765877488.9577248,495
1765877488.957739,495
1765877488.957752,495
1765877488.9577658,495
1765877488.957779,495
1765877488.957793,495
1765877488.957806,495
1765877488.957819,495
1765877488.957833,495
1765877488.957846,495
1765877488.957859,495
1765877488.957879,495
1765877488.9578931,495
1765877488.957906,495
1765877488.957919,495
1765877488.957932,496
1765877488.957945,495
1765877488.957959,495
1765877488.957972,495
1765877488.957985,495
1765877488.957998,496
1765877488.9580119,496
1765877488.958025,496
1765877488.958038,496
1765877488.958051,495
1765877488.9580648,495
1765877488.958078,496
1765877488.958092,496
1765877488.958105,495
1765877488.958119,494
1765877488.958132,495
1765877488.958146,495
1765877488.9581609,496
1765877488.958174,495
1765877488.958188,495
1765877488.9582012,496
1765877488.958215,495
1765877488.9582322,495
1765877488.958247,495
1765877488.958261,496
1765877488.958276,495
1765877488.9582899,496
1765877488.958304,496
1765877488.958317,496
1765877488.9583318,495
1765877488.958345,495
1765877488.958358,495
1765877488.958372,495
1765877488.958386,495
1765877488.9584,495
1765877488.958414,496
1765877488.958428,496
1765877488.958442,494
1765877488.958455,495
1765877488.958487,495
1765877488.9585059,496
1765877488.9585211,495
1765877488.958535,495
1765877488.958549,495
1765877488.9585621,495
1765877488.9585762,495
1765877488.958591,496
1765877488.958604,496
1765877488.958622,495
1765877488.9586382,495
1765877488.958689,495
1765877488.958706,495
1765877488.958719,495
1765877488.9587321,495
1765877488.958745,496
1765877488.958792,496
1765877488.958805,496
1765877488.958818,495
1765877488.958831,496
1765877488.958844,495
1765877488.958857,495
1765877488.95887,495
1765877488.958882,495
1765877488.9588952,496
1765877488.9589078,495
1765877488.958921,496
1765877488.958934,495
1765877488.9589472,495
1765877488.95896,495
1765877488.958973,496
1765877488.958986,495
1765877488.958998,496
1765877488.959011,495
1765877488.9590242,496
1765877488.959041,495
1765877488.9590552,495
1765877488.9590669,495
1765877488.95908,495
1765877488.959093,496
1765877488.959106,495
1765877488.959119,495
1765877488.959132,495
1765877488.959145,495
1765877488.959158,495
1765877488.959171,496
1765877488.959184,496
1765877488.9591959,495
1765877488.95921,496
1765877488.959223,495
1765877488.9592361,496
1765877488.9592488,496
1765877488.959262,495
1765877488.959275,496
1765877488.9592881,496
1765877488.9593012,495
1765877488.9593139,496
1765877488.959327,495
1765877488.95934,496
1765877488.959353,495
1765877488.9593658,495
1765877488.959379,495
1765877488.959397,495
1765877488.95941,495
1765877488.959423,495
1765877488.959436,496
1765877488.959449,495
1765877488.9594612,495
1765877488.9594738,496
1765877488.959487,496
1765877488.9595,496
1765877488.9595132,496
1765877488.959527,496
1765877488.95954,495
1765877488.959552,495
1765877488.9595652,495
1765877488.959578,495
1765877488.959591,495
1765877488.9596028,495
1765877488.9596171,495
1765877488.95963,496
1765877488.959643,496
1765877488.959657,496
1765877488.95967,496
1765877488.9596832,496
1765877488.9596958,496
1765877488.959709,496
1765877488.959722,496
1765877488.959739,496
1765877488.9597518,495
1765877488.959765,495
1765877488.959778,496
1765877488.9597912,496
1765877488.9598038,496
1765877488.959817,495
1765877488.95983,495
1765877488.9598432,495
1765877488.959856,495
1765877488.9598699,495
1765877488.959883,496
1765877488.9598951,496
1765877488.959908,495
1765877488.959921,496
1765877488.959934,496
1765877488.959947,496
1765877488.95996,495
1765877488.959973,496
1765877488.959986,495
1765877488.959999,496
1765877488.960012,496
1765877488.960025,495
1765877488.960038,496
1765877488.960051,495
1765877488.960064,495
1765877488.9600809,496
1765877488.960094,496
1765877488.960105,495
1765877488.960116,496
1765877488.9601269,496
1765877488.960138,495
1765877488.960149,496
1765877488.960161,495
1765877488.960172,496
1765877488.9601831,496
1765877488.960195,495
1765877488.960206,495
1765877488.960217,495
1765877488.9602292,496
1765877488.9602401,496
1765877488.9602509,495
1765877488.9602618,495
1765877488.9602728,495
1765877488.960285,496
1765877488.960296,495
1765877488.960308,496
1765877488.960319,496
1765877488.960331,495
1765877488.960342,496
1765877488.9603531,495
1765877488.960365,496
1765877488.960379,496
1765877488.9603908,495
1765877488.960402,495
1765877488.960414,495
1765877488.960425,496
1765877488.9604359,495
1765877488.960447,495
1765877488.960458,495
1765877488.960472,496
1765877488.960484,496
1765877488.960495,495
1765877488.9605062,496
1765877488.960518,496
1765877488.9605289,496
1765877488.9605398,496
1765877488.960551,495
1765877488.960562,496
1765877488.960574,496
1765877488.9605849,495
1765877488.960596,496
1765877488.960608,495
1765877488.960619,496
1765877488.96063,496
1765877488.960641,495
1765877488.960652,496
1765877488.960664,496
1765877488.9606779,496
1765877488.96069,496
1765877488.960701,496
1765877488.960712,496
1765877488.960723,496
1765877488.960734,496
1765877488.960746,496
1765877488.960757,496
1765877488.960768,496
1765877488.960779,495
1765877488.960791,496
1765877488.960802,496
1765877488.960813,496
1765877488.9608252,496
1765877488.9608362,496
1765877488.9608479,496
1765877488.9608588,495
1765877488.9608698,496
1765877488.960881,496
1765877488.960892,495
1765877488.960904,496
1765877488.9609149,496
1765877488.960926,496
1765877488.960937,496
1765877488.960949,496
1765877488.96096,496
1765877488.960971,496
1765877488.9609861,496
1765877488.960997,496
1765877488.9610088,496
1765877488.96102,496
1765877488.961031,496
1765877488.961042,495
1765877488.961053,496
1765877488.961065,496
1765877488.961077,496
1765877488.961088,496
1765877488.961099,496
1765877488.96111,496
1765877488.961121,496
1765877488.961132,495
1765877488.961144,496
1765877488.9611552,496
1765877488.961167,496
1765877488.9611788,495
1765877488.96119,495
1765877488.961201,496
1765877488.961212,495
1765877488.961223,495
1765877488.9612339,496
1765877488.961246,496
1765877488.961257,496
1765877488.961268,496
1765877488.961282,497
1765877488.9612951,496
1765877488.961306,495
1765877488.961317,495
1765877488.961328,496
1765877488.961339,496
1765877488.96135,495
1765877488.961361,496
1765877488.9613729,496
1765877488.9613838,497
1765877488.961395,497
1765877488.961406,497
1765877488.961417,497
1765877488.961428,497
1765877488.96144,497
1765877488.961451,497
1765877488.961462,497
1765877488.961473,497
1765877488.961484,497
1765877488.961495,497
1765877488.9615061,497
1765877488.961517,497
1765877488.961528,497
1765877488.96154,496
1765877488.9615512,497
1765877488.9615622,497
1765877488.961576,496
1765877488.961588,496
1765877488.9615989,496
1765877488.96161,497
1765877488.961621,496
1765877488.961632,496
1765877488.961644,496
1765877488.9616551,497
1765877488.961666,497
1765877488.961677,496
1765877488.961689,496
1765877488.9617002,496
1765877488.9617112,496
1765877488.9617229,496
1765877488.9617338,496
1765877488.9617448,496
1765877488.961756,496
1765877488.961767,496
1765877488.961778,496
1765877488.961789,496
1765877488.961801,497
1765877488.961812,496
1765877488.961823,495
1765877488.961834,496
1765877488.961846,496
1765877488.961857,496
1765877488.961868,496
1765877488.9618828,496
1765877488.9618938,497
1765877488.961905,496
1765877488.961916,496
1765877488.961927,496
1765877488.9619389,496
1765877488.96195,496
1765877488.961961,496
1765877488.961972,496
1765877488.961983,496
1765877488.9619951,496
1765877488.962006,496
1765877488.962017,496
1765877488.962029,496
1765877488.9620411,496
1765877488.962052,496
1765877488.962063,495
1765877488.962074,496
1765877488.962086,495
1765877488.962097,495
1765877488.962108,496
1765877488.9621198,496
1765877488.962131,496
1765877488.962142,497
1765877488.962153,495
1765877488.962164,496
1765877488.962178,496
1765877488.962191,496
1765877488.962202,496
1765877488.962213,496
1765877488.9622242,496
1765877488.962235,496
1765877488.962247,496
1765877488.9622579,496
1765877488.9622688,495
1765877488.96228,495
1765877488.962292,496
1765877488.962303,496
1765877488.962314,496
1765877488.962326,496
1765877488.962337,496
1765877488.962348,496
1765877488.962359,496
1765877488.9623702,496
1765877488.962382,496
1765877488.962393,496
1765877488.962404,496
1765877488.9624152,497
1765877488.9624262,497
1765877488.9624379,496
1765877488.9624488,496
1765877488.962461,497
1765877488.962475,497
1765877488.962487,496
1765877488.962498,496
1765877488.9625092,496
1765877488.962521,496
1765877488.962532,496
1765877488.962543,496
1765877488.9625542,496
1765877488.962566,496
1765877488.9625769,495
1765877488.9625878,495
1765877488.9625988,495
1765877488.962611,495
1765877488.962622,496
1765877488.962633,496
1765877488.9626439,497
1765877488.962655,497
1765877488.962667,496
1765877488.962678,496
1765877488.962689,496
1765877488.9627001,496
1765877488.962712,496
1765877488.962723,496
1765877488.962734,496
1765877488.9627452,496
1765877488.9627562,497
1765877488.9627671,496
1765877488.9627829,496
1765877488.962795,496
1765877488.962806,496
1765877488.962817,496
1765877488.962828,496
1765877488.96284,496
1765877488.962851,496
1765877488.962862,496
1765877488.962873,496
1765877488.9628842,496
1765877488.9628959,496
1765877488.9629068,496
1765877488.9629178,496
1765877488.962929,496
1765877488.962941,496
1765877488.962952,496
1765877488.9629629,496
1765877488.9629738,496
1765877488.962986,496
1765877488.962997,496
1765877488.963009,496
1765877488.96302,496
1765877488.963031,496
1765877488.963042,496
1765877488.9630542,496
1765877488.9630651,496
1765877488.96308,496
1765877488.963091,496
1765877488.963103,496
1765877488.963114,497
1765877488.963125,496
1765877488.963136,497
1765877488.963148,496
1765877488.963159,496
1765877488.96317,496
1765877488.963182,497
1765877488.9631932,496
1765877488.9632041,496
1765877488.963215,496
1765877488.963226,496
1765877488.963237,496
1765877488.963248,496
1765877488.963259,496
1765877488.963271,496
1765877488.9632819,497
1765877488.9632928,496
1765877488.963305,496
1765877488.963316,496
1765877488.963327,496
1765877488.963338,496
1765877488.96335,495
1765877488.963361,496
1765877488.963375,497
1765877488.963388,496
1765877488.963399,496
1765877488.96341,496
1765877488.9634209,496
1765877488.9634318,495
1765877488.963443,496
1765877488.963455,496
1765877488.963466,496
1765877488.963477,496
1765877488.963488,496
1765877488.963499,495
1765877488.963511,496
1765877488.963522,496
1765877488.9635332,496
1765877488.963545,496
1765877488.963556,497
1765877488.9635682,497
1765877488.963579,497
1765877488.96359,496
1765877488.9636009,496
1765877488.9636118,496
1765877488.9636228,496
1765877488.963634,496
1765877488.963646,496
1765877488.963657,496
1765877488.96367,497
1765877488.9636831,496
1765877488.963694,496
1765877488.963705,496
1765877488.963716,496
1765877488.963728,496
1765877488.963739,496
1765877488.96375,496
1765877488.9637609,497
1765877488.9637718,496
1765877488.963783,496
1765877488.963795,496
1765877488.963806,496
1765877488.963817,496
1765877488.963828,496
1765877488.963839,496
1765877488.96385,496
1765877488.963861,496
1765877488.963873,496
1765877488.963884,496
1765877488.963895,497
1765877488.963906,496
1765877488.963917,496
1765877488.9639292,496
1765877488.9639401,496
1765877488.963951,496
1765877488.963962,496
1765877488.963976,496
1765877488.963988,497
1765877488.963999,496
1765877488.96401,496
1765877488.964021,496
1765877488.964032,496
1765877488.964044,497
1765877488.964055,496
1765877488.964066,496
1765877488.964077,497
1765877488.964088,497
1765877488.9640992,496
1765877488.9641101,497
1765877488.964121,496
1765877488.964133,496
1765877488.9641442,496
1765877488.964155,497
1765877488.9641669,496
1765877488.9641778,497
1765877488.9641888,496
1765877488.9642,497
1765877488.964211,496
1765877488.964223,497
1765877488.9642339,497
1765877488.964245,496
1765877488.964256,496
1765877488.96427,496
1765877488.964283,497
1765877488.964295,496
1765877488.9643068,496
1765877488.964319,496
1765877488.96433,496
1765877488.964341,496
1765877488.964352,496
1765877488.964363,496
1765877488.964374,495
1765877488.964385,496
1765877488.964396,496
1765877488.964407,496
1765877488.964418,497
1765877488.9644291,496
1765877488.964441,496
1765877488.964452,496
1765877488.964463,495
1765877488.964475,496
1765877488.964486,496
1765877488.9644969,495
1765877488.9645078,495
1765877488.96452,495
1765877488.964531,496
1765877488.9645429,497
1765877488.964554,496
1765877488.9645681,496
1765877488.96458,496
1765877488.964591,496
1765877488.9646132,496
1765877488.964624,496
1765877488.964635,497
1765877488.9646459,496
1765877488.9646568,496
1765877488.9646678,496
1765877488.964679,496
1765877488.96469,496
1765877488.964701,496
1765877488.964712,496
1765877488.964724,495
1765877488.964735,495
1765877488.964747,496
1765877488.964758,496
1765877488.9647691,496
1765877488.96478,496
1765877488.964791,496
1765877488.964802,496
1765877488.964813,497
1765877488.964824,496
1765877488.9648361,496
1765877488.964847,496
1765877488.964858,496
1765877488.964869,496
1765877488.964884,496
1765877488.964895,496
1765877488.964906,496
1765877488.964917,496
1765877488.964929,497
1765877488.96494,496
1765877488.964951,495
1765877488.964962,496
1765877488.964973,496
1765877488.9649842,496
1765877488.9649951,496
1765877488.965006,496
1765877488.965018,496
1765877488.965029,496
1765877488.9650402,496
1765877488.965051,496
1765877488.9650629,497
1765877488.9650738,496
1765877488.965085,496
1765877488.965097,496
1765877488.965108,495
1765877488.965119,496
1765877488.96513,496
1765877488.965141,496
1765877488.965152,496
1765877488.965163,496
1765877488.965179,496
1765877488.9651918,496
1765877488.965203,496
1765877488.965214,496
1765877488.965225,496
1765877488.965308,496
1765877488.9653199,496
1765877488.9653308,496
1765877488.965342,495
1765877488.965353,496
1765877488.965364,496
1765877488.965375,497
1765877488.965386,496
1765877488.965397,496
1765877488.965408,495
1765877488.965419,496
1765877488.96543,496
1765877488.965441,496
1765877488.9654531,497
1765877488.965464,497
1765877488.965475,497
1765877488.965486,497
1765877488.965497,497
1765877488.965508,496
1765877488.9655192,496
1765877488.9655309,497
1765877488.965544,496
1765877488.965558,497
1765877488.965569,496
1765877488.96558,497
1765877488.965591,497
1765877488.9656022,497
1765877488.9656131,497
1765877488.965624,497
1765877488.965635,496
1765877488.965646,498
1765877488.965657,497
1765877488.9656692,496
1765877488.9656801,497
1765877488.9656909,497
1765877488.965704,497
1765877488.965716,496
1765877488.965727,497
1765877488.965738,496
1765877488.96575,496
1765877488.9657621,496
1765877488.965773,496
1765877488.965784,496
1765877488.965795,496
1765877488.965806,496
1765877488.965817,497
1765877488.9658291,496
1765877488.965845,496
1765877488.965858,496
1765877488.9658701,496
1765877488.965881,496
1765877488.965916,496
1765877488.965929,496
1765877488.96594,496
1765877488.965951,496
1765877488.9659631,496
1765877488.965974,496
1765877488.965985,497
1765877488.965997,496
1765877488.966008,495
1765877488.96602,496
1765877488.9660318,496
1765877488.966042,496
1765877488.966052,496
1765877488.966089,496
1765877488.9661,496
1765877488.96611,496
1765877488.96612,496
1765877488.96613,496
1765877488.9661398,496
1765877488.9661498,496
1765877488.9661598,495
1765877488.96617,496
1765877488.96618,495
1765877488.966194,496
1765877488.966205,496
1765877488.966215,495
1765877488.966225,496
1765877488.9662342,496
1765877488.966244,496
1765877488.966254,496
1765877488.966264,496
1765877488.966274,496
1765877488.966284,496
1765877488.966294,495
1765877488.966304,496
1765877488.966314,496
1765877488.9663239,496
1765877488.9663339,496
1765877488.9663439,496
1765877488.966354,496
1765877488.966364,496
1765877488.966374,497
1765877488.9663832,496
1765877488.966393,496
1765877488.966403,495
1765877488.966413,496
1765877488.966423,495
1765877488.966432,496
1765877488.9664419,496
1765877488.966455,496
1765877488.966465,496
1765877488.966475,496
1765877488.966485,496
1765877488.966495,496
1765877488.966505,495
1765877488.9665148,495
1765877488.9665248,495
1765877488.9665349,495
1765877488.9665449,495
1765877488.9665549,496
1765877488.9665642,495
1765877488.9665742,495
1765877488.966584,495
1765877488.966594,495
1765877488.966604,496
1765877488.966614,496
1765877488.966624,496
1765877488.966634,496
1765877488.966644,496
1765877488.966654,496
1765877488.9666638,495
1765877488.9666739,496
1765877488.966683,495
1765877488.9666932,495
1765877488.9667032,496
1765877488.9667132,495
1765877488.966727,495
1765877488.9667368,496
1765877488.9667468,496
1765877488.966757,496
1765877488.966767,496
1765877488.966777,496
1765877488.966787,495
1765877488.966796,495
1765877488.966806,496
1765877488.966816,495
1765877488.966826,495
1765877488.966835,496
1765877488.966845,496
1765877488.9668548,496
1765877488.9668648,495
1765877488.9668748,496
1765877488.9668841,496
1765877488.9668941,496
1765877488.9669042,496
1765877488.966914,496
1765877488.966924,496
1765877488.966934,496
1765877488.966944,496
1765877488.966954,496
1765877488.966964,496
1765877488.9669728,495
1765877488.9669828,496
1765877488.9669929,496
1765877488.9670029,496
1765877488.9670131,496
1765877488.9670231,496
1765877488.967032,495
1765877488.967042,496
1765877488.967052,496
1765877488.967062,496
1765877488.967072,496
1765877488.967082,496
1765877488.967092,496
1765877488.9671009,496
1765877488.9671109,496
1765877488.967121,496
1765877488.967131,496
1765877488.9671412,496
1765877488.9671512,496
1765877488.9671612,496
1765877488.967171,496
1765877488.96718,496
1765877488.96719,496
1765877488.9672,496
1765877488.96721,495
1765877488.96722,496
1765877488.9672298,495
1765877488.9672399,496
1765877488.9672499,495
1765877488.96726,496
1765877488.96727,496
1765877488.9672801,496
1765877488.9672902,496
1765877488.9673002,496
1765877488.967309,496
1765877488.967319,496
1765877488.967329,496
1765877488.967339,496
1765877488.967349,496
1765877488.9673579,496
1765877488.967368,496
1765877488.967378,496
1765877488.967388,495
1765877488.967398,495
1765877488.9674082,496
1765877488.9674182,496
1765877488.9674282,496
1765877488.967438,496
1765877488.967447,496
1765877488.967459,496
1765877488.967469,495
1765877488.967479,496
1765877488.967489,496
1765877488.967499,496
1765877488.967508,496
1765877488.9675179,496
1765877488.9675279,495
1765877488.9675379,496
1765877488.967548,496
1765877488.967558,496
1765877488.967568,496
1765877488.9675782,496
1765877488.9675882,495
1765877488.967597,496
1765877488.967607,496
1765877488.967617,496
1765877488.967627,496
1765877488.967637,496
1765877488.967646,496
1765877488.967656,496
1765877488.967666,496
1765877488.967676,496
1765877488.967686,496
1765877488.967696,496
1765877488.9677062,496
1765877488.967768,495
1765877488.967778,496
1765877488.967788,496
1765877488.967798,496
1765877488.967808,496
1765877488.967818,496
1765877488.967828,496
1765877488.967838,497
1765877488.9678469,496
1765877488.967857,496
1765877488.967867,496
1765877488.9678771,495
1765877488.9678872,496
1765877488.9678972,496
1765877488.9679072,496
1765877488.967916,496
1765877488.967926,496
1765877488.967936,496
1765877488.967946,496
1765877488.967956,496
1765877488.9679658,496
1765877488.9679759,496
1765877488.967987,496
1765877488.9679968,496
1765877488.9680068,496
1765877488.968019,496
1765877488.968029,495
1765877488.9680388,495
1765877488.9680488,495
1765877488.9680588,496
1765877488.968069,496
1765877488.968079,496
1765877488.968089,496
1765877488.968099,496
1765877488.9681091,496
1765877488.9681191,495
1765877488.968129,496
1765877488.968139,496
1765877488.968149,496
1765877488.968159,496
1765877488.968168,496
1765877488.968178,495
1765877488.9681878,496
1765877488.9681978,496
1765877488.9682078,496
1765877488.9682171,495
1765877488.9682271,496
1765877488.9682372,495
1765877488.968247,495
1765877488.968257,495
1765877488.968267,496
1765877488.968277,496
1765877488.968287,496
1765877488.968297,496
1765877488.968307,496
1765877488.968317,496
1765877488.9683268,496
1765877488.9683368,496
1765877488.9683468,495
1765877488.968357,495
1765877488.9683661,496
1765877488.9683762,496
1765877488.968386,495
1765877488.968396,496
1765877488.968406,495
1765877488.968415,495
1765877488.968425,496
1765877488.968435,495
1765877488.9684448,495
1765877488.9684548,495
1765877488.9684649,495
1765877488.9684749,495
1765877488.968485,495
1765877488.9684951,496
1765877488.9685051,495
1765877488.9685152,496
1765877488.9685252,496
1765877488.968534,496
1765877488.968544,496
1765877488.968554,496
1765877488.968564,496
1765877488.968574,495
1765877488.9685838,495
1765877488.9685938,496
1765877488.9686038,495
1765877488.9686139,495
1765877488.968624,495
1765877488.9686341,495
1765877488.9686432,496
1765877488.968653,496
1765877488.968663,496
1765877488.968673,495
1765877488.968683,496
1765877488.968692,495
1765877488.9687018,495
1765877488.9687119,495
1765877488.9687219,496
1765877488.9687319,495
1765877488.9687412,495
1765877488.9687512,495
1765877488.969512,495
1765877488.9704971,495
1765877488.9715042,495
1765877488.972497,495
1765877488.973501,495
1765877488.974506,496
1765877488.975511,496
1765877488.976522,495
1765877488.977498,496
1765877488.978534,495
1765877488.9795089,495
1765877488.9805179,495
1765877488.981524,495
1765877488.982527,495
1765877488.983532,496
1765877488.98453,495
1765877488.9855292,495
1765877488.9865448,496
1765877488.987552,496
1765877488.98856,496
1765877488.989553,496
1765877488.9905448,496
1765877488.991541,495
1765877488.992555,495
1765877488.9935591,495
1765877488.994587,495
1765877488.99558,495
1765877488.99657,495
1765877488.9975748,495
1765877488.998585,496
1765877488.9995599,495
1765877489.000586,496
1765877489.001567,495
1765877489.0025642,496
1765877489.003573,495
1765877489.004579,495
1765877489.0055912,496
1765877489.0065851,496
1765877489.007589,495
1765877489.008596,495
1765877489.00959,496
1765877489.010589,495
1765877489.0115929,496
1765877489.012594,495
1765877489.013621,496
1765877489.014612,496
1765877489.015598,496
1765877489.016615,496
1765877489.017611,496
1765877489.0186229,496
1765877489.019628,496
1765877489.0206249,497
1765877489.021624,497
1765877489.0226262,496
1765877489.023623,496
1765877489.024638,496
1765877489.025641,497
1765877489.026641,496
1765877489.027643,496
1765877489.028651,496
1765877489.0296562,495
1765877489.030664,496
1765877489.0316439,496
1765877489.032661,496
1765877489.033715,496
1765877489.034677,496
1765877489.035687,496
1765877489.036682,496
1765877489.037675,496
1765877489.03869,495
1765877489.03967,496
1765877489.0406668,496
1765877489.041685,496
1765877489.042681,495
1765877489.043754,495
1765877489.044699,496
1765877489.04572,495
1765877489.0467122,496
1765877489.047693,495
1765877489.0487309,496
1765877489.049728,495
1765877489.05076,495
1765877489.051727,495
1765877489.052735,496
1765877489.0537379,495
1765877489.05473,495
1765877489.055743,496
1765877489.0567439,495
1765877489.0577269,495
1765877489.058746,495
1765877489.0597482,495
1765877489.0607831,495
1765877489.061742,495
1765877489.062753,496
1765877489.063749,495
1765877489.064764,496
1765877489.065753,495
1765877489.066795,495
1765877489.06777,496
1765877489.068799,495
1765877489.0698051,495
1765877489.070753,495
1765877489.071778,495
1765877489.0728168,495
1765877489.0737731,495
1765877489.074788,495
1765877489.0758111,495
1765877489.076792,495
1765877489.077845,496
1765877489.0788212,495
1765877489.079828,495
1765877489.080828,495
1765877489.0819058,495
1765877489.082844,495
1765877489.083829,496
1765877489.0848699,495
1765877489.085855,495
1765877489.086826,495
1765877489.0878248,496
1765877489.088827,496
1765877489.089833,496
1765877489.090831,495
1765877489.091887,495
1765877489.092829,495
1765877489.093845,495
1765877489.0948439,495
1765877489.09584,495
1765877489.0969,495
1765877489.097894,495
1765877489.098902,496
1765877489.099909,495
1765877489.100843,495
1765877489.1018581,495
1765877489.102846,495
1765877489.1038542,495
1765877489.104876,495
1765877489.1058738,495
1765877489.106876,495
1765877489.1078742,495
1765877489.108882,495
1765877489.109922,495
1765877489.110925,495
1765877489.111874,495
1765877489.112878,495
1765877489.1139,495
1765877489.114903,495
1765877489.115883,495
1765877489.116919,495
1765877489.117929,495
1765877489.1190138,495
1765877489.119937,496
1765877489.120909,495
1765877489.12191,495
1765877489.122911,495
1765877489.123918,495
1765877489.1249652,495
1765877489.125988,495
1765877489.1269639,496
1765877489.127914,495
1765877489.128941,495
1765877489.129981,496
1765877489.130975,495
1765877489.131922,495
1765877489.132948,495
1765877489.133933,496
1765877489.134934,495
1765877489.135946,495
1765877489.136956,495
1765877489.137965,496
1765877489.138965,496
1765877489.1399648,495
1765877489.140969,495
1765877489.141966,495
1765877489.143005,496
1765877489.1439722,496
1765877489.144971,496
1765877489.145987,496
1765877489.146983,495
1765877489.148115,495
1765877489.14907,495
1765877489.150028,495
1765877489.151017,495
1765877489.152011,495
1765877489.152999,494
1765877489.1539998,495
1765877489.155007,495
1765877489.1560059,495
1765877489.157012,495
1765877489.158033,495
1765877489.159033,495
1765877489.160018,495
1765877489.161072,496
1765877489.162045,496
1765877489.163032,496
1765877489.1640441,495
1765877489.165087,496
1765877489.1660311,496
1765877489.167093,496
1765877489.1680372,496
1765877489.1690361,496
1765877489.170061,495
1765877489.17104,495
1765877489.172051,495
1765877489.173056,496
1765877489.1741161,496
1765877489.175066,496
1765877489.1760561,496
1765877489.177064,495
1765877489.178078,496
1765877489.179061,495
1765877489.1800802,495
1765877489.181083,496
1765877489.1821198,496
1765877489.183136,495
1765877489.1841369,495
1765877489.185141,495
1765877489.186081,495
1765877489.187083,495
1765877489.18809,495
1765877489.189095,495
1765877489.1901162,496
1765877489.19111,495
1765877489.19211,496
1765877489.193165,495
1765877489.1941602,496
1765877489.195117,495
1765877489.1961222,496
1765877489.1971252,496
1765877489.198142,496
1765877489.199141,495
1765877489.2001548,496
1765877489.201164,495
1765877489.202247,496
1765877489.2031932,495
1765877489.2041962,496
1765877489.205164,495
1765877489.2061892,496
1765877489.2071512,496
1765877489.208171,497
1765877489.209195,496
1765877489.210177,496
1765877489.211176,495
1765877489.212183,495
1765877489.213185,496
1765877489.2142222,496
1765877489.215198,496
1765877489.216207,495
1765877489.217257,496
1765877489.218227,496
1765877489.2192068,496
1765877489.220194,496
1765877489.2212281,495
1765877489.222223,495
1765877489.223279,496
1765877489.224302,496
1765877489.225327,496
1765877489.226311,495
1765877489.227284,495
1765877489.228294,496
1765877489.22929,496
1765877489.230289,496
1765877489.231294,496
1765877489.232312,495
1765877489.233314,496
1765877489.234278,496
1765877489.235281,496
1765877489.236288,496
1765877489.2373161,496
1765877489.238313,496
1765877489.239295,496
1765877489.240297,497
1765877489.2413409,496
1765877489.242335,495
1765877489.2433128,496
1765877489.244412,496
1765877489.245315,497
1765877489.246289,497
1765877489.2473001,496
1765877489.248312,496
1765877489.249303,496
1765877489.250295,496
1765877489.251282,496
1765877489.2522821,496
1765877489.253284,496
1765877489.254317,496
1765877489.255303,495
1765877489.256321,495
1765877489.257306,495
1765877489.2583108,495
1765877489.259422,495
1765877489.260399,496
1765877489.261364,496
1765877489.262325,496
1765877489.263333,496
1765877489.264307,495
1765877489.265329,495
1765877489.266331,496
1765877489.267335,496
1765877489.268339,495
1765877489.269322,495
1765877489.270354,495
1765877489.2713642,495
1765877489.272355,495
1765877489.273343,496
1765877489.2743418,496
1765877489.2754402,495
1765877489.276364,495
1765877489.277332,496
1765877489.278363,496
1765877489.279368,496
1765877489.2803788,496
1765877489.281385,496
1765877489.282368,496
1765877489.283405,496
1765877489.284439,497
1765877489.285407,496
1765877489.2864199,496
1765877489.287406,495
1765877489.288397,496
1765877489.2893991,495
1765877489.290389,495
1765877489.291392,496
1765877489.2923899,495
1765877489.293392,495
1765877489.294386,496
1765877489.295394,495
1765877489.296391,496
1765877489.297406,495
1765877489.298399,495
1765877489.2993941,495
1765877489.300419,495
1765877489.301418,496
1765877489.302407,496
1765877489.303412,496
1765877489.304422,496
1765877489.305415,496
1765877489.306426,495
1765877489.307453,495
1765877489.308457,496
1765877489.309482,495
1765877489.310453,496
1765877489.311436,496
1765877489.312437,496
1765877489.313456,495
1765877489.314453,496
1765877489.315448,496
1765877489.3164558,495
1765877489.317462,496
1765877489.318472,495
1765877489.319453,496
1765877489.320446,496
1765877489.32148,496
1765877489.3224819,495
1765877489.3234692,496
1765877489.324474,495
1765877489.325516,496
1765877489.326518,497
1765877489.3275719,495
1765877489.328514,496
1765877489.3295171,495
1765877489.330507,495
1765877489.331496,496
1765877489.332484,497
1765877489.333537,497
1765877489.33452,497
1765877489.335509,497
1765877489.3365078,496
1765877489.337512,496
1765877489.3385441,496
1765877489.339543,496
1765877489.340535,496
1765877489.341557,496
1765877489.342608,496
1765877489.3435369,496
1765877489.3445609,497
1765877489.345533,497
1765877489.3465521,496
1765877489.347557,497
1765877489.348577,497
1765877489.3505092,496
1765877489.35055,495
1765877489.351574,494
1765877489.352572,494
1765877489.3535519,495
1765877489.3545659,495
1765877489.355577,494
1765877489.35659,495
1765877489.357569,495
1765877489.358614,494
1765877489.359599,495
1765877489.360574,495
1765877489.3615942,495
1765877489.3625898,495
1765877489.363571,495
1765877489.3645902,495
1765877489.365602,495
1765877489.366713,495
1765877489.3676312,496
1765877489.368612,496
1765877489.369676,497
1765877489.3706539,497
1765877489.371644,496
1765877489.372618,495
1765877489.373612,496
1765877489.374596,496
1765877489.375627,495
1765877489.3765981,494
1765877489.3776152,494
1765877489.378613,496
1765877489.379648,496
1765877489.3806138,496
1765877489.3816068,497
1765877489.3826702,496
1765877489.3836632,496
1765877489.384655,495
1765877489.385618,496
1765877489.386623,496
1765877489.387657,496
1765877489.388648,496
1765877489.389629,496
1765877489.390653,496
1765877489.391667,497
1765877489.392649,497
1765877489.393675,497
1765877489.39466,497
1765877489.395684,496
1765877489.396656,495
1765877489.397682,495
1765877489.398664,495
1765877489.399669,496
1765877489.4006872,498
1765877489.401695,500
1765877489.402677,501
1765877489.403711,502
1765877489.4047182,502
1765877489.405699,501
1765877489.406676,499
1765877489.4076889,497
1765877489.4087281,492
1765877489.4097269,495
1765877489.410742,496
1765877489.411743,495
1765877489.4127302,495
1765877489.4137118,496
1765877489.414731,494
1765877489.415735,493
1765877489.416775,493
1765877489.417732,494
1765877489.4187388,495
1765877489.419747,495
1765877489.420743,496
1765877489.421727,497
1765877489.422747,497
1765877489.423755,500
1765877489.4247491,503
1765877489.425853,503
1765877489.426794,503
1765877489.427754,502
1765877489.4287722,498
1765877489.429766,493
1765877489.43079,492
1765877489.431784,494
1765877489.432788,492
1765877489.4338062,491
1765877489.4348009,491
1765877489.435797,493
1765877489.4368079,495
1765877489.437804,495
1765877489.438793,499
1765877489.4397938,499
1765877489.440863,499
1765877489.4418402,498
1765877489.442852,497
1765877489.443851,496
1765877489.4465668,495
1765877489.446605,495
1765877489.4468281,496
1765877489.447835,496
1765877489.448832,494
1765877489.449884,494
1765877489.4508412,495
1765877489.451859,496
1765877489.452893,496
1765877489.453911,494
1765877489.454884,495
1765877489.455869,497
1765877489.4568808,497
1765877489.457848,495
1765877489.458873,495
1765877489.459872,497
1765877489.460854,498
1765877489.461878,499
1765877489.462868,498
1765877489.463867,499
1765877489.4648802,497
1765877489.465879,496
1765877489.4668632,495
1765877489.467863,495
1765877489.468884,494
1765877489.4698958,494
1765877489.4708931,495
1765877489.4719129,496
1765877489.472917,497
1765877489.473902,497
1765877489.474926,496
1765877489.4759328,497
1765877489.476896,497
1765877489.477927,500
1765877489.4789262,504
1765877489.479939,505
1765877489.4809432,502
1765877489.481917,500
1765877489.482914,508
1765877489.4839098,520
1765877489.4849439,520
1765877489.485932,516
1765877489.486987,515
1765877489.487975,503
1765877489.489009,488
1765877489.4899719,486
1765877489.490981,487
1765877489.491968,491
1765877489.49298,492
1765877489.49399,491
1765877489.495061,492
1765877489.496017,495
1765877489.496989,497
1765877489.497959,494
1765877489.498971,493
1765877489.499972,495
1765877489.500944,496
1765877489.501974,494
1765877489.502985,491
1765877489.503979,493
1765877489.5049758,493
1765877489.5059772,494
1765877489.506967,499
1765877489.507981,499
1765877489.5089998,499
1765877489.510026,497
1765877489.51101,500
1765877489.512019,502
1765877489.513021,500
1765877489.514014,500
1765877489.514998,497
1765877489.5160131,497
1765877489.5170171,495
1765877489.518008,490
1765877489.51901,496
1765877489.5200179,501
1765877489.521051,502
1765877489.522037,504
1765877489.523017,503
1765877489.5240252,496
1765877489.5250309,487
1765877489.526016,492
1765877489.527047,496
1765877489.528036,496
1765877489.529053,497
1765877489.5300438,497
1765877489.5310478,501
1765877489.532054,502
1765877489.533055,505
1765877489.534057,508
1765877489.535072,507
1765877489.536084,507
1765877489.537117,509
1765877489.53812,500
1765877489.539072,492
1765877489.540085,492
1765877489.541093,493
1765877489.542114,495
1765877489.543114,493
1765877489.5440829,493
1765877489.5450912,493
1765877489.5461051,494
1765877489.547096,496
1765877489.5480902,502
1765877489.5491042,505
1765877489.5500998,502
1765877489.5511239,494
1765877489.552127,490
1765877489.553121,495
1765877489.554147,493
1765877489.555145,490
1765877489.556164,490
1765877489.557167,492
1765877489.558152,492
1765877489.5591471,493
1765877489.560137,494
1765877489.561146,493
1765877489.562155,494
1765877489.5631711,494
1765877489.5641642,493
1765877489.565175,494
1765877489.56618,495
1765877489.567189,495
1765877489.568198,495
1765877489.569199,495
1765877489.571318,497
1765877489.571334,496
1765877489.572209,497
1765877489.573192,499
1765877489.574208,497
1765877489.575198,499
1765877489.576195,500
1765877489.577229,497
1765877489.578581,496
1765877489.579329,495
1765877489.5802932,495
1765877489.581301,496
1765877489.5823538,500
1765877489.5833359,502
1765877489.584308,504
1765877489.585325,501
1765877489.5863118,496
1765877489.5873358,495
1765877489.588306,495
1765877489.5892951,496
1765877489.59032,500
1765877489.591321,496
1765877489.592287,498
1765877489.593302,495
1765877489.5942929,496
1765877489.5953012,498
1765877489.596294,501
1765877489.597297,504
1765877489.598293,508
1765877489.5992901,503
1765877489.60029,499
1765877489.601294,498
1765877489.602292,494
1765877489.60331,489
1765877489.604306,489
1765877489.605301,491
1765877489.606335,493
1765877489.607307,492
1765877489.608306,492
1765877489.609301,492
1765877489.610282,493
1765877489.6112902,494
1765877489.612287,495
1765877489.6133,495
1765877489.614295,495
1765877489.615304,495
1765877489.6162932,494
1765877489.617315,493
1765877489.618309,494
1765877489.619315,495
1765877489.620331,495
1765877489.6213388,494
1765877489.622331,495
1765877489.623323,494
1765877489.6243148,496
1765877489.625325,497
1765877489.62632,496
1765877489.627336,499
1765877489.628343,498
1765877489.629363,497
1765877489.6303449,496
1765877489.631336,497
1765877489.632344,495
1765877489.633342,497
1765877489.6343522,497
1765877489.635357,495
1765877489.636396,493
1765877489.637409,493
1765877489.6383932,494
1765877489.639364,495
1765877489.640417,494
1765877489.6413682,495
1765877489.642358,495
1765877489.643378,496
1765877489.6443882,498
1765877489.6453881,499
1765877489.646372,501
1765877489.647388,506
1765877489.648399,506
1765877489.649377,504
1765877489.65039,501
1765877489.651407,492
1765877489.6523929,492
1765877489.6533911,498
1765877489.6544158,498
1765877489.6554,498
1765877489.6564102,498
1765877489.657428,492
1765877489.6584241,489
1765877489.659443,492
1765877489.660449,493
1765877489.661454,492
1765877489.662464,494
1765877489.663465,495
1765877489.664466,492
1765877489.665461,494
1765877489.666445,497
1765877489.667448,499
1765877489.668454,499
1765877489.669465,497
1765877489.670519,494
1765877489.671459,493
1765877489.672448,494
1765877489.673467,494
1765877489.674465,493
1765877489.675468,493
1765877489.6764789,496
1765877489.67748,495
1765877489.678486,495
1765877489.679484,495
1765877489.680483,494
1765877489.681483,494
1765877489.6825001,495
1765877489.683496,497
1765877489.684496,500
1765877489.685486,501
1765877489.686513,502
1765877489.6875148,502
1765877489.688504,498
1765877489.689514,494
1765877489.690512,493
1765877489.6915011,492
1765877489.6925051,491
1765877489.6935182,492
1765877489.694529,492
1765877489.695533,493
1765877489.6965241,494
1765877489.697522,494
1765877489.698517,494
1765877489.699522,494
1765877489.700536,496
1765877489.701547,498
1765877489.7025752,499
1765877489.70357,499
1765877489.704587,496
1765877489.705564,496
1765877489.7065642,496
1765877489.707556,496
1765877489.708568,493
1765877489.709578,492
1765877489.710567,493
1765877489.7115562,495
1765877489.712576,494
1765877489.7135758,493
1765877489.714572,494
1765877489.715584,495
1765877489.7166011,494
1765877489.717581,494
1765877489.718581,495
1765877489.719595,495
1765877489.720602,495
1765877489.721605,495
1765877489.722608,495
1765877489.723607,495
1765877489.724604,495
1765877489.72561,495
1765877489.726609,494
1765877489.7276318,495
1765877489.72861,496
1765877489.729642,498
1765877489.730634,504
1765877489.731627,508
1765877489.732629,512
1765877489.7336278,511
1765877489.734638,508
1765877489.735647,510
1765877489.736626,512
1765877489.73764,504
1765877489.738658,498
1765877489.739647,494
1765877489.7406578,485
1765877489.741673,485
1765877489.742662,488
1765877489.743663,491
1765877489.744684,492
1765877489.745719,492
1765877489.746752,493
1765877489.747701,494
1765877489.748676,495
1765877489.749666,495
1765877489.7506711,495
1765877489.751673,496
1765877489.752672,495
1765877489.753688,495
1765877489.754696,496
1765877489.7557209,496
1765877489.756707,495
1765877489.7576919,490
1765877489.758688,492
1765877489.75969,495
1765877489.7607172,494
1765877489.761698,494
1765877489.7627048,494
1765877489.763699,494
1765877489.764699,494
1765877489.765713,494
1765877489.766745,495
1765877489.7677372,494
1765877489.768737,495
1765877489.76977,495
1765877489.770747,495
1765877489.771756,495
1765877489.772738,495
1765877489.773761,495
1765877489.774736,495
1765877489.775739,495
1765877489.776751,495
1765877489.77774,495
1765877489.778767,495
1765877489.7797709,495
1765877489.780769,495
1765877489.781773,494
1765877489.782778,495
1765877489.783781,495
1765877489.784798,494
1765877489.785793,496
1765877489.786845,495
1765877489.787819,494
1765877489.788795,495
1765877489.789794,494
1765877489.790783,494
1765877489.791786,495
1765877489.792792,495
1765877489.7937868,495
1765877489.794809,495
1765877489.795802,494
1765877489.7968268,494
1765877489.797817,495
1765877489.79882,494
1765877489.799823,495
1765877489.800807,494
1765877489.801835,494
1765877489.802816,495
1765877489.8038342,495
1765877489.804835,495
1765877489.8058329,495
1765877489.8068218,494
1765877489.807828,496
1765877489.808841,496
1765877489.809838,500
1765877489.810844,506
1765877489.811855,511
1765877489.812861,513
1765877489.813854,510
1765877489.8148532,501
1765877489.81586,493
1765877489.8168588,494
1765877489.8178618,494
1765877489.818862,493
1765877489.819873,482
1765877489.820885,485
1765877489.821877,492
1765877489.8228989,490
1765877489.823891,490
1765877489.824886,491
1765877489.8258939,492
1765877489.8269,494
1765877489.827903,495
1765877489.828927,497
1765877489.829925,496
1765877489.830941,498
1765877489.831916,494
1765877489.8329768,495
1765877489.833917,498
1765877489.834914,500
1765877489.835901,499
1765877489.8369129,496
1765877489.837926,495
1765877489.838929,489
1765877489.8399308,491
1765877489.840935,493
1765877489.841939,492
1765877489.842939,492
1765877489.843955,493
1765877489.844959,494
1765877489.845959,494
1765877489.846982,493
1765877489.847966,495
1765877489.8489642,495
1765877489.8499599,495
1765877489.850958,494
1765877489.8519738,497
1765877489.85297,499
1765877489.853968,497
1765877489.854997,497
1765877489.855996,497
1765877489.857004,495
1765877489.857973,493
1765877489.8590028,491
1765877489.859992,491
1765877489.8610282,492
1765877489.862048,492
1765877489.86304,493
1765877489.864036,494
1765877489.865035,494
1765877489.866027,494
1765877489.8670158,495
1765877489.8680289,495
1765877489.8690639,495
1765877489.8701088,495
1765877489.871088,495
1765877489.872055,495
1765877489.873059,496
1765877489.874041,495
1765877489.875069,493
1765877489.876055,493
1765877489.877043,492
1765877489.878059,493
1765877489.879064,494
1765877489.880048,493
1765877489.881048,495
1765877489.882079,496
1765877489.883091,498
1765877489.884081,498
1765877489.885062,497
1765877489.886074,495
1765877489.887082,492
1765877489.888095,494
1765877489.8890948,495
1765877489.890079,495
1765877489.891082,495
1765877489.892097,495
1765877489.893086,495
1765877489.894086,497
1765877489.895126,495
1765877489.896126,492
1765877489.897134,494
1765877489.898124,495
1765877489.89913,495
1765877489.9001532,494
1765877489.901164,495
1765877489.90213,495
1765877489.903145,494
1765877489.9041479,494
1765877489.905188,493
1765877489.906176,494
1765877489.9071732,494
1765877489.908181,494
1765877489.909191,494
1765877489.910193,494
1765877489.9112031,495
1765877489.9122088,494
1765877489.913301,494
1765877489.914294,494
1765877489.915261,494
1765877489.916217,494
1765877489.91721,494
1765877489.9181921,494
1765877489.9191911,494
1765877489.920202,494
1765877489.9212348,494
1765877489.922215,495
1765877489.9232059,495
1765877489.9242072,495
1765877489.925218,495
1765877489.926223,495
1765877489.927265,496
1765877489.9282491,495
1765877489.929226,495
1765877489.930218,494
1765877489.931224,494
1765877489.9322612,494
1765877489.9332402,494
1765877489.934319,494
1765877489.935315,494
1765877489.936309,496
