timestamp,emg_value
1765877516.530499,494
1765877516.530516,495
1765877516.53053,495
1765877516.530543,496
1765877516.530556,496
1765877516.530572,496
1765877516.530585,495
1765877516.530598,494
1765877516.530611,494
1765877516.530625,493
1765877516.530638,493
1765877516.5306509,493
1765877516.530664,494
1765877516.530677,494
1765877516.53069,495
1765877516.530703,496
1765877516.530716,496
1765877516.530729,496
1765877516.530742,496
1765877516.530755,493
1765877516.5307672,493
1765877516.5307798,494
1765877516.530793,495
1765877516.530806,495
1765877516.5308192,495
1765877516.530838,494
1765877516.530855,494
1765877516.530869,493
1765877516.5308821,494
1765877516.530895,494
1765877516.530907,495
1765877516.53092,496
1765877516.530933,497
1765877516.530946,496
1765877516.5309598,493
1765877516.530972,493
1765877516.530986,494
1765877516.530998,493
1765877516.531011,493
1765877516.531024,495
1765877516.5310369,494
1765877516.531051,494
1765877516.531063,494
1765877516.5310762,495
1765877516.5310888,494
1765877516.531102,495
1765877516.531115,495
1765877516.531127,495
1765877516.53114,495
1765877516.531153,495
1765877516.5311658,494
1765877516.531178,493
1765877516.5311959,494
1765877516.531209,495
1765877516.531222,495
1765877516.531235,495
1765877516.531248,495
1765877516.53126,495
1765877516.531273,495
1765877516.531286,496
1765877516.531307,497
1765877516.53132,496
1765877516.5313332,495
1765877516.531345,494
1765877516.531358,493
1765877516.531374,494
1765877516.5313869,493
1765877516.5314,494
1765877516.531413,494
1765877516.531426,494
1765877516.531439,494
1765877516.531451,494
1765877516.5314639,495
1765877516.531477,495
1765877516.53149,494
1765877516.5315042,495
1765877516.531517,494
1765877516.531532,494
1765877516.5315478,494
1765877516.531562,494
1765877516.531575,494
1765877516.5315871,494
1765877516.5315998,494
1765877516.5316129,495
1765877516.531626,496
1765877516.531639,497
1765877516.5316522,499
1765877516.5316648,500
1765877516.531678,502
1765877516.53169,499
1765877516.531703,493
1765877516.531716,493
1765877516.531729,494
1765877516.531743,494
1765877516.531757,492
1765877516.5317702,492
1765877516.5317829,492
1765877516.531796,493
1765877516.531808,494
1765877516.531821,494
1765877516.5318341,495
1765877516.531848,495
1765877516.531861,495
1765877516.531873,495
1765877516.531889,494
1765877516.531904,494
1765877516.531917,494
1765877516.531929,494
1765877516.531942,494
1765877516.531957,495
1765877516.53197,495
1765877516.5319831,495
1765877516.531996,494
1765877516.532009,495
1765877516.532022,495
1765877516.5320342,495
1765877516.532047,495
1765877516.53206,494
1765877516.532073,494
1765877516.5320861,494
1765877516.532099,494
1765877516.532112,494
1765877516.532125,494
1765877516.5321379,494
1765877516.532151,495
1765877516.532164,494
1765877516.5321758,495
1765877516.532189,496
1765877516.532202,497
1765877516.532217,499
1765877516.532233,502
1765877516.532248,502
1765877516.5322611,500
1765877516.532275,498
1765877516.532288,492
1765877516.532301,490
1765877516.532314,492
1765877516.532327,492
1765877516.5323389,492
1765877516.532352,493
1765877516.532365,492
1765877516.5323782,492
1765877516.5323908,493
1765877516.532404,493
1765877516.532417,493
1765877516.5324302,494
1765877516.5324428,494
1765877516.532456,495
1765877516.532469,494
1765877516.5324821,495
1765877516.532495,494
1765877516.532508,494
1765877516.532521,494
1765877516.5325341,494
1765877516.532547,494
1765877516.5325592,495
1765877516.5325718,495
1765877516.5325902,495
1765877516.5326028,494
1765877516.532616,495
1765877516.532629,495
1765877516.532641,494
1765877516.532654,494
1765877516.532667,495
1765877516.53268,495
1765877516.532693,495
1765877516.532706,495
1765877516.5327191,495
1765877516.532732,494
1765877516.532745,495
1765877516.532758,495
1765877516.532771,495
1765877516.5327842,497
1765877516.532798,494
1765877516.532811,492
1765877516.532824,492
1765877516.5328372,493
1765877516.53285,494
1765877516.532863,494
1765877516.532876,495
1765877516.5328891,495
1765877516.532902,495
1765877516.5329149,493
1765877516.532932,495
1765877516.5329459,494
1765877516.532959,494
1765877516.532971,494
1765877516.532984,495
1765877516.5329971,494
1765877516.53301,494
1765877516.5330229,495
1765877516.533036,494
1765877516.533049,494
1765877516.533062,495
1765877516.5330749,495
1765877516.533088,495
1765877516.533101,495
1765877516.5331142,496
1765877516.5331268,495
1765877516.53314,497
1765877516.533152,496
1765877516.5331662,494
1765877516.5331788,492
1765877516.533192,495
1765877516.533205,495
1765877516.5332181,495
1765877516.533231,496
1765877516.533244,497
1765877516.533257,496
1765877516.5332742,496
1765877516.53329,497
1765877516.533303,497
1765877516.5333161,498
1765877516.5333278,498
1765877516.533341,495
1765877516.533354,492
1765877516.5333672,492
1765877516.53338,493
1765877516.533393,493
1765877516.533406,493
1765877516.533419,492
1765877516.533432,492
1765877516.5334442,493
1765877516.5334568,494
1765877516.53347,495
1765877516.533483,495
1765877516.5334961,496
1765877516.533509,496
1765877516.533522,495
1765877516.533534,495
1765877516.533547,494
1765877516.53356,494
1765877516.5335732,494
1765877516.533586,494
1765877516.5336,494
1765877516.533616,494
1765877516.533632,494
1765877516.533646,494
1765877516.533659,495
1765877516.5336719,495
1765877516.533685,494
1765877516.533698,494
1765877516.5337112,494
1765877516.5337238,494
1765877516.533737,494
1765877516.53375,495
1765877516.5337632,495
1765877516.5337758,495
1765877516.533789,495
1765877516.533801,496
1765877516.533814,497
1765877516.533827,498
1765877516.53384,499
1765877516.5338528,499
1765877516.533866,498
1765877516.533879,493
1765877516.533891,492
1765877516.5339038,496
1765877516.533917,494
1765877516.53393,494
1765877516.533943,494
1765877516.533959,494
1765877516.533973,493
1765877516.533986,494
1765877516.5339992,493
1765877516.5340118,493
1765877516.534025,494
1765877516.5340369,494
1765877516.53405,494
1765877516.534063,494
1765877516.534076,494
1765877516.5340889,494
1765877516.534102,494
1765877516.534115,495
1765877516.5341282,494
1765877516.5341408,494
1765877516.534154,495
1765877516.534167,495
1765877516.5341802,495
1765877516.5341928,495
1765877516.534206,495
1765877516.534219,494
1765877516.5342321,494
1765877516.534245,494
1765877516.534257,494
1765877516.534271,495
1765877516.534283,496
1765877516.534296,496
1765877516.534313,496
1765877516.534326,497
1765877516.5343392,496
1765877516.534351,495
1765877516.534364,495
1765877516.5343769,495
1765877516.53439,496
1765877516.534403,496
1765877516.534416,495
1765877516.5344288,496
1765877516.534443,496
1765877516.534456,496
1765877516.5344691,496
1765877516.534482,496
1765877516.5344949,496
1765877516.534507,496
1765877516.5345201,494
1765877516.534533,496
1765877516.534546,497
1765877516.534559,498
1765877516.5345721,499
1765877516.534585,498
1765877516.5345979,497
1765877516.534611,497
1765877516.534624,494
1765877516.534637,495
1765877516.534655,496
1765877516.534668,495
1765877516.534681,496
1765877516.534694,493
1765877516.5347059,493
1765877516.534719,494
1765877516.534732,495
1765877516.534745,493
1765877516.5347579,493
1765877516.534771,492
1765877516.534784,492
1765877516.534797,493
1765877516.53481,494
1765877516.534822,493
1765877516.534836,493
1765877516.534849,494
1765877516.534862,494
1765877516.534875,494
1765877516.534888,495
1765877516.534901,495
1765877516.534914,495
1765877516.5349271,495
1765877516.53494,495
1765877516.534952,495
1765877516.534966,495
1765877516.5349782,494
1765877516.534994,494
1765877516.535009,495
1765877516.535022,495
1765877516.535035,494
1765877516.535048,495
1765877516.535061,495
1765877516.535074,495
1765877516.535087,495
1765877516.5351,495
1765877516.5351129,494
1765877516.535125,494
1765877516.5351381,494
1765877516.535151,495
1765877516.5351639,495
1765877516.535177,495
1765877516.53519,494
1765877516.535203,495
1765877516.535216,495
1765877516.535229,495
1765877516.535242,495
1765877516.535255,495
1765877516.535268,495
1765877516.535281,495
1765877516.535294,494
1765877516.535307,494
1765877516.53532,494
1765877516.535336,495
1765877516.535351,495
1765877516.5353642,497
1765877516.5353768,497
1765877516.53539,499
1765877516.535403,498
1765877516.5354161,495
1765877516.535429,498
1765877516.5354419,499
1765877516.535455,498
1765877516.535468,496
1765877516.535481,494
1765877516.5354939,490
1765877516.535507,492
1765877516.535521,492
1765877516.5355341,493
1765877516.5355468,493
1765877516.53556,492
1765877516.535573,494
1765877516.535586,495
1765877516.535599,495
1765877516.5356119,496
1765877516.535625,497
1765877516.535638,498
1765877516.5356522,494
1765877516.5356648,495
1765877516.535726,493
1765877516.535867,492
1765877516.5358841,493
1765877516.5358982,494
1765877516.535912,494
1765877516.535925,495
1765877516.535939,495
1765877516.5359519,495
1765877516.535966,495
1765877516.535981,494
1765877516.535994,494
1765877516.536008,494
1765877516.536021,494
1765877516.536034,495
1765877516.5360482,495
1765877516.5360608,495
1765877516.536074,495
1765877516.536087,495
1765877516.5361001,495
1765877516.536114,495
1765877516.536127,494
1765877516.5361412,495
1765877516.536154,495
1765877516.536167,494
1765877516.53618,494
1765877516.536194,495
1765877516.536211,495
1765877516.536225,495
1765877516.5362391,495
1765877516.536252,495
1765877516.536265,495
1765877516.536278,497
1765877516.5362911,499
1765877516.5363588,500
1765877516.536373,497
1765877516.536386,497
1765877516.5363991,496
1765877516.536412,495
1765877516.5364249,492
1765877516.536438,494
1765877516.536451,495
1765877516.536464,496
1765877516.5364769,494
1765877516.53649,495
1765877516.536503,494
1765877516.536515,494
1765877516.5365279,494
1765877516.536541,495
1765877516.536554,495
1765877516.536567,494
1765877516.5365791,494
1765877516.5365918,495
1765877516.536614,494
1765877516.536629,494
1765877516.536642,494
1765877516.5366552,495
1765877516.5366678,495
1765877516.536681,495
1765877516.536694,494
1765877516.5367072,495
1765877516.5367198,496
1765877516.536733,495
1765877516.536746,494
1765877516.5367591,495
1765877516.536772,495
1765877516.5367858,496
1765877516.536799,497
1765877516.536812,499
1765877516.5368252,497
1765877516.5368378,496
1765877516.53685,494
1765877516.536863,494
1765877516.536876,495
1765877516.536889,495
1765877516.536902,494
1765877516.5369148,495
1765877516.536928,495
1765877516.536941,495
1765877516.5369542,495
1765877516.536971,495
1765877516.536984,495
1765877516.536997,495
1765877516.53701,495
1765877516.537023,495
1765877516.537036,495
1765877516.537049,495
1765877516.537062,496
1765877516.537075,495
1765877516.537088,495
1765877516.537101,497
1765877516.5371141,495
1765877516.5371258,496
1765877516.53714,495
1765877516.537153,495
1765877516.5371652,495
1765877516.537178,495
1765877516.5371919,495
1765877516.537205,495
1765877516.537218,496
1765877516.5372312,494
1765877516.5372438,493
1765877516.537258,495
1765877516.537271,496
1765877516.5372841,496
1765877516.537298,496
1765877516.537318,496
1765877516.537334,496
1765877516.537353,493
1765877516.5373719,494
1765877516.53739,495
1765877516.5374029,494
1765877516.537415,494
1765877516.537429,494
1765877516.537442,495
1765877516.5374541,496
1765877516.5374668,495
1765877516.5374799,496
1765877516.537493,496
1765877516.537506,496
1765877516.5375192,496
1765877516.5375319,496
1765877516.537545,496
1765877516.537558,494
1765877516.53757,494
1765877516.537583,494
1765877516.537596,494
1765877516.5376089,495
1765877516.537622,494
1765877516.537635,495
1765877516.5376482,495
1765877516.5376608,495
1765877516.537677,495
1765877516.5376909,495
1765877516.537704,496
1765877516.537717,496
1765877516.53773,496
1765877516.5377421,496
1765877516.5377548,496
1765877516.537768,495
1765877516.537781,494
1765877516.537795,495
1765877516.537807,495
1765877516.5378199,496
1765877516.537833,494
1765877516.537846,495
1765877516.537859,495
1765877516.5378718,494
1765877516.537885,494
1765877516.537898,495
1765877516.537911,495
1765877516.537924,497
1765877516.537937,498
1765877516.53795,498
1765877516.537963,498
1765877516.537976,497
1765877516.5379882,495
1765877516.5380008,491
1765877516.538017,493
1765877516.538032,494
1765877516.538045,494
1765877516.538058,496
1765877516.5380712,497
1765877516.538084,497
1765877516.538097,497
1765877516.53811,496
1765877516.538123,492
1765877516.538136,492
1765877516.538149,493
1765877516.538162,494
1765877516.5381749,495
1765877516.538188,495
1765877516.538201,495
1765877516.538214,495
1765877516.5382268,496
1765877516.53824,495
1765877516.538253,495
1765877516.5382662,495
1765877516.5382788,494
1765877516.538292,494
1765877516.538305,494
1765877516.538317,495
1765877516.53833,495
1765877516.538343,496
1765877516.538359,495
1765877516.538374,495
1765877516.538387,495
1765877516.5384,495
1765877516.538413,493
1765877516.5384262,493
1765877516.5384388,495
1765877516.538452,495
1765877516.538465,495
1765877516.5384781,495
1765877516.5384908,495
1765877516.538504,494
1765877516.538517,494
1765877516.53853,495
1765877516.538542,495
1765877516.538555,495
1765877516.538568,495
1765877516.538581,495
1765877516.538594,495
1765877516.53861,495
1765877516.538628,495
1765877516.538647,495
1765877516.538665,495
1765877516.538684,495
1765877516.538702,495
1765877516.538721,495
1765877516.5387409,495
1765877516.538765,495
1765877516.538784,496
1765877516.5388029,496
1765877516.538822,496
1765877516.53884,496
1765877516.538859,497
1765877516.538878,496
1765877516.5388958,494
1765877516.5389152,494
1765877516.538934,494
1765877516.5389519,494
1765877516.538971,494
1765877516.53899,495
1765877516.539008,495
1765877516.539027,495
1765877516.539045,495
1765877516.5390642,494
1765877516.539082,495
1765877516.539101,495
1765877516.5391202,495
1765877516.539138,495
1765877516.539157,495
1765877516.5391748,495
1765877516.539194,495
1765877516.539213,495
1765877516.539232,495
1765877516.5392551,496
1765877516.539273,498
1765877516.539291,499
1765877516.53931,499
1765877516.539328,497
1765877516.539354,494
1765877516.5393732,496
1765877516.539391,496
1765877516.5394099,495
1765877516.5394292,496
1765877516.539447,496
1765877516.539466,496
1765877516.5394838,496
1765877516.5395021,496
1765877516.539521,493
1765877516.53954,494
1765877516.539558,495
1765877516.539577,495
1765877516.5395951,495
1765877516.539614,495
1765877516.539632,497
1765877516.5396512,496
1765877516.539669,495
1765877516.5396879,496
1765877516.5397062,496
1765877516.539725,496
1765877516.5397491,494
1765877516.539767,495
1765877516.539786,495
1765877516.539804,495
1765877516.539823,495
1765877516.539841,495
1765877516.53986,494
1765877516.539878,497
1765877516.5398972,496
1765877516.539916,496
1765877516.539934,497
1765877516.539953,497
1765877516.539971,495
1765877516.53999,495
1765877516.540009,495
1765877516.540027,496
1765877516.540046,496
1765877516.540065,495
1765877516.540083,495
1765877516.540102,495
1765877516.540121,495
1765877516.540139,495
1765877516.5401568,495
1765877516.540176,494
1765877516.540195,494
1765877516.540213,494
1765877516.540233,494
1765877516.540246,495
1765877516.5402591,494
1765877516.5402722,494
1765877516.5402849,497
1765877516.540298,497
1765877516.540311,497
1765877516.5403242,497
1765877516.5403368,496
1765877516.540351,494
1765877516.5404558,493
1765877516.5404742,495
1765877516.5404868,495
1765877516.540499,495
1765877516.54051,495
1765877516.540522,494
1765877516.540534,495
1765877516.540546,495
1765877516.540558,495
1765877516.540569,494
1765877516.5405812,495
1765877516.540593,495
1765877516.54061,495
1765877516.5406249,497
1765877516.540638,498
1765877516.54065,499
1765877516.540666,498
1765877516.54068,496
1765877516.5406919,495
1765877516.540704,492
1765877516.540716,494
1765877516.5407271,494
1765877516.540739,493
1765877516.5407512,493
1765877516.540763,494
1765877516.540777,494
1765877516.540789,494
1765877516.540802,495
1765877516.540813,495
1765877516.5408251,495
1765877516.540837,495
1765877516.540849,495
1765877516.54086,495
1765877516.5408719,495
1765877516.540891,497
1765877516.540905,498
1765877516.54092,497
1765877516.5409331,495
1765877516.5409448,496
1765877516.540956,493
1765877516.540968,494
1765877516.5409799,494
1765877516.5409951,495
1765877516.541009,496
1765877516.5410209,494
1765877516.541033,494
1765877516.541045,494
1765877516.541056,494
1765877516.541068,495
1765877516.54108,495
1765877516.5410922,494
1765877516.541109,495
1765877516.541124,495
1765877516.541137,495
1765877516.5411499,495
1765877516.541165,495
1765877516.541177,495
1765877516.5411892,495
1765877516.541203,495
1765877516.541217,495
1765877516.541229,496
1765877516.5412412,497
1765877516.54126,497
1765877516.541273,496
1765877516.541285,497
1765877516.541297,498
1765877516.5413089,495
1765877516.541321,496
1765877516.541335,495
1765877516.541347,494
1765877516.5413592,493
1765877516.541376,493
1765877516.541397,494
1765877516.54144,494
1765877516.541454,493
1765877516.541467,494
1765877516.5414789,494
1765877516.541491,494
1765877516.5415308,495
1765877516.5415459,495
1765877516.541559,494
1765877516.5415711,494
1765877516.5415838,495
1765877516.541596,494
1765877516.541609,494
1765877516.541621,495
1765877516.541634,494
1765877516.541646,495
1765877516.5416582,495
1765877516.5416698,495
1765877516.541683,495
1765877516.5416949,495
1765877516.541707,495
1765877516.541719,495
1765877516.541735,495
1765877516.541748,495
1765877516.541761,496
1765877516.541773,496
1765877516.541785,497
1765877516.5417972,497
1765877516.54181,496
1765877516.541822,495
1765877516.5418339,495
1765877516.541847,493
1765877516.541861,495
1765877516.541873,494
1765877516.541885,493
1765877516.541899,493
1765877516.5419111,494
1765877516.541923,493
1765877516.5419362,495
1765877516.5419478,495
1765877516.54196,494
1765877516.541972,495
1765877516.541984,495
1765877516.541997,494
1765877516.542009,494
1765877516.542021,494
1765877516.542033,494
1765877516.5420449,495
1765877516.5420601,494
1765877516.5420742,495
1765877516.5420868,495
1765877516.542099,496
1765877516.542111,496
1765877516.542123,496
1765877516.542136,497
1765877516.5421472,495
1765877516.5421598,494
1765877516.542172,495
1765877516.542185,497
1765877516.542197,497
1765877516.542209,498
1765877516.542221,495
1765877516.542233,493
1765877516.5422451,492
1765877516.542258,494
1765877516.54227,493
1765877516.5422819,493
1765877516.542294,494
1765877516.542306,494
1765877516.542318,494
1765877516.54233,494
1765877516.542342,495
1765877516.5423539,494
1765877516.542366,494
1765877516.542381,494
1765877516.5423949,495
1765877516.5424068,494
1765877516.54242,494
1765877516.5424309,494
1765877516.542444,494
1765877516.5424562,495
1765877516.542468,495
1765877516.542481,495
1765877516.5424929,496
1765877516.542505,495
1765877516.542517,495
1765877516.542529,496
1765877516.542541,495
1765877516.5425532,494
1765877516.542565,495
1765877516.542578,496
1765877516.542602,496
1765877516.542615,496
1765877516.542628,495
1765877516.5426402,495
1765877516.5426528,495
1765877516.542666,494
1765877516.542678,495
1765877516.542691,494
1765877516.54272,494
1765877516.542738,494
1765877516.542754,495
1765877516.542767,495
1765877516.542779,494
1765877516.542791,494
1765877516.542803,494
1765877516.542817,495
1765877516.54283,494
1765877516.5428421,495
1765877516.542855,495
1765877516.542867,494
1765877516.5428789,495
1765877516.542899,494
1765877516.542911,495
1765877516.542924,495
1765877516.542936,495
1765877516.5429492,494
1765877516.542961,495
1765877516.542973,495
1765877516.542985,494
1765877516.542997,494
1765877516.543009,494
1765877516.5430222,494
1765877516.543034,494
1765877516.543046,495
1765877516.543058,495
1765877516.543072,496
1765877516.543087,495
1765877516.5430999,495
1765877516.543112,495
1765877516.543124,495
1765877516.543136,495
1765877516.543148,495
1765877516.543159,495
1765877516.5431712,495
1765877516.5431821,495
1765877516.543194,495
1765877516.543206,495
1765877516.543217,495
1765877516.5432289,495
1765877516.543241,495
1765877516.543252,495
1765877516.543266,495
1765877516.5432801,495
1765877516.543294,494
1765877516.5433059,495
1765877516.5433202,494
1765877516.543332,495
1765877516.543345,494
1765877516.543356,494
1765877516.543369,495
1765877516.543381,496
1765877516.543395,495
1765877516.5434089,495
1765877516.543422,495
1765877516.543433,495
1765877516.543445,495
1765877516.543457,495
1765877516.543469,495
1765877516.543485,495
1765877516.5435011,495
1765877516.543515,495
1765877516.54353,494
1765877516.543541,495
1765877516.543553,495
1765877516.543565,494
1765877516.5435772,494
1765877516.5435882,494
1765877516.543605,495
1765877516.54362,495
1765877516.543635,495
1765877516.543647,495
1765877516.543659,495
1765877516.5436711,495
1765877516.543684,495
1765877516.5436969,495
1765877516.543709,495
1765877516.543721,495
1765877516.543735,495
1765877516.543751,495
1765877516.543763,495
1765877516.543775,495
1765877516.543786,495
1765877516.543798,495
1765877516.5438101,495
1765877516.543821,495
1765877516.543833,495
1765877516.543851,495
1765877516.5438652,495
1765877516.5438788,495
1765877516.543904,495
1765877516.543916,495
1765877516.5439281,495
1765877516.543941,496
1765877516.543953,495
1765877516.5439649,495
1765877516.543977,495
1765877516.543989,495
1765877516.544001,495
1765877516.544013,495
1765877516.5440252,494
1765877516.544037,495
1765877516.5440488,495
1765877516.544061,496
1765877516.544075,495
1765877516.54409,495
1765877516.544102,496
1765877516.5441148,494
1765877516.544128,495
1765877516.544141,495
1765877516.5441542,495
1765877516.544169,495
1765877516.544181,495
1765877516.544193,495
1765877516.544205,495
1765877516.544217,495
1765877516.544228,495
1765877516.5442402,495
1765877516.544251,495
1765877516.544263,495
1765877516.544275,495
1765877516.544287,495
1765877516.544298,495
1765877516.54431,495
1765877516.544321,495
1765877516.5443451,496
1765877516.544359,496
1765877516.544372,496
1765877516.544384,496
1765877516.544396,496
1765877516.544409,496
1765877516.544422,496
1765877516.5444338,496
1765877516.544447,496
1765877516.544459,496
1765877516.544472,496
1765877516.5444841,495
1765877516.544496,495
1765877516.544508,496
1765877516.54452,496
1765877516.544532,497
1765877516.544545,497
1765877516.544557,496
1765877516.544569,495
1765877516.5445812,495
1765877516.5445929,495
1765877516.544605,494
1765877516.544617,495
1765877516.544629,495
1765877516.544642,495
1765877516.5446541,495
1765877516.544666,496
1765877516.544678,496
1765877516.54469,495
1765877516.544702,494
1765877516.544715,494
1765877516.5447779,495
1765877516.5448132,495
1765877516.544828,495
1765877516.5448442,495
1765877516.54486,494
1765877516.544875,495
1765877516.544889,495
1765877516.5449018,495
1765877516.544915,495
1765877516.544928,496
1765877516.544941,495
1765877516.544954,495
1765877516.544967,495
1765877516.54498,495
1765877516.544992,495
1765877516.545005,495
1765877516.545025,494
1765877516.545038,494
1765877516.5450509,494
1765877516.545064,495
1765877516.545077,496
1765877516.54509,495
1765877516.545103,494
1765877516.545116,495
1765877516.545129,495
1765877516.545142,495
1765877516.545158,495
1765877516.545173,494
1765877516.545186,495
1765877516.5451992,495
1765877516.5452108,495
1765877516.545224,495
1765877516.545237,495
1765877516.54525,495
1765877516.5452642,496
1765877516.5452769,495
1765877516.54529,495
1765877516.545303,495
1765877516.545316,495
1765877516.5453281,495
1765877516.545341,495
1765877516.545354,495
1765877516.545366,495
1765877516.5453792,496
1765877516.545392,495
1765877516.545405,496
1765877516.545418,495
1765877516.5454311,495
1765877516.545444,495
1765877516.545457,495
1765877516.54547,495
1765877516.545483,495
1765877516.5454988,495
1765877516.545513,496
1765877516.545526,496
1765877516.545538,495
1765877516.545551,495
1765877516.545565,495
1765877516.545578,494
1765877516.54559,495
1765877516.545603,494
1765877516.545616,495
1765877516.545629,495
1765877516.545642,494
1765877516.545655,494
1765877516.5456681,495
1765877516.5456798,495
1765877516.545693,495
1765877516.545706,494
1765877516.5457191,494
1765877516.545739,495
1765877516.545752,495
1765877516.5457652,495
1765877516.545778,496
1765877516.54579,495
1765877516.545803,496
1765877516.5458162,495
1765877516.545829,495
1765877516.545842,495
1765877516.54586,495
1765877516.545873,494
1765877516.5458848,495
1765877516.545899,495
1765877516.545913,495
1765877516.5459251,495
1765877516.545939,496
1765877516.545952,496
1765877516.545965,495
1765877516.545978,495
1765877516.545991,495
1765877516.546004,494
1765877516.546017,495
1765877516.54603,495
1765877516.546043,496
1765877516.546056,496
1765877516.546068,495
1765877516.546081,494
1765877516.5460942,494
1765877516.5461068,495
1765877516.54612,494
1765877516.546133,494
1765877516.5461462,494
1765877516.546159,495
1765877516.546172,496
1765877516.5461838,495
1765877516.546203,495
1765877516.546216,495
1765877516.546229,495
1765877516.546242,494
1765877516.546255,494
1765877516.546268,495
1765877516.5462809,495
1765877516.546293,495
1765877516.5463061,495
1765877516.546319,495
1765877516.546332,495
1765877516.546345,495
1765877516.546358,495
1765877516.54637,496
1765877516.5463831,495
1765877516.546396,495
1765877516.546409,496
1765877516.546422,496
1765877516.546435,496
1765877516.5464478,496
1765877516.5464609,495
1765877516.546484,495
1765877516.546497,495
1765877516.54651,495
1765877516.5465229,496
1765877516.546536,495
1765877516.546554,496
1765877516.546567,495
1765877516.54658,495
1765877516.546593,495
1765877516.546606,495
1765877516.546619,495
1765877516.5466309,495
1765877516.546645,495
1765877516.546657,495
1765877516.5466702,495
1765877516.5466828,495
1765877516.546697,495
1765877516.54671,494
1765877516.5467231,494
1765877516.5467362,494
1765877516.546748,494
1765877516.546761,495
1765877516.546774,495
1765877516.546787,496
1765877516.5468001,496
1765877516.546813,496
1765877516.546826,495
1765877516.546839,495
1765877516.546852,496
1765877516.546865,495
1765877516.5468779,495
1765877516.546894,495
1765877516.546908,495
1765877516.546921,495
1765877516.5469341,495
1765877516.546947,496
1765877516.5469599,496
1765877516.546973,496
1765877516.546986,495
1765877516.546999,494
1765877516.547012,495
1765877516.547025,495
1765877516.547037,495
1765877516.547057,495
1765877516.54707,495
1765877516.547083,496
1765877516.547096,495
1765877516.5471091,495
1765877516.547122,495
1765877516.5471349,494
1765877516.547148,494
1765877516.547161,494
1765877516.547174,494
1765877516.5471869,495
1765877516.5472,494
1765877516.547213,493
1765877516.5472262,495
1765877516.547241,495
1765877516.547256,495
1765877516.547269,495
1765877516.547282,496
1765877516.547295,496
1765877516.547308,497
1765877516.5473201,496
1765877516.547333,496
1765877516.5473459,495
1765877516.547359,495
1765877516.547372,495
1765877516.547385,496
1765877516.5473979,495
1765877516.54741,495
1765877516.547423,496
1765877516.547437,496
1765877516.547449,497
1765877516.547462,497
1765877516.5474749,497
1765877516.547488,496
1765877516.547501,494
1765877516.5475142,493
1765877516.547528,492
1765877516.547541,492
1765877516.547554,494
1765877516.5475671,495
1765877516.547582,496
1765877516.5475972,496
1765877516.54761,495
1765877516.547623,496
1765877516.547636,495
1765877516.547649,496
1765877516.547662,495
1765877516.547675,495
1765877516.547688,496
1765877516.547701,496
1765877516.547713,496
1765877516.5477262,496
1765877516.5477388,496
1765877516.547752,495
1765877516.547765,495
1765877516.5477781,495
1765877516.547791,496
1765877516.5478039,495
1765877516.547818,496
1765877516.547831,495
1765877516.5478442,495
1765877516.5478568,494
1765877516.54787,494
1765877516.547883,495
1765877516.547908,495
1765877516.547921,496
1765877516.547934,495
1765877516.547953,492
1765877516.547966,492
1765877516.547979,494
1765877516.547992,495
1765877516.548005,494
1765877516.548018,494
1765877516.548031,497
1765877516.548044,497
1765877516.548057,495
1765877516.54807,495
1765877516.5480828,495
1765877516.548096,496
1765877516.548109,495
1765877516.5481222,495
1765877516.5481348,495
1765877516.548147,495
1765877516.54816,495
1765877516.548173,496
1765877516.548186,497
1765877516.548199,497
1765877516.5482528,497
1765877516.548269,496
1765877516.5482821,495
1765877516.548295,494
1765877516.548309,495
1765877516.548322,494
1765877516.548357,493
1765877516.54837,494
1765877516.548383,494
1765877516.548396,494
1765877516.548409,495
1765877516.5484219,495
1765877516.548435,496
1765877516.548449,495
1765877516.5484622,496
1765877516.5484748,495
1765877516.548488,495
1765877516.548501,496
1765877516.548515,496
1765877516.5485282,496
1765877516.5485408,495
1765877516.548554,495
1765877516.548567,496
1765877516.5485802,496
1765877516.5485928,495
1765877516.548606,494
1765877516.548619,494
1765877516.5486321,495
1765877516.548645,494
1765877516.5486588,495
1765877516.548672,494
1765877516.548685,494
1765877516.5487008,494
1765877516.548716,495
1765877516.5487292,496
1765877516.5487418,494
1765877516.548755,495
1765877516.548768,496
1765877516.5487812,496
1765877516.548795,495
1765877516.5488079,495
1765877516.548821,496
1765877516.548834,495
1765877516.5488472,495
1765877516.5488598,495
1765877516.548874,495
1765877516.548887,495
1765877516.548901,495
1765877516.548914,495
1765877516.548927,495
1765877516.54894,496
1765877516.548953,496
1765877516.548966,496
1765877516.548979,496
1765877516.548993,494
1765877516.549006,495
1765877516.5490189,495
1765877516.549032,495
1765877516.549048,494
1765877516.549063,494
1765877516.549076,495
1765877516.549089,495
1765877516.549102,495
1765877516.549115,496
1765877516.5491269,497
1765877516.549141,497
1765877516.549154,497
1765877516.5491672,497
1765877516.5491798,497
1765877516.549192,497
1765877516.549205,496
1765877516.549218,496
1765877516.549231,496
1765877516.549244,497
1765877516.549257,496
1765877516.54927,497
1765877516.549283,496
1765877516.5492961,496
1765877516.549309,495
1765877516.549321,495
1765877516.549334,495
1765877516.5493472,496
1765877516.549361,496
1765877516.5493739,496
1765877516.5493891,496
1765877516.549404,496
1765877516.549417,496
1765877516.5494301,495
1765877516.549443,496
1765877516.5494568,496
1765877516.549469,496
1765877516.5494819,496
1765877516.549495,496
1765877516.549508,495
1765877516.549521,495
1765877516.5495338,496
1765877516.549547,495
1765877516.54956,496
1765877516.549574,496
1765877516.549587,496
1765877516.5496,496
1765877516.549612,496
1765877516.5496252,496
1765877516.5496378,497
1765877516.549658,497
1765877516.549671,496
1765877516.549684,496
1765877516.549697,497
1765877516.54971,497
1765877516.549723,496
1765877516.549737,496
1765877516.5497558,494
1765877516.549769,494
1765877516.549782,495
1765877516.5497952,495
1765877516.549808,495
1765877516.549821,496
1765877516.549835,495
1765877516.549848,495
1765877516.5498612,496
1765877516.5498738,496
1765877516.549887,495
1765877516.5499,495
1765877516.5499132,495
1765877516.5499258,496
1765877516.549939,495
1765877516.549952,495
1765877516.5499651,495
1765877516.549978,496
1765877516.549991,496
1765877516.550004,495
1765877516.550018,496
1765877516.550119,495
1765877516.5501912,495
1765877516.550208,495
1765877516.5502222,495
1765877516.550236,496
1765877516.550324,496
1765877516.550378,496
1765877516.550393,495
1765877516.550406,496
1765877516.55042,496
1765877516.550467,495
1765877516.5504808,494
1765877516.5505311,494
1765877516.550553,496
1765877516.550567,496
1765877516.550581,496
1765877516.550594,496
1765877516.550608,496
1765877516.550621,496
1765877516.550635,496
1765877516.550648,496
1765877516.550661,496
1765877516.550674,495
1765877516.550688,495
1765877516.550702,494
1765877516.550715,494
1765877516.5507278,495
1765877516.550741,496
1765877516.550754,496
1765877516.5507672,496
1765877516.550781,496
1765877516.5507998,496
1765877516.550814,496
1765877516.550827,497
1765877516.5508401,496
1765877516.550853,495
1765877516.550866,495
1765877516.55088,495
1765877516.550893,495
1765877516.5509062,495
1765877516.5509188,495
1765877516.550931,496
1765877516.550945,496
1765877516.5509582,495
1765877516.5509708,496
1765877516.550984,495
1765877516.550997,496
1765877516.551011,495
1765877516.5510242,495
1765877516.5510368,496
1765877516.55105,495
1765877516.551064,495
1765877516.5510771,496
1765877516.55119,497
1765877516.5512052,497
1765877516.551218,496
1765877516.551231,496
1765877516.5512488,496
1765877516.551262,496
1765877516.551275,495
1765877516.5512881,495
1765877516.551301,495
1765877516.5513139,496
1765877516.551327,496
1765877516.55134,495
1765877516.551353,495
1765877516.5513659,496
1765877516.55138,495
1765877516.551393,496
1765877516.5514061,495
1765877516.5514188,495
1765877516.551432,495
1765877516.551445,495
1765877516.5514581,496
1765877516.551471,496
1765877516.5514839,495
1765877516.551497,495
1765877516.55151,495
1765877516.55153,495
1765877516.551543,496
1765877516.551556,496
1765877516.551569,496
1765877516.5515819,496
1765877516.551597,496
1765877516.551611,497
1765877516.5516238,497
1765877516.551637,497
1765877516.55165,496
1765877516.5516632,495
1765877516.5516758,494
1765877516.551689,494
1765877516.551702,494
1765877516.5517151,494
1765877516.55173,495
1765877516.551743,496
1765877516.5517561,496
1765877516.5517702,495
1765877516.5517828,495
1765877516.551795,496
1765877516.551808,496
1765877516.551828,496
1765877516.551841,496
1765877516.551855,495
1765877516.551868,495
1765877516.551881,495
1765877516.551894,496
1765877516.5519118,495
1765877516.551925,496
1765877516.551939,495
1765877516.551954,495
1765877516.551968,496
1765877516.551981,496
1765877516.551994,495
1765877516.552007,496
1765877516.55202,495
1765877516.552033,496
1765877516.552046,495
1765877516.55206,495
1765877516.552072,496
1765877516.552085,496
1765877516.552098,495
1765877516.5521111,496
1765877516.5521238,496
1765877516.552137,495
1765877516.55215,495
1765877516.5521631,496
1765877516.5521762,496
1765877516.5521889,495
1765877516.552202,496
1765877516.552215,496
1765877516.5522282,496
1765877516.5522408,496
1765877516.552254,496
1765877516.552267,495
1765877516.55228,496
1765877516.5523012,495
1765877516.552315,496
1765877516.552335,495
1765877516.552348,495
1765877516.552361,496
1765877516.552383,496
1765877516.552402,496
1765877516.552415,496
1765877516.552428,496
1765877516.552446,495
1765877516.552459,495
1765877516.552473,496
1765877516.5524852,496
1765877516.5524979,495
1765877516.552511,496
1765877516.552524,495
1765877516.5525372,495
1765877516.5525498,495
1765877516.55257,496
1765877516.552583,496
1765877516.552595,495
1765877516.552609,495
1765877516.552622,496
1765877516.552635,496
1765877516.5526469,495
1765877516.55266,495
1765877516.552673,494
1765877516.552692,495
1765877516.552705,496
1765877516.5527182,495
1765877516.5527308,496
1765877516.552744,495
1765877516.552757,496
1765877516.5527701,495
1765877516.552782,496
1765877516.552795,496
1765877516.552808,496
1765877516.552821,495
1765877516.552834,496
1765877516.5528462,496
1765877516.5528588,496
1765877516.552872,496
1765877516.552885,495
1765877516.552898,495
1765877516.5529249,496
1765877516.552938,495
1765877516.552951,495
1765877516.5529642,495
1765877516.5529768,495
1765877516.55299,496
1765877516.553003,496
1765877516.553016,495
1765877516.553029,496
1765877516.553047,496
1765877516.55306,496
1765877516.553073,495
1765877516.553086,496
1765877516.553098,495
1765877516.553111,496
1765877516.5531242,496
1765877516.5531368,496
1765877516.55315,496
1765877516.553163,495
1765877516.553177,495
1765877516.55319,495
1765877516.5532029,495
1765877516.553216,496
1765877516.553229,495
1765877516.5532422,496
1765877516.5532548,496
1765877516.553268,495
1765877516.553281,495
1765877516.5532942,496
1765877516.5533068,495
1765877516.55332,495
1765877516.553333,495
1765877516.5533462,495
1765877516.553359,495
1765877516.553372,495
1765877516.553388,496
1765877516.5534022,496
1765877516.5534148,496
1765877516.553428,496
1765877516.55344,495
1765877516.553453,495
1765877516.553466,496
1765877516.553479,496
1765877516.553492,495
1765877516.553505,495
1765877516.553518,495
1765877516.553531,495
1765877516.5535429,495
1765877516.5535629,495
1765877516.553576,495
1765877516.553589,495
1765877516.553602,496
1765877516.5536141,495
1765877516.5536268,496
1765877516.55364,495
1765877516.553653,495
1765877516.553666,496
1765877516.553679,496
1765877516.5536919,496
1765877516.553705,495
1765877516.553718,495
1765877516.553733,496
1765877516.553748,495
1765877516.553761,496
1765877516.553774,495
1765877516.553787,495
1765877516.553799,496
1765877516.553812,496
1765877516.5538251,496
1765877516.553838,496
1765877516.553851,496
1765877516.553864,495
1765877516.5538769,495
1765877516.55389,495
1765877516.5539021,495
1765877516.5539148,496
1765877516.553932,495
1765877516.553946,496
1765877516.553959,495
1765877516.553972,496
1765877516.553985,495
1765877516.553998,495
1765877516.5540109,495
1765877516.554023,495
1765877516.554036,495
1765877516.554049,496
1765877516.5540621,495
1765877516.5540779,496
1765877516.554092,496
1765877516.554106,495
1765877516.5541189,495
1765877516.554131,495
1765877516.554144,495
1765877516.554157,496
1765877516.5541701,496
1765877516.554183,496
1765877516.554196,497
1765877516.554209,497
1765877516.554222,497
1765877516.554234,496
1765877516.554247,496
1765877516.55426,496
1765877516.5542731,497
1765877516.554286,497
1765877516.5542989,496
1765877516.554312,496
1765877516.554324,497
1765877516.554337,497
1765877516.5543501,496
1765877516.5543628,497
1765877516.554376,497
1765877516.554389,495
1765877516.554402,495
1765877516.554415,495
1765877516.554431,496
1765877516.554444,495
1765877516.5544572,495
1765877516.5544698,495
1765877516.554483,495
1765877516.554496,495
1765877516.554508,496
1765877516.554521,496
1765877516.554534,496
1765877516.5545468,496
1765877516.55456,495
1765877516.554573,495
1765877516.5545862,496
1765877516.5545988,496
1765877516.554612,495
1765877516.554625,496
1765877516.5546381,495
1765877516.5546508,495
1765877516.554664,495
1765877516.554677,495
1765877516.554689,495
1765877516.5547001,495
1765877516.554712,495
1765877516.554723,496
1765877516.554734,496
1765877516.5547452,495
1765877516.554761,495
1765877516.5547788,495
1765877516.5547898,495
1765877516.554801,496
1765877516.554813,495
1765877516.5548239,495
1765877516.5548348,495
1765877516.554846,495
1765877516.554857,495
1765877516.554868,495
1765877516.554879,495
1765877516.55489,495
1765877516.554901,495
1765877516.554912,495
1765877516.554924,496
1765877516.554935,495
1765877516.554946,495
1765877516.5549572,495
1765877516.554968,495
1765877516.554979,495
1765877516.55499,495
1765877516.555001,495
1765877516.555012,495
1765877516.5550232,495
1765877516.5550349,495
1765877516.5550458,495
1765877516.55506,495
1765877516.555073,495
1765877516.555084,495
1765877516.5550961,495
1765877516.555107,495
1765877516.555118,495
1765877516.555129,495
1765877516.55514,496
1765877516.555151,496
1765877516.5551622,495
1765877516.5551732,495
1765877516.555191,495
1765877516.555202,495
1765877516.555213,495
1765877516.5552242,495
1765877516.5552378,495
1765877516.555249,495
1765877516.55526,495
1765877516.555271,495
1765877516.5552819,495
1765877516.5552928,495
1765877516.555304,495
1765877516.555315,495
1765877516.555326,495
1765877516.555337,495
1765877516.5553489,495
1765877516.5553632,494
1765877516.555376,495
1765877516.5553868,495
1765877516.555398,495
1765877516.555409,495
1765877516.55542,495
1765877516.555431,495
1765877516.555448,495
1765877516.5554602,495
1765877516.5554712,495
1765877516.5554821,496
1765877516.555493,495
1765877516.555512,494
1765877516.5555289,495
1765877516.55554,495
1765877516.555551,495
1765877516.555562,496
1765877516.555573,495
1765877516.555584,495
1765877516.555595,495
1765877516.555607,495
1765877516.555618,495
1765877516.555629,495
1765877516.555646,495
1765877516.555658,495
1765877516.555669,494
1765877516.555682,495
1765877516.555695,495
1765877516.555706,495
1765877516.5557172,495
1765877516.555728,494
1765877516.5557399,495
1765877516.5557508,495
1765877516.5557618,495
1765877516.555773,495
1765877516.555784,495
1765877516.555795,495
1765877516.555806,495
1765877516.555817,495
1765877516.5558279,495
1765877516.55584,494
1765877516.555851,495
1765877516.555862,495
1765877516.555874,495
1765877516.5558841,495
1765877516.555896,495
1765877516.555907,495
1765877516.555918,495
1765877516.5559292,495
1765877516.5559402,496
1765877516.555951,495
1765877516.555962,495
1765877516.555973,495
1765877516.555989,495
1765877516.556,495
1765877516.556011,495
1765877516.556022,495
1765877516.5560331,495
1765877516.556044,495
1765877516.556055,493
1765877516.556066,494
1765877516.556083,494
1765877516.556094,495
1765877516.556105,495
1765877516.5561159,495
1765877516.556128,495
1765877516.556139,495
1765877516.55615,495
1765877516.556161,495
1765877516.5561721,495
1765877516.556183,495
1765877516.556194,495
1765877516.556206,495
1765877516.5562172,495
1765877516.556234,495
1765877516.556245,496
1765877516.556256,495
1765877516.556267,495
1765877516.556278,496
1765877516.556293,495
1765877516.556304,496
1765877516.556315,495
1765877516.556326,495
1765877516.5563378,495
1765877516.556349,495
1765877516.55636,496
1765877516.556371,496
1765877516.556382,495
1765877516.556393,495
1765877516.5564039,495
1765877516.556415,495
1765877516.5564291,495
1765877516.55644,495
1765877516.556451,495
1765877516.556463,495
1765877516.5564742,495
1765877516.5564852,495
1765877516.556496,495
1765877516.5565069,495
1765877516.5565178,495
1765877516.5565288,495
1765877516.55654,495
1765877516.556551,495
1765877516.556562,495
1765877516.5565739,495
1765877516.556588,495
1765877516.5566,495
1765877516.556611,495
1765877516.556622,495
1765877516.556633,495
1765877516.5566452,495
1765877516.5566561,495
1765877516.5566669,495
1765877516.5566778,495
1765877516.5566888,495
1765877516.5567,495
1765877516.556711,495
1765877516.556722,495
1765877516.556733,495
1765877516.556745,494
1765877516.5567548,495
1765877516.556766,494
1765877516.556778,493
1765877516.556789,494
1765877516.5568,495
1765877516.556811,496
1765877516.556822,497
1765877516.556833,496
1765877516.556845,495
1765877516.5568562,494
1765877516.5568671,495
1765877516.5568798,495
1765877516.5568929,495
1765877516.556905,495
1765877516.556916,495
1765877516.556928,495
1765877516.5569391,496
1765877516.556959,495
1765877516.55697,495
1765877516.556988,495
1765877516.556999,495
1765877516.55701,495
1765877516.55703,495
1765877516.557042,495
1765877516.55706,495
1765877516.5570712,495
1765877516.5570822,496
1765877516.5570931,495
1765877516.557104,495
1765877516.5571148,495
1765877516.5571258,495
1765877516.557137,495
1765877516.557148,495
1765877516.557159,495
1765877516.55717,495
1765877516.557181,495
1765877516.5571918,495
1765877516.557203,495
1765877516.557219,494
1765877516.55723,495
1765877516.5572412,495
1765877516.5572522,494
1765877516.5572631,495
1765877516.557274,495
1765877516.557285,495
1765877516.557296,495
1765877516.5573068,495
1765877516.557318,496
1765877516.55733,495
1765877516.55734,495
1765877516.5573509,495
1765877516.5573618,495
1765877516.557373,495
1765877516.557384,495
1765877516.557396,495
1765877516.557407,495
1765877516.5574179,495
1765877516.557429,495
1765877516.55744,495
1765877516.557451,495
1765877516.557463,495
1765877516.5574741,495
1765877516.557485,495
1765877516.557496,495
1765877516.557512,495
1765877516.557524,495
1765877516.557535,495
1765877516.557546,495
1765877516.557557,495
1765877516.557568,495
1765877516.557579,496
1765877516.55759,495
1765877516.557601,495
1765877516.557615,496
1765877516.557627,495
1765877516.557638,495
1765877516.557649,495
1765877516.5576599,495
1765877516.5576708,495
1765877516.557682,495
1765877516.557693,495
1765877516.557704,495
1765877516.557715,495
1765877516.557726,494
1765877516.557745,495
1765877516.557756,495
1765877516.557767,495
1765877516.557778,494
1765877516.5577888,494
1765877516.5578,495
1765877516.5578141,494
1765877516.557826,495
1765877516.557838,495
1765877516.5578492,495
1765877516.557861,495
1765877516.557872,495
1765877516.557884,495
1765877516.557895,495
1765877516.557906,495
1765877516.5579169,495
1765877516.5579278,496
1765877516.557939,495
1765877516.55795,495
1765877516.557962,495
1765877516.557973,495
1765877516.557984,495
1765877516.557995,495
1765877516.558006,495
1765877516.558017,495
1765877516.5580292,496
1765877516.558041,495
1765877516.558052,495
1765877516.558063,494
1765877516.558104,495
1765877516.5581179,495
1765877516.5581288,495
1765877516.558141,495
1765877516.558159,495
1765877516.5581708,495
1765877516.558183,495
1765877516.558197,495
1765877516.558209,495
1765877516.5582201,495
1765877516.558248,495
1765877516.558261,495
1765877516.558275,495
1765877516.5582871,496
1765877516.5583,496
1765877516.558312,497
1765877516.5583239,497
1765877516.558337,496
1765877516.5583491,497
1765877516.558362,496
1765877516.558374,496
1765877516.5583858,496
1765877516.558398,496
1765877516.55841,495
1765877516.558422,495
1765877516.558433,496
1765877516.5584462,496
1765877516.5584588,497
1765877516.558472,496
1765877516.558484,496
1765877516.558499,496
1765877516.558513,495
1765877516.5585248,495
1765877516.558537,496
1765877516.558579,496
1765877516.558593,495
1765877516.5586061,495
1765877516.5586188,495
1765877516.55863,495
1765877516.5586429,495
1765877516.558655,496
1765877516.558667,495
1765877516.55868,495
1765877516.5586932,496
1765877516.5587049,496
1765877516.558718,495
1765877516.55873,495
1765877516.558743,496
1765877516.5587552,495
1765877516.558767,495
1765877516.558778,495
1765877516.55879,495
1765877516.558802,495
1765877516.558814,495
1765877516.558825,495
1765877516.558837,495
1765877516.5588522,495
1765877516.558866,495
1765877516.558877,495
1765877516.558889,494
1765877516.558901,495
1765877516.558913,495
1765877516.559027,495
1765877516.5590389,495
1765877516.55905,495
1765877516.559062,496
1765877516.559073,495
1765877516.5590851,495
1765877516.559097,496
1765877516.559108,495
1765877516.55912,495
1765877516.559131,495
1765877516.5591428,495
1765877516.559155,495
1765877516.559167,495
1765877516.5591779,495
1765877516.55919,496
1765877516.559202,495
1765877516.5592132,495
1765877516.5592241,495
1765877516.559236,495
1765877516.559248,497
1765877516.559259,496
1765877516.559275,495
1765877516.559287,495
1765877516.559299,495
1765877516.5593102,495
1765877516.559322,496
1765877516.559333,495
1765877516.559344,495
1765877516.559356,495
1765877516.559367,495
1765877516.559378,495
1765877516.55939,495
1765877516.559401,494
1765877516.559412,495
1765877516.559424,495
1765877516.559435,495
1765877516.559446,495
1765877516.559458,495
1765877516.559469,495
1765877516.5594811,495
1765877516.559493,495
1765877516.5595038,495
1765877516.559516,495
1765877516.559527,496
1765877516.5595388,496
1765877516.55955,495
1765877516.559562,495
1765877516.559577,495
1765877516.5595899,495
1765877516.5596008,495
1765877516.559613,495
1765877516.559624,495
1765877516.5596359,495
1765877516.559647,495
1765877516.559659,495
1765877516.55967,495
1765877516.5596821,495
1765877516.559693,495
1765877516.559705,495
1765877516.559716,495
1765877516.5597281,495
1765877516.5597389,495
1765877516.5597508,495
1765877516.559763,495
1765877516.559774,495
1765877516.559785,495
1765877516.559797,495
1765877516.559809,495
1765877516.55982,495
1765877516.559832,495
1765877516.559843,495
1765877516.559854,495
1765877516.5598662,495
1765877516.559881,495
1765877516.559893,495
1765877516.559905,495
1765877516.559916,496
1765877516.559927,495
1765877516.559938,495
1765877516.55995,495
1765877516.559962,495
1765877516.559973,495
1765877516.559985,495
1765877516.559996,495
1765877516.560008,495
1765877516.560019,495
1765877516.56003,495
1765877516.560042,495
1765877516.560053,495
1765877516.560065,495
1765877516.560076,495
1765877516.5600882,495
1765877516.5600991,495
1765877516.560111,495
1765877516.560122,496
1765877516.560134,495
1765877516.5601459,495
1765877516.5601568,495
1765877516.560168,496
1765877516.560183,495
1765877516.5601962,495
1765877516.5602071,495
1765877516.5602188,495
1765877516.5602298,496
1765877516.560241,495
1765877516.560253,496
1765877516.560265,495
1765877516.560277,494
1765877516.560288,495
1765877516.5603,495
1765877516.560311,495
1765877516.560323,496
1765877516.560334,495
1765877516.5603461,495
1765877516.560357,495
1765877516.560369,495
1765877516.560381,495
1765877516.560392,494
1765877516.560404,495
1765877516.560415,494
1765877516.560427,495
1765877516.560438,495
1765877516.56045,495
1765877516.560461,496
1765877516.560471,495
1765877516.560482,495
1765877516.5604951,495
1765877516.560506,494
1765877516.560517,495
1765877516.560527,495
1765877516.560537,495
1765877516.560547,495
1765877516.5605571,495
1765877516.5605671,495
1765877516.560578,495
1765877516.560587,495
1765877516.5605981,495
1765877516.5606139,495
1765877516.5606241,496
1765877516.5606349,495
1765877516.560645,495
1765877516.560655,495
1765877516.5606651,495
1765877516.560676,495
1765877516.560686,495
1765877516.5606961,496
1765877516.5607061,495
1765877516.560716,496
1765877516.560726,495
1765877516.560736,495
1765877516.560746,495
1765877516.560757,495
1765877516.560771,495
1765877516.5607831,495
1765877516.5607932,495
1765877516.5608032,495
1765877516.560813,495
1765877516.560823,495
1765877516.560833,496
1765877516.560843,495
1765877516.560853,495
1765877516.560863,495
1765877516.560873,495
1765877516.560884,495
1765877516.560894,495
1765877516.5609028,495
1765877516.5609128,495
1765877516.5609238,495
1765877516.5609338,495
1765877516.560944,495
1765877516.560954,495
1765877516.560964,495
1765877516.5609741,495
1765877516.5609841,495
1765877516.5609941,494
1765877516.561004,495
1765877516.561014,495
1765877516.561024,495
1765877516.561037,495
1765877516.561182,496
1765877516.561193,495
1765877516.561203,495
1765877516.5612202,495
1765877516.5612311,495
1765877516.561244,494
1765877516.5612538,495
1765877516.561264,495
1765877516.561274,495
1765877516.5612879,495
1765877516.561298,495
1765877516.561308,495
1765877516.561318,495
1765877516.5613282,495
1765877516.5613382,495
1765877516.5613492,495
1765877516.561362,495
1765877516.5613718,495
1765877516.5613818,495
1765877516.561392,494
1765877516.561402,494
1765877516.561412,495
1765877516.561426,495
1765877516.561436,495
1765877516.561446,495
1765877516.5614588,494
1765877516.561474,495
1765877516.561484,495
1765877516.561494,495
1765877516.561505,495
1765877516.561515,495
1765877516.561525,496
1765877516.561535,496
1765877516.561546,495
1765877516.5615559,495
1765877516.5615659,495
1765877516.561576,496
1765877516.5615869,495
1765877516.5615969,496
1765877516.561607,495
1765877516.561617,495
1765877516.5616279,496
1765877516.5616379,495
1765877516.5616481,495
1765877516.5616589,495
1765877516.561669,495
1765877516.5616791,495
1765877516.5616891,495
1765877516.5617,495
1765877516.5617101,494
1765877516.5617201,495
1765877516.5617301,495
1765877516.561745,495
1765877516.56176,495
1765877516.56177,495
1765877516.561781,495
1765877516.56179,496
1765877516.561801,495
1765877516.561811,495
1765877516.561821,495
1765877516.561831,495
1765877516.561841,495
1765877516.5618508,495
1765877516.561862,495
1765877516.5618718,495
1765877516.561882,495
1765877516.5618932,495
1765877516.561905,495
1765877516.5619159,495
1765877516.561926,494
1765877516.561936,494
1765877516.5619462,494
1765877516.5619571,495
1765877516.5619671,495
1765877516.561978,495
1765877516.561988,495
1765877516.561999,495
1765877516.562009,495
1765877516.562031,495
1765877516.562091,495
1765877516.562102,494
1765877516.562112,495
1765877516.5621219,495
1765877516.562133,496
1765877516.562143,495
1765877516.5621529,495
1765877516.5621629,495
1765877516.562173,495
1765877516.562183,495
1765877516.562193,495
1765877516.562203,495
1765877516.562214,495
1765877516.5622232,495
1765877516.5622342,495
1765877516.5622442,495
1765877516.5622542,495
1765877516.562264,495
1765877516.562274,495
1765877516.562284,495
1765877516.562294,495
1765877516.562305,495
1765877516.562315,495
1765877516.562326,495
1765877516.562337,495
1765877516.562347,495
1765877516.56237,495
1765877516.5623791,495
1765877516.562386,494
1765877516.5623932,495
1765877516.562398,495
1765877516.562405,495
1765877516.562411,495
1765877516.562418,495
1765877516.5624242,495
1765877516.5624309,495
1765877516.562437,495
1765877516.562442,495
1765877516.5624478,495
1765877516.5624561,494
1765877516.5624619,495
1765877516.562469,495
1765877516.562476,494
1765877516.5624828,495
1765877516.562489,495
1765877516.562496,495
1765877516.5625029,494
1765877516.56251,495
1765877516.562517,495
1765877516.562523,496
1765877516.56253,496
1765877516.562537,496
1765877516.562546,496
1765877516.5625532,496
1765877516.562559,496
1765877516.562565,496
1765877516.562571,496
1765877516.562578,496
1765877516.5625842,496
1765877516.56259,496
1765877516.562597,496
1765877516.562604,496
1765877516.56261,496
1765877516.562617,496
1765877516.562623,496
1765877516.56263,497
1765877516.562637,496
1765877516.5626419,496
1765877516.562648,495
1765877516.562654,495
1765877516.5626612,495
1765877516.562668,495
1765877516.5626738,495
1765877516.562679,495
1765877516.562685,495
1765877516.5626922,495
1765877516.562698,495
1765877516.5627038,495
1765877516.5627131,495
1765877516.562721,495
1765877516.562728,495
1765877516.5627341,495
1765877516.562741,495
1765877516.5627468,495
1765877516.5627542,495
1765877516.562761,495
1765877516.562767,495
1765877516.562773,495
1765877516.56278,495
1765877516.562786,495
1765877516.562793,495
1765877516.5627992,495
1765877516.562804,495
1765877516.562809,495
1765877516.562815,496
1765877516.5628211,495
1765877516.562828,496
1765877516.562835,495
1765877516.5628421,495
1765877516.562849,495
1765877516.562855,495
1765877516.562861,495
1765877516.5628679,495
1765877516.5628748,495
1765877516.562881,495
1765877516.56289,495
1765877516.562898,495
1765877516.5629041,495
1765877516.562911,495
1765877516.5629172,496
1765877516.562923,495
1765877516.5629299,495
1765877516.562937,495
1765877516.562944,495
1765877516.56295,495
1765877516.562958,495
1765877516.562965,495
1765877516.5629718,496
1765877516.562979,495
1765877516.562985,495
1765877516.562992,495
1765877516.562998,495
1765877516.563004,495
1765877516.56301,495
1765877516.563017,495
1765877516.5630238,495
1765877516.563031,495
1765877516.5630379,495
1765877516.563045,495
1765877516.563052,495
1765877516.563058,495
1765877516.563066,495
1765877516.563073,495
1765877516.563082,495
1765877516.563088,495
1765877516.563095,495
1765877516.563102,495
1765877516.5631082,494
1765877516.5631151,494
1765877516.5631208,495
1765877516.563126,495
1765877516.563133,496
1765877516.5631402,495
1765877516.563147,496
1765877516.5631528,495
1765877516.5631602,495
1765877516.563167,496
1765877516.5631738,495
1765877516.56318,496
1765877516.563187,495
1765877516.563193,495
1765877516.5632,495
1765877516.563207,495
1765877516.563213,495
1765877516.56322,496
1765877516.563227,495
1765877516.563234,495
1765877516.563241,496
1765877516.5632482,496
1765877516.563257,495
1765877516.563265,495
1765877516.563272,495
1765877516.5632792,495
1765877516.563286,495
1765877516.5632908,495
1765877516.563298,495
1765877516.563305,495
1765877516.563311,495
1765877516.563318,495
1765877516.563325,495
1765877516.563332,496
1765877516.563339,495
1765877516.563345,496
1765877516.5633512,495
1765877516.5633569,495
1765877516.563363,496
1765877516.56337,495
1765877516.5633762,495
1765877516.563383,495
1765877516.56339,496
1765877516.563398,495
1765877516.563404,495
1765877516.5634098,495
1765877516.563415,496
1765877516.563422,495
1765877516.563429,495
1765877516.563435,496
1765877516.5634408,495
1765877516.563446,495
1765877516.563452,495
1765877516.563458,495
1765877516.5634649,495
1765877516.563471,496
1765877516.563478,495
1765877516.563484,495
1765877516.563491,495
1765877516.563498,495
1765877516.563505,495
1765877516.563512,495
1765877516.563518,495
1765877516.5635252,496
1765877516.563532,495
1765877516.563539,496
1765877516.563545,495
1765877516.563551,495
1765877516.5635571,495
1765877516.563564,495
1765877516.563571,495
1765877516.5635772,495
1765877516.563583,495
1765877516.5635898,495
1765877516.563597,495
1765877516.563603,496
1765877516.56361,496
1765877516.563617,495
1765877516.563624,495
1765877516.56363,495
1765877516.563636,495
1765877516.563643,495
1765877516.5636501,495
1765877516.563657,495
1765877516.563663,495
1765877516.563668,496
1765877516.563675,495
1765877516.563682,495
1765877516.563688,495
1765877516.5636952,495
1765877516.563702,495
1765877516.563709,495
1765877516.5637162,495
1765877516.563721,495
1765877516.5637279,495
1765877516.563735,495
1765877516.563741,495
1765877516.5637481,495
1765877516.563755,495
1765877516.563762,495
1765877516.563769,495
1765877516.563775,496
1765877516.563782,495
1765877516.563788,495
1765877516.5637949,495
1765877516.563801,494
1765877516.563808,494
1765877516.5638149,494
1765877516.563822,494
1765877516.563828,494
1765877516.563835,494
1765877516.563841,495
1765877516.563848,495
1765877516.5638552,496
1765877516.563862,496
1765877516.563869,495
1765877516.5638762,495
1765877516.563883,495
1765877516.56389,495
1765877516.5638971,494
1765877516.563902,495
1765877516.563908,495
1765877516.563915,495
1765877516.563922,495
1765877516.5639281,495
1765877516.563935,495
1765877516.563942,495
1765877516.563949,495
1765877516.5639548,495
1765877516.5639622,494
1765877516.5639691,494
1765877516.563976,494
1765877516.5639832,494
1765877516.56399,494
1765877516.563997,495
1765877516.5640059,495
1765877516.564013,495
1765877516.564021,494
1765877516.5640278,495
1765877516.5640352,494
1765877516.564043,495
1765877516.564051,494
1765877516.564058,494
1765877516.564066,494
1765877516.5640728,494
1765877516.564081,495
1765877516.564088,494
1765877516.564096,495
1765877516.5641038,495
1765877516.564111,494
1765877516.564118,494
1765877516.5641248,494
1765877516.5641322,495
1765877516.564139,494
1765877516.5641448,495
1765877516.564152,494
1765877516.564159,495
1765877516.564165,494
1765877516.564171,495
1765877516.5641758,494
1765877516.564183,494
1765877516.56419,494
1765877516.564197,494
1765877516.5642052,495
1765877516.564212,494
1765877516.56422,494
1765877516.564227,494
1765877516.564235,494
1765877516.564242,495
1765877516.5642502,494
1765877516.564257,494
1765877516.564265,494
1765877516.5642722,495
1765877516.564279,495
1765877516.564287,494
1765877516.5642939,495
1765877516.564302,494
1765877516.564309,494
1765877516.564317,494
1765877516.5643241,494
1765877516.564332,494
1765877516.5643399,494
1765877516.564346,494
1765877516.564354,493
1765877516.5643609,494
1765877516.5643678,494
1765877516.564376,494
1765877516.564383,495
1765877516.564391,495
1765877516.564398,495
1765877516.564406,495
1765877516.5644128,494
1765877516.5644212,494
1765877516.564429,495
1765877516.564436,494
1765877516.5644438,494
1765877516.564451,495
1765877516.564459,494
1765877516.564466,495
1765877516.5644732,494
1765877516.56448,494
1765877516.564488,495
1765877516.5644958,495
1765877516.564503,495
1765877516.564511,495
1765877516.564518,494
1765877516.565024,494
1765877516.566011,495
1765877516.567096,495
1765877516.568007,495
1765877516.5690072,494
1765877516.570015,494
1765877516.571015,494
1765877516.572042,494
1765877516.5730371,495
1765877516.5740428,494
1765877516.575039,494
1765877516.576069,494
1765877516.577051,494
1765877516.578059,495
1765877516.57906,495
1765877516.5800729,495
1765877516.5810602,494
1765877516.5820649,495
1765877516.583051,494
1765877516.584044,494
1765877516.585073,495
1765877516.586057,494
1765877516.587063,495
1765877516.5880609,495
1765877516.589067,495
1765877516.590087,494
1765877516.59108,494
1765877516.592078,495
1765877516.593096,494
1765877516.594097,494
1765877516.5950809,495
1765877516.596097,494
1765877516.597106,495
1765877516.598088,496
1765877516.5990999,495
1765877516.600102,496
1765877516.6011121,495
1765877516.602127,494
1765877516.603117,495
1765877516.604125,495
1765877516.605131,495
1765877516.60613,494
1765877516.607119,494
1765877516.608141,494
1765877516.609123,494
1765877516.6101289,494
1765877516.611145,495
1765877516.612143,495
1765877516.613133,496
1765877516.614196,496
1765877516.6151621,496
1765877516.6161559,496
1765877516.6171699,496
1765877516.6181812,496
1765877516.619165,496
1765877516.620162,496
1765877516.6211698,496
1765877516.6221812,496
1765877516.623171,496
1765877516.624182,496
1765877516.6252182,496
1765877516.626204,495
1765877516.6272,496
1765877516.628274,495
1765877516.6291971,495
1765877516.630202,495
1765877516.6311932,495
1765877516.6321962,494
1765877516.63324,495
1765877516.634249,496
1765877516.635238,495
1765877516.6361978,496
1765877516.6372008,496
1765877516.63822,496
1765877516.639261,495
1765877516.640219,495
1765877516.641239,495
1765877516.642266,495
1765877516.6432571,494
1765877516.6442518,494
1765877516.645335,494
1765877516.646275,495
1765877516.647263,495
1765877516.648273,495
1765877516.649261,494
1765877516.6502569,495
1765877516.651278,495
1765877516.6522722,495
1765877516.653257,495
1765877516.654301,495
1765877516.655278,495
1765877516.6562848,495
1765877516.657287,495
1765877516.658282,495
1765877516.659292,495
1765877516.6602812,495
1765877516.661364,495
1765877516.662299,495
1765877516.663306,495
1765877516.6643,495
1765877516.6653109,496
1765877516.6662998,495
1765877516.667315,495
1765877516.668315,495
1765877516.669311,494
1765877516.670312,495
1765877516.6713119,495
1765877516.672315,495
1765877516.6733189,495
1765877516.674325,495
1765877516.675322,495
1765877516.67637,495
1765877516.677356,495
1765877516.67842,495
1765877516.679348,495
1765877516.680348,495
1765877516.681385,495
1765877516.682337,495
1765877516.683326,495
1765877516.684358,494
1765877516.685359,494
1765877516.686356,495
1765877516.687358,494
1765877516.688365,495
1765877516.689367,495
1765877516.690368,495
1765877516.691364,495
1765877516.692373,495
1765877516.693373,495
1765877516.694379,495
1765877516.695383,495
1765877516.6963809,495
1765877516.697472,495
1765877516.698378,494
1765877516.699479,495
1765877516.7004778,495
1765877516.7014809,495
1765877516.702482,495
1765877516.70353,495
1765877516.7045052,495
1765877516.705478,495
1765877516.706469,495
1765877516.7074811,495
1765877516.70847,495
1765877516.709474,495
1765877516.710478,495
1765877516.7114758,495
1765877516.7124841,494
1765877516.713472,494
1765877516.714487,494
1765877516.715484,495
1765877516.7164989,495
1765877516.717482,495
1765877516.718473,495
1765877516.719476,495
1765877516.72047,495
1765877516.721477,494
1765877516.722469,495
1765877516.723477,494
1765877516.724479,494
1765877516.725472,495
1765877516.726474,495
1765877516.727469,495
1765877516.728477,495
1765877516.729524,495
1765877516.730508,495
1765877516.731549,495
1765877516.732499,495
1765877516.733485,496
1765877516.734514,495
1765877516.735486,495
1765877516.736489,495
1765877516.737487,494
1765877516.738505,495
1765877516.739498,495
1765877516.740504,495
1765877516.741523,495
1765877516.7425432,495
1765877516.743531,494
1765877516.7445178,495
1765877516.745592,495
1765877516.7465742,495
1765877516.747562,494
1765877516.748568,495
1765877516.749538,496
1765877516.750547,495
1765877516.7515361,495
1765877516.752546,495
1765877516.753559,495
1765877516.754527,495
1765877516.755539,496
1765877516.7565708,495
1765877516.7575529,495
1765877516.758558,495
1765877516.759555,495
1765877516.7605498,496
1765877516.761566,495
1765877516.762558,495
1765877516.763573,495
1765877516.76458,494
1765877516.7656,495
1765877516.766585,495
1765877516.7675798,495
1765877516.768578,494
1765877516.769588,494
1765877516.77059,495
1765877516.77158,495
1765877516.772587,495
1765877516.77358,495
1765877516.7746181,495
1765877516.775616,494
1765877516.776601,495
1765877516.777631,495
1765877516.778616,495
1765877516.779624,495
1765877516.780629,495
1765877516.7816389,495
1765877516.78263,495
1765877516.7836502,495
1765877516.784636,495
1765877516.785706,495
1765877516.786679,495
1765877516.787755,495
1765877516.788667,495
1765877516.789663,495
1765877516.790658,495
1765877516.7916522,495
1765877516.792654,495
1765877516.793667,495
1765877516.794681,495
1765877516.79566,495
1765877516.7966762,495
1765877516.797654,495
1765877516.798665,495
1765877516.79967,496
1765877516.8006861,496
1765877516.8016782,495
1765877516.8026922,495
1765877516.80369,495
1765877516.804685,495
1765877516.8057,495
1765877516.8067021,495
1765877516.8077078,495
1765877516.808701,495
1765877516.8097181,495
1765877516.8107011,495
1765877516.811709,495
1765877516.8127098,495
1765877516.813715,495
1765877516.814699,494
1765877516.815733,495
1765877516.8167338,494
1765877516.817724,494
1765877516.818727,495
1765877516.819745,495
1765877516.820738,495
1765877516.821743,495
1765877516.822747,495
1765877516.823731,495
1765877516.824785,495
1765877516.825783,496
1765877516.826784,495
1765877516.827905,496
1765877516.828801,495
1765877516.829796,496
1765877516.830786,495
1765877516.831765,494
1765877516.832772,494
1765877516.833824,495
1765877516.834788,495
1765877516.8357928,495
1765877516.8367841,496
1765877516.8377779,495
1765877516.838808,495
1765877516.839801,495
1765877516.840808,495
1765877516.8418071,495
1765877516.842816,495
1765877516.8438148,495
1765877516.844815,495
1765877516.8458,495
1765877516.846805,495
1765877516.847807,495
1765877516.84884,494
1765877516.849837,495
1765877516.850833,495
1765877516.851834,494
1765877516.852823,495
1765877516.8538308,495
1765877516.8548381,495
1765877516.855846,494
1765877516.856832,495
1765877516.857842,495
1765877516.858848,495
1765877516.859859,495
1765877516.860854,496
1765877516.8618722,495
1765877516.862856,495
1765877516.863853,496
1765877516.864851,495
1765877516.865875,494
1765877516.8668869,495
1765877516.8678699,495
1765877516.8688798,494
1765877516.869914,495
1765877516.870924,495
1765877516.871922,495
1765877516.8728871,495
1765877516.873895,495
1765877516.874899,495
1765877516.87589,495
1765877516.876884,494
1765877516.8779001,496
1765877516.8789032,495
1765877516.879898,495
1765877516.880925,495
1765877516.8819351,495
1765877516.8829231,495
1765877516.883918,495
1765877516.884918,495
1765877516.885927,495
1765877516.886931,495
1765877516.887927,495
1765877516.8889248,495
1765877516.889934,495
1765877516.890934,495
1765877516.891948,495
1765877516.892958,495
1765877516.893955,495
1765877516.894963,494
1765877516.895958,494
1765877516.8969522,494
1765877516.897952,494
1765877516.8989692,495
1765877516.899961,496
1765877516.9009678,496
1765877516.9019678,495
1765877516.902982,495
1765877516.903988,495
1765877516.904993,495
1765877516.906,495
1765877516.906999,495
1765877516.907983,495
1765877516.909,495
1765877516.91001,496
1765877516.9110231,495
1765877516.912044,495
1765877516.913038,495
1765877516.914025,495
1765877516.9150348,495
1765877516.916024,495
1765877516.9170089,495
1765877516.918026,495
1765877516.919038,495
1765877516.920021,495
1765877516.921025,495
1765877516.922034,495
1765877516.923042,495
1765877516.924049,495
1765877516.9250429,495
1765877516.926046,495
1765877516.9270651,495
1765877516.928063,495
1765877516.929056,496
1765877516.930061,495
1765877516.931062,495
1765877516.932068,495
1765877516.9330728,494
1765877516.934081,495
1765877516.93507,496
1765877516.936071,495
1765877516.937095,495
1765877516.938085,495
1765877516.9390788,495
1765877516.940083,495
1765877516.941094,495
1765877516.942086,495
1765877516.9430962,495
1765877516.9440901,495
1765877516.945117,494
1765877516.94611,495
1765877516.9470878,495
1765877516.948114,495
1765877516.9491,495
1765877516.95011,494
1765877516.951102,495
1765877516.952138,495
1765877516.95315,495
1765877516.954154,496
1765877516.955132,495
1765877516.9561431,495
1765877516.957143,495
1765877516.9581282,495
1765877516.959122,495
1765877516.960136,495
1765877516.961154,495
1765877516.962145,495
1765877516.963134,494
1765877516.964143,495
1765877516.965149,496
1765877516.966159,497
1765877516.967176,496
1765877516.9681668,497
1765877516.969156,496
1765877516.970159,497
1765877516.971173,496
1765877516.97216,497
1765877516.973165,496
1765877516.974175,496
1765877516.975183,496
1765877516.976182,496
1765877516.9771771,497
1765877516.9782069,497
1765877516.9791849,496
1765877516.980201,496
1765877516.9811862,495
1765877516.982207,496
1765877516.9832041,496
1765877516.984221,497
1765877516.985197,496
1765877516.986219,497
1765877516.98722,498
1765877516.988229,498
1765877516.9892402,498
1765877516.990221,497
1765877516.991217,496
1765877516.992243,496
1765877516.993231,495
1765877516.994255,495
1765877516.995285,496
1765877516.996348,496
1765877516.997259,496
1765877516.998249,497
1765877516.999265,498
1765877517.0002592,497
1765877517.001269,495
1765877517.002262,492
1765877517.003274,494
1765877517.004253,493
1765877517.0052638,493
1765877517.0062668,493
1765877517.007275,494
1765877517.0082712,494
1765877517.009286,495
1765877517.010283,496
1765877517.011282,496
1765877517.012285,498
1765877517.0132768,499
1765877517.014276,499
1765877517.015282,500
1765877517.016287,500
1765877517.017313,497
1765877517.0183098,498
1765877517.0192928,495
1765877517.020308,491
1765877517.021296,492
1765877517.0223098,493
1765877517.0233102,495
1765877517.0243242,497
1765877517.0253289,497
1765877517.02632,496
1765877517.027337,496
1765877517.0283258,497
1765877517.0293329,496
1765877517.030358,497
1765877517.031347,495
1765877517.032344,493
1765877517.033355,494
1765877517.034351,495
1765877517.035372,495
1765877517.036372,495
1765877517.037388,495
1765877517.038368,496
1765877517.039381,495
1765877517.0403578,497
1765877517.041364,497
1765877517.042355,500
1765877517.043369,503
1765877517.04437,505
1765877517.0453691,504
1765877517.046379,503
1765877517.047389,500
1765877517.048393,497
1765877517.04939,493
1765877517.050482,491
1765877517.051378,492
1765877517.0524778,491
1765877517.053487,491
1765877517.054472,492
1765877517.0554712,492
1765877517.056468,495
1765877517.057475,498
1765877517.058471,499
1765877517.059474,500
1765877517.060468,500
1765877517.061475,498
1765877517.062479,497
1765877517.063472,495
1765877517.064482,493
1765877517.065475,491
1765877517.0664809,492
1765877517.0674691,494
1765877517.068471,494
1765877517.0694761,495
1765877517.070474,495
1765877517.0714722,494
1765877517.07247,493
1765877517.073484,494
1765877517.0744882,495
1765877517.0754979,494
1765877517.076496,495
1765877517.077489,495
1765877517.078505,495
1765877517.079492,495
1765877517.080478,494
1765877517.0814779,494
1765877517.0824819,493
1765877517.083497,496
1765877517.0844889,506
1765877517.085473,515
1765877517.086486,518
1765877517.087499,521
1765877517.088504,524
1765877517.089511,515
1765877517.090561,495
1765877517.091499,482
1765877517.092507,486
1765877517.0935118,491
1765877517.094522,491
1765877517.095528,489
1765877517.09653,493
1765877517.097526,497
1765877517.098531,497
1765877517.099536,499
1765877517.100536,495
1765877517.101535,493
1765877517.1025689,495
1765877517.103561,496
1765877517.104544,492
1765877517.105553,491
1765877517.106557,491
1765877517.107559,492
1765877517.108545,491
1765877517.109544,494
1765877517.110549,495
1765877517.111549,495
1765877517.112559,496
1765877517.1135628,496
1765877517.1145658,499
1765877517.115584,501
1765877517.116564,500
1765877517.1175702,497
1765877517.118589,497
1765877517.119594,500
1765877517.1206021,502
1765877517.121616,510
1765877517.122602,513
1765877517.123601,512
1765877517.124592,514
1765877517.125588,511
1765877517.1266031,497
1765877517.127603,485
1765877517.128611,489
1765877517.129618,492
1765877517.130618,489
1765877517.131615,489
1765877517.132618,488
1765877517.133614,490
1765877517.134637,494
1765877517.135623,498
1765877517.1366222,506
1765877517.137629,509
1765877517.1386309,509
1765877517.139638,506
1765877517.1406221,506
1765877517.141643,507
1765877517.142636,503
1765877517.1436422,491
1765877517.1446478,492
1765877517.145642,498
1765877517.146655,493
1765877517.147651,490
1765877517.1486652,488
1765877517.149674,492
1765877517.150665,494
1765877517.151664,496
1765877517.152674,497
1765877517.1536908,498
1765877517.154688,496
1765877517.155686,492
1765877517.1566799,490
1765877517.157686,492
1765877517.1587,493
1765877517.159698,498
1765877517.160712,503
1765877517.161727,506
1765877517.162739,506
1765877517.1637251,505
1765877517.1646981,498
1765877517.165717,493
1765877517.166723,499
1765877517.167715,496
1765877517.1687171,494
1765877517.169728,492
1765877517.170722,489
1765877517.1717389,490
1765877517.172731,492
1765877517.173728,493
1765877517.174739,493
1765877517.175742,494
1765877517.176747,494
1765877517.177761,495
1765877517.178756,494
1765877517.1797628,493
1765877517.180753,494
1765877517.18175,494
1765877517.182772,494
1765877517.183774,495
1765877517.1847858,494
1765877517.18578,495
1765877517.1867788,495
1765877517.1877818,497
1765877517.188779,500
1765877517.189785,501
1765877517.1908128,500
1765877517.191812,500
1765877517.192786,497
1765877517.1938071,498
1765877517.194798,502
1765877517.195812,505
1765877517.1967978,501
1765877517.19783,495
1765877517.198817,494
1765877517.199811,499
1765877517.2008262,499
1765877517.201822,493
1765877517.202827,499
1765877517.20384,503
1765877517.20484,496
1765877517.205827,491
1765877517.206846,492
1765877517.207841,491
1765877517.2088299,494
1765877517.20984,495
1765877517.2108312,495
1765877517.2118459,494
1765877517.2128499,492
1765877517.213863,493
1765877517.214873,494
1765877517.215849,494
1765877517.216851,493
1765877517.217859,496
1765877517.2188659,495
1765877517.219871,494
1765877517.2208781,495
1765877517.221885,496
1765877517.2228868,497
1765877517.2238898,496
1765877517.224886,496
1765877517.225874,497
1765877517.226889,495
1765877517.2278981,495
1765877517.2288861,495
1765877517.2298949,495
1765877517.2308989,495
1765877517.23191,496
1765877517.232919,496
1765877517.233922,495
1765877517.234924,496
1765877517.235935,496
1765877517.23692,495
1765877517.237916,496
1765877517.238932,495
1765877517.239917,496
1765877517.240951,495
1765877517.241956,496
1765877517.242929,496
1765877517.243971,498
1765877517.244978,498
1765877517.245982,497
1765877517.246964,497
1765877517.247963,496
1765877517.248963,497
1765877517.249942,494
1765877517.250957,494
1765877517.2519732,494
1765877517.25297,496
1765877517.2539809,498
1765877517.2550058,498
1765877517.2559621,497
1765877517.256983,495
1765877517.2579992,494
1765877517.259001,495
1765877517.259989,496
1765877517.260996,497
1765877517.262023,496
1765877517.262986,498
1765877517.26399,494
1765877517.26503,498
1765877517.266022,504
1765877517.2670238,503
1765877517.2680252,499
1765877517.269004,501
1765877517.270026,492
1765877517.2710369,494
1765877517.272038,495
1765877517.273036,496
1765877517.2740512,496
1765877517.275051,496
1765877517.276055,492
1765877517.27705,492
1765877517.278046,494
1765877517.279031,493
1765877517.280046,492
1765877517.281044,494
1765877517.282059,496
1765877517.28306,495
1765877517.2840729,495
1765877517.285069,496
1765877517.2860749,494
1765877517.2871392,495
1765877517.288105,497
1765877517.289115,498
1765877517.290071,499
1765877517.2910888,499
1765877517.292091,498
1765877517.2931032,492
1765877517.294105,492
1765877517.295087,494
1765877517.296086,493
1765877517.297104,494
1765877517.2981162,495
1765877517.299093,495
1765877517.300119,494
1765877517.3010921,494
1765877517.302098,494
1765877517.303123,495
1765877517.304119,495
1765877517.30512,495
1765877517.306114,495
1765877517.307115,494
1765877517.308117,493
1765877517.309126,494
1765877517.310122,493
1765877517.311136,494
1765877517.3121548,494
1765877517.3131251,495
1765877517.314205,495
1765877517.3151538,495
1765877517.316159,494
1765877517.317163,495
1765877517.318167,495
1765877517.319155,495
1765877517.3201768,495
1765877517.321171,495
1765877517.322155,496
1765877517.323168,496
1765877517.324161,496
1765877517.3251882,495
1765877517.326197,496
1765877517.327178,497
1765877517.328277,499
1765877517.32926,500
1765877517.330224,501
1765877517.3311958,503
1765877517.332215,501
1765877517.333205,505
1765877517.334207,503
1765877517.335226,496
1765877517.3362072,492
1765877517.337216,489
1765877517.338225,491
1765877517.3392131,492
1765877517.340222,494
1765877517.341221,495
1765877517.342222,494
1765877517.3432388,493
1765877517.344237,493
1765877517.345239,493
1765877517.3462558,494
1765877517.3472278,494
1765877517.3482509,494
1765877517.349238,494
1765877517.350247,494
1765877517.3512661,494
1765877517.35225,495
1765877517.353257,495
1765877517.354267,495
1765877517.3552651,495
1765877517.35627,495
1765877517.3572679,495
1765877517.358269,495
1765877517.3592849,494
1765877517.360269,493
1765877517.361293,494
1765877517.362284,494
1765877517.3632882,494
1765877517.3642912,494
1765877517.365294,494
1765877517.366294,495
1765877517.367313,494
1765877517.368321,495
1765877517.369338,494
1765877517.3703601,494
1765877517.3713548,494
1765877517.372333,495
1765877517.373317,494
1765877517.374326,495
1765877517.375353,495
1765877517.376328,494
1765877517.377321,494
1765877517.3783522,494
1765877517.379352,494
1765877517.380356,495
1765877517.381446,494
1765877517.3823712,494
1765877517.383378,495
1765877517.3843389,495
1765877517.3853571,497
1765877517.38637,498
1765877517.3873532,503
1765877517.388351,506
1765877517.389364,504
1765877517.390364,497
1765877517.391372,496
1765877517.3923972,492
1765877517.393377,489
1765877517.394387,491
1765877517.3954,494
1765877517.3963861,494
1765877517.397384,496
1765877517.398396,498
1765877517.399393,497
1765877517.4004009,493
1765877517.401418,492
1765877517.402515,493
1765877517.403527,492
1765877517.404507,494
1765877517.405503,495
1765877517.406514,495
1765877517.4074938,495
1765877517.4085078,496
1765877517.409495,499
1765877517.41054,500
1765877517.411536,498
1765877517.412565,497
1765877517.413567,492
1765877517.41456,489
1765877517.415543,493
1765877517.416524,494
1765877517.4175282,494
1765877517.418551,493
1765877517.419532,493
1765877517.420506,493
1765877517.421518,493
1765877517.422533,493
1765877517.423575,493
1765877517.4245272,493
1765877517.4255302,494
1765877517.4264908,493
1765877517.427499,494
1765877517.428491,494
1765877517.429514,493
1765877517.430492,494
1765877517.43149,495
1765877517.432495,494
1765877517.433505,494
1765877517.434533,494
1765877517.435501,494
1765877517.436509,494
1765877517.437531,495
1765877517.438518,494
1765877517.439497,494
1765877517.440566,494
1765877517.4415438,493
1765877517.44258,495
1765877517.44356,495
1765877517.444523,497
1765877517.445529,497
1765877517.446582,498
1765877517.447528,499
1765877517.448535,500
1765877517.449546,500
1765877517.4505541,494
1765877517.451555,492
1765877517.452566,493
1765877517.4536,490
1765877517.454557,491
1765877517.455636,493
1765877517.456567,493
1765877517.457592,494
1765877517.4586089,494
1765877517.4595468,494
1765877517.460557,494
1765877517.461621,495
1765877517.462579,495
1765877517.463595,496
1765877517.464643,495
1765877517.4656372,495
1765877517.466572,495
1765877517.467629,495
1765877517.4686441,494
1765877517.4696052,495
1765877517.470633,494
1765877517.471648,495
1765877517.4726012,494
1765877517.473645,494
1765877517.474664,494
1765877517.475627,494
1765877517.47665,493
1765877517.4777,493
1765877517.4786172,493
1765877517.479619,495
1765877517.480662,497
1765877517.481619,499
1765877517.482666,500
1765877517.483686,499
1765877517.484643,493
1765877517.4856691,493
1765877517.486686,498
1765877517.487625,495
1765877517.48872,495
1765877517.4896598,498
1765877517.490647,498
1765877517.491692,497
1765877517.49266,496
1765877517.493672,494
1765877517.494714,491
1765877517.49572,494
1765877517.496694,494
1765877517.4976661,494
1765877517.4986722,492
1765877517.499701,491
1765877517.5006669,493
1765877517.501663,492
1765877517.502672,493
1765877517.503697,494
1765877517.504692,494
1765877517.5056798,494
1765877517.506678,494
1765877517.5076811,496
1765877517.5087,496
1765877517.509699,496
1765877517.510706,494
1765877517.511703,495
1765877517.512703,495
1765877517.5137112,496
1765877517.514716,497
1765877517.515723,497
1765877517.51672,495
1765877517.517727,497
1765877517.518728,499
1765877517.519732,499
1765877517.520743,497
1765877517.521749,492
1765877517.522731,491
1765877517.5237482,493
1765877517.524746,494
1765877517.525751,493
1765877517.526755,492
1765877517.5277572,491
1765877517.5287502,494
1765877517.5297542,494
1765877517.530754,494
