timestamp,emg_value
1765877449.536059,495
1765877449.536076,495
1765877449.5360909,497
1765877449.536104,497
1765877449.536118,494
1765877449.5361311,492
1765877449.5361438,495
1765877449.536157,495
1765877449.536171,494
1765877449.536185,495
1765877449.536198,498
1765877449.536211,498
1765877449.536224,498
1765877449.536237,498
1765877449.53625,497
1765877449.536264,495
1765877449.536277,494
1765877449.5362911,493
1765877449.5363042,493
1765877449.5363169,495
1765877449.53633,496
1765877449.536343,496
1765877449.5363562,495
1765877449.5363688,495
1765877449.536382,494
1765877449.53641,494
1765877449.536427,495
1765877449.5364401,494
1765877449.536453,494
1765877449.536466,494
1765877449.536479,495
1765877449.536492,495
1765877449.536505,494
1765877449.5365179,495
1765877449.536531,495
1765877449.536544,496
1765877449.536557,496
1765877449.53657,495
1765877449.536583,494
1765877449.536596,494
1765877449.536609,494
1765877449.536623,494
1765877449.5366359,494
1765877449.536649,494
1765877449.536662,495
1765877449.536675,494
1765877449.5366871,495
1765877449.5367,496
1765877449.536713,496
1765877449.536726,496
1765877449.536739,498
1765877449.5367522,498
1765877449.53677,495
1765877449.536787,495
1765877449.536799,493
1765877449.536812,494
1765877449.5368252,492
1765877449.5368378,493
1765877449.536851,493
1765877449.536864,495
1765877449.5368772,495
1765877449.53689,495
1765877449.536903,494
1765877449.536916,494
1765877449.5369291,495
1765877449.536982,497
1765877449.5369952,498
1765877449.537008,497
1765877449.537021,497
1765877449.537034,497
1765877449.5370471,495
1765877449.53706,493
1765877449.537073,495
1765877449.537096,497
1765877449.537109,493
1765877449.537122,492
1765877449.537136,495
1765877449.5371861,494
1765877449.537204,493
1765877449.53722,494
1765877449.537232,493
1765877449.537246,493
1765877449.537259,494
1765877449.537272,494
1765877449.537285,497
1765877449.537298,496
1765877449.537311,497
1765877449.537324,498
1765877449.537337,496
1765877449.53735,494
1765877449.537363,494
1765877449.537376,494
1765877449.537389,494
1765877449.53741,493
1765877449.5374231,493
1765877449.537436,493
1765877449.537449,494
1765877449.537462,495
1765877449.537475,495
1765877449.537488,494
1765877449.5375009,495
1765877449.537514,494
1765877449.537527,493
1765877449.537539,493
1765877449.537557,493
1765877449.5375721,493
1765877449.5375848,494
1765877449.537599,495
1765877449.537612,497
1765877449.537647,497
1765877449.5376608,498
1765877449.537674,498
1765877449.537687,495
1765877449.5377002,492
1765877449.5377128,494
1765877449.537726,495
1765877449.537739,493
1765877449.5377522,492
1765877449.537765,494
1765877449.537778,495
1765877449.537791,495
1765877449.5378041,494
1765877449.537817,494
1765877449.5378299,493
1765877449.537842,494
1765877449.537855,495
1765877449.537868,497
1765877449.5378811,497
1765877449.5378938,496
1765877449.537914,493
1765877449.537927,493
1765877449.53794,493
1765877449.5379531,493
1765877449.537972,494
1765877449.537985,493
1765877449.537998,493
1765877449.5380108,496
1765877449.538024,497
1765877449.538037,497
1765877449.538049,497
1765877449.538062,494
1765877449.538075,491
1765877449.5380878,494
1765877449.538101,495
1765877449.538114,493
1765877449.5381272,494
1765877449.5381398,494
1765877449.538153,494
1765877449.538165,493
1765877449.5381792,494
1765877449.538191,496
1765877449.538204,497
1765877449.538217,498
1765877449.53823,499
1765877449.538243,497
1765877449.538256,495
1765877449.538269,494
1765877449.538282,495
1765877449.538295,495
1765877449.538311,495
1765877449.538326,494
1765877449.5383391,494
1765877449.538352,496
1765877449.538365,494
1765877449.538377,494
1765877449.53839,492
1765877449.538403,493
1765877449.5384161,494
1765877449.53843,493
1765877449.538442,495
1765877449.538455,495
1765877449.5384681,495
1765877449.538481,496
1765877449.538508,497
1765877449.538521,496
1765877449.538534,497
1765877449.538547,497
1765877449.53856,497
1765877449.538573,493
1765877449.5385861,494
1765877449.538599,493
1765877449.538611,493
1765877449.538624,494
1765877449.538638,495
1765877449.538653,495
1765877449.5386722,498
1765877449.538688,497
1765877449.5387032,496
1765877449.538719,494
1765877449.5387342,496
1765877449.538749,498
1765877449.538765,499
1765877449.53878,498
1765877449.538795,497
1765877449.538811,491
1765877449.538826,490
1765877449.538841,493
1765877449.538857,491
1765877449.538872,492
1765877449.538887,493
1765877449.538902,494
1765877449.5389178,495
1765877449.538933,496
1765877449.538948,495
1765877449.5389628,495
1765877449.538979,494
1765877449.5389938,493
1765877449.53901,495
1765877449.5390248,494
1765877449.53904,493
1765877449.539056,495
1765877449.539074,495
1765877449.5390909,494
1765877449.539107,495
1765877449.5391219,495
1765877449.5391371,495
1765877449.5391529,493
1765877449.539169,493
1765877449.539184,495
1765877449.5391989,494
1765877449.539215,495
1765877449.539231,494
1765877449.539246,495
1765877449.5392609,495
1765877449.539277,494
1765877449.5392919,495
1765877449.539308,494
1765877449.5393229,495
1765877449.5393379,494
1765877449.5393531,494
1765877449.539368,494
1765877449.5393841,494
1765877449.539399,494
1765877449.539436,495
1765877449.5394518,494
1765877449.539467,494
1765877449.539482,495
1765877449.539498,494
1765877449.5395179,495
1765877449.5395331,495
1765877449.539548,495
1765877449.539563,495
1765877449.539579,495
1765877449.539594,495
1765877449.5396092,497
1765877449.539624,498
1765877449.539639,500
1765877449.5396538,500
1765877449.53967,497
1765877449.539685,493
1765877449.5397,494
1765877449.539716,493
1765877449.539731,491
1765877449.539747,493
1765877449.539762,495
1765877449.539777,496
1765877449.5397918,495
1765877449.539808,494
1765877449.539823,492
1765877449.539839,493
1765877449.539854,495
1765877449.5398788,496
1765877449.539894,497
1765877449.5399098,496
1765877449.5399308,491
1765877449.539946,493
1765877449.539962,494
1765877449.539977,493
1765877449.539993,495
1765877449.540009,495
1765877449.540025,496
1765877449.54004,496
1765877449.540056,495
1765877449.540072,495
1765877449.540087,493
1765877449.540103,493
1765877449.540118,494
1765877449.5401332,494
1765877449.540149,494
1765877449.540164,497
1765877449.540179,498
1765877449.540195,499
1765877449.54021,500
1765877449.540226,498
1765877449.540241,489
1765877449.540256,491
1765877449.5402722,492
1765877449.540287,493
1765877449.540303,494
1765877449.540318,495
1765877449.5403378,495
1765877449.540354,496
1765877449.5403688,500
1765877449.540385,500
1765877449.5404,496
1765877449.540415,494
1765877449.540431,493
1765877449.540446,493
1765877449.540462,492
1765877449.540477,494
1765877449.540492,495
1765877449.5405068,497
1765877449.540531,498
1765877449.540546,494
1765877449.540561,492
1765877449.540577,493
1765877449.5405922,493
1765877449.540608,493
1765877449.5406232,494
1765877449.540652,494
1765877449.5406668,494
1765877449.540683,493
1765877449.540698,493
1765877449.540713,494
1765877449.540728,495
1765877449.5407438,495
1765877449.5407622,495
1765877449.540779,494
1765877449.5407948,497
1765877449.5408099,499
1765877449.540826,500
1765877449.5408409,501
1765877449.5408561,501
1765877449.540871,496
1765877449.540887,494
1765877449.540902,493
1765877449.540917,493
1765877449.5409331,491
1765877449.540948,492
1765877449.5409641,494
1765877449.540979,495
1765877449.540994,495
1765877449.54101,494
1765877449.541025,494
1765877449.541041,495
1765877449.541056,495
1765877449.5410712,495
1765877449.541086,496
1765877449.5411022,494
1765877449.541117,495
1765877449.5411332,494
1765877449.541148,495
1765877449.541167,495
1765877449.541184,495
1765877449.5412,495
1765877449.541215,494
1765877449.541232,494
1765877449.541247,495
1765877449.5412621,495
1765877449.541278,494
1765877449.5412931,495
1765877449.541308,496
1765877449.541323,496
1765877449.5413399,497
1765877449.541355,500
1765877449.5413709,501
1765877449.541386,500
1765877449.5414011,502
1765877449.541416,503
1765877449.5414321,499
1765877449.541447,500
1765877449.5414631,495
1765877449.541478,492
1765877449.5414941,490
1765877449.5415092,492
1765877449.541524,493
1765877449.5415401,494
1765877449.541555,494
1765877449.5415711,495
1765877449.541593,495
1765877449.5416079,495
1765877449.541624,496
1765877449.5416389,496
1765877449.541655,496
1765877449.5416698,496
1765877449.541685,496
1765877449.541701,496
1765877449.5417159,495
1765877449.541732,495
1765877449.5417469,496
1765877449.541763,495
1765877449.5417778,495
1765877449.541794,494
1765877449.5418088,496
1765877449.541825,495
1765877449.5418398,496
1765877449.541856,495
1765877449.541871,494
1765877449.5418859,494
1765877449.541902,496
1765877449.5419168,495
1765877449.541933,494
1765877449.5419478,496
1765877449.541964,496
1765877449.5419788,496
1765877449.542001,497
1765877449.542016,497
1765877449.5420318,495
1765877449.542049,495
1765877449.542067,496
1765877449.542083,495
1765877449.5421,495
1765877449.5421162,496
1765877449.542131,495
1765877449.5421472,495
1765877449.542162,495
1765877449.542177,495
1765877449.542193,495
1765877449.542208,496
1765877449.542224,496
1765877449.542239,495
1765877449.5422552,494
1765877449.54227,495
1765877449.5422862,495
1765877449.542301,494
1765877449.5423172,494
1765877449.542332,494
1765877449.5423481,495
1765877449.542363,495
1765877449.542379,495
1765877449.5423942,495
1765877449.5424142,495
1765877449.54243,495
1765877449.542445,495
1765877449.54246,494
1765877449.542476,495
1765877449.542492,495
1765877449.542507,495
1765877449.5425222,495
1765877449.5425851,495
1765877449.5427089,494
1765877449.542729,495
1765877449.542745,495
1765877449.542762,495
1765877449.542778,495
1765877449.542793,496
1765877449.542809,495
1765877449.542824,495
1765877449.54284,496
1765877449.542856,496
1765877449.5428932,496
1765877449.542912,496
1765877449.542927,495
1765877449.542943,494
1765877449.5429592,494
1765877449.542975,494
1765877449.54299,495
1765877449.543009,495
1765877449.543026,495
1765877449.543042,495
1765877449.543057,494
1765877449.543073,494
1765877449.5430882,495
1765877449.543138,495
1765877449.543155,496
1765877449.5431712,496
1765877449.543186,493
1765877449.543205,494
1765877449.543221,495
1765877449.543236,495
1765877449.543252,495
1765877449.5432682,495
1765877449.543283,495
1765877449.543299,495
1765877449.543314,495
1765877449.54333,495
1765877449.543346,495
1765877449.543361,494
1765877449.543377,495
1765877449.543392,494
1765877449.5434082,494
1765877449.543424,495
1765877449.5434391,495
1765877449.5434592,494
1765877449.5434759,495
1765877449.543492,495
1765877449.5435069,495
1765877449.543523,495
1765877449.5435379,494
1765877449.543553,494
1765877449.5435688,494
1765877449.543584,494
1765877449.5436,495
1765877449.5436149,495
1765877449.543631,495
1765877449.543647,494
1765877449.543662,494
1765877449.543678,493
1765877449.543693,493
1765877449.5437078,494
1765877449.543724,496
1765877449.5437388,497
1765877449.543755,496
1765877449.54377,495
1765877449.543786,495
1765877449.543801,495
1765877449.543817,495
1765877449.543832,496
1765877449.543848,496
1765877449.543863,496
1765877449.543884,495
1765877449.5438988,495
1765877449.543915,495
1765877449.5439308,495
1765877449.543947,496
1765877449.543963,496
1765877449.543978,496
1765877449.5439942,496
1765877449.54401,495
1765877449.544047,495
1765877449.544079,495
1765877449.544096,495
1765877449.544111,495
1765877449.544127,494
1765877449.544144,495
1765877449.54416,495
1765877449.544176,495
1765877449.544192,495
1765877449.544207,495
1765877449.544223,494
1765877449.544238,495
1765877449.544254,495
1765877449.54427,495
1765877449.544286,495
1765877449.544301,495
1765877449.544317,495
1765877449.5443368,495
1765877449.544353,495
1765877449.544368,495
1765877449.544384,495
1765877449.544399,495
1765877449.544415,495
1765877449.54443,495
1765877449.544445,495
1765877449.544461,495
1765877449.544477,495
1765877449.544492,495
1765877449.544508,495
1765877449.544524,495
1765877449.544539,495
1765877449.544555,495
1765877449.544571,495
1765877449.544587,495
1765877449.5446022,494
1765877449.544618,494
1765877449.544636,494
1765877449.544652,495
1765877449.544668,497
1765877449.544684,497
1765877449.5447,496
1765877449.544715,496
1765877449.544731,496
1765877449.54475,492
1765877449.544766,492
1765877449.5447822,494
1765877449.544797,493
1765877449.5448132,497
1765877449.544829,498
1765877449.5448442,494
1765877449.54486,493
1765877449.544876,491
1765877449.5448918,493
1765877449.544908,495
1765877449.544924,497
1765877449.54494,497
1765877449.5449548,497
1765877449.544971,497
1765877449.544987,496
1765877449.545002,496
1765877449.5450182,496
1765877449.545034,496
1765877449.5450492,495
1765877449.545065,495
1765877449.5450811,497
1765877449.545096,496
1765877449.5451121,495
1765877449.545127,495
1765877449.5451431,496
1765877449.545162,495
1765877449.5451798,495
1765877449.545196,496
1765877449.5452118,495
1765877449.545228,495
1765877449.5452428,495
1765877449.545259,495
1765877449.545275,496
1765877449.545291,496
1765877449.545307,495
1765877449.545322,496
1765877449.5453382,495
1765877449.545354,495
1765877449.54537,496
1765877449.545386,495
1765877449.545429,495
1765877449.5454452,495
1765877449.54546,495
1765877449.5454762,496
1765877449.545491,496
1765877449.545507,496
1765877449.545522,496
1765877449.545538,495
1765877449.545554,495
1765877449.5455701,495
1765877449.545585,495
1765877449.5456052,496
1765877449.545622,496
1765877449.5456378,495
1765877449.545654,496
1765877449.5456698,495
1765877449.545685,496
1765877449.545701,496
1765877449.545717,496
1765877449.545732,495
1765877449.545748,495
1765877449.545763,496
1765877449.545779,495
1765877449.545794,495
1765877449.54581,496
1765877449.545826,496
1765877449.545841,496
1765877449.545857,496
1765877449.545873,495
1765877449.545888,496
1765877449.545949,495
1765877449.545992,495
1765877449.5460072,496
1765877449.546022,496
1765877449.546036,496
1765877449.546048,496
1765877449.5460658,495
1765877449.5460842,496
1765877449.546099,495
1765877449.546113,495
1765877449.5461252,495
1765877449.546137,496
1765877449.546148,496
1765877449.5461602,495
1765877449.546172,495
1765877449.5461838,495
1765877449.546196,496
1765877449.546208,497
1765877449.546219,496
1765877449.546231,496
1765877449.5462432,495
1765877449.5462542,495
1765877449.546266,495
1765877449.546278,495
1765877449.54629,495
1765877449.5463018,496
1765877449.546313,495
1765877449.546325,496
1765877449.5463371,496
1765877449.5463521,495
1765877449.546365,495
1765877449.546377,495
1765877449.546389,495
1765877449.546402,495
1765877449.546417,495
1765877449.546431,496
1765877449.546442,496
1765877449.546454,495
1765877449.546466,496
1765877449.546477,495
1765877449.546489,496
1765877449.5465012,495
1765877449.5465128,495
1765877449.5465238,495
1765877449.546536,495
1765877449.546554,496
1765877449.5465658,495
1765877449.546581,496
1765877449.546595,496
1765877449.546606,496
1765877449.5466208,496
1765877449.546633,496
1765877449.546649,495
1765877449.5466628,495
1765877449.546678,495
1765877449.546689,494
1765877449.546701,494
1765877449.546713,495
1765877449.546725,495
1765877449.546738,495
1765877449.5467541,495
1765877449.546767,496
1765877449.546783,496
1765877449.546797,496
1765877449.5468109,496
1765877449.546823,496
1765877449.546835,496
1765877449.5468469,496
1765877449.546859,496
1765877449.546871,496
1765877449.546883,496
1765877449.546895,496
1765877449.546906,496
1765877449.5469189,495
1765877449.546931,496
1765877449.546942,495
1765877449.546954,495
1765877449.546966,496
1765877449.546978,495
1765877449.5469902,496
1765877449.5470028,496
1765877449.547015,496
1765877449.5470269,495
1765877449.547044,495
1765877449.5470579,495
1765877449.5470731,495
1765877449.547088,496
1765877449.547101,497
1765877449.547113,496
1765877449.547125,496
1765877449.547137,495
1765877449.547154,496
1765877449.547168,495
1765877449.5471811,495
1765877449.547193,496
1765877449.5472052,496
1765877449.547217,495
1765877449.5472288,496
1765877449.547241,497
1765877449.547252,496
1765877449.547264,496
1765877449.547276,497
1765877449.5472882,496
1765877449.547303,496
1765877449.547318,496
1765877449.547332,497
1765877449.547344,497
1765877449.547356,496
1765877449.5473669,496
1765877449.547379,496
1765877449.547391,496
1765877449.547405,496
1765877449.5474198,496
1765877449.547433,496
1765877449.547445,496
1765877449.547457,496
1765877449.5474691,496
1765877449.54748,496
1765877449.5474932,495
1765877449.547505,496
1765877449.5475168,495
1765877449.547529,495
1765877449.54754,496
1765877449.547552,495
1765877449.5475688,495
1765877449.547581,495
1765877449.547596,495
1765877449.54761,496
1765877449.547622,495
1765877449.547634,495
1765877449.547646,496
1765877449.547657,496
1765877449.547669,495
1765877449.547681,495
1765877449.547693,495
1765877449.5477052,495
1765877449.547717,496
1765877449.5477319,495
1765877449.547748,496
1765877449.547761,496
1765877449.547772,495
1765877449.547785,495
1765877449.547798,495
1765877449.547811,495
1765877449.5478232,495
1765877449.5478349,495
1765877449.5478468,495
1765877449.54786,496
1765877449.547873,496
1765877449.5478861,495
1765877449.547898,495
1765877449.547911,496
1765877449.5479228,496
1765877449.547936,495
1765877449.5479481,495
1765877449.5480268,495
1765877449.5480618,495
1765877449.548076,495
1765877449.5480902,496
1765877449.548105,495
1765877449.548118,495
1765877449.54813,495
1765877449.5481422,495
1765877449.548157,495
1765877449.548172,495
1765877449.548185,495
1765877449.548197,496
1765877449.54821,495
1765877449.548225,495
1765877449.548239,495
1765877449.548251,495
1765877449.5482628,495
1765877449.548276,495
1765877449.548288,495
1765877449.5483,495
1765877449.5483131,495
1765877449.548325,495
1765877449.548338,495
1765877449.5483499,495
1765877449.548362,495
1765877449.548374,495
1765877449.548387,495
1765877449.5483992,495
1765877449.548411,495
1765877449.5484228,496
1765877449.548436,495
1765877449.548448,495
1765877449.54846,495
1765877449.5484722,496
1765877449.548488,495
1765877449.548503,495
1765877449.548516,495
1765877449.548529,495
1765877449.5485408,496
1765877449.548553,495
1765877449.548565,494
1765877449.5485802,494
1765877449.5485928,494
1765877449.548605,494
1765877449.548617,495
1765877449.5486321,495
1765877449.548644,495
1765877449.548657,495
1765877449.5486689,495
1765877449.548681,495
1765877449.548693,494
1765877449.548706,495
1765877449.548718,495
1765877449.5487309,495
1765877449.5487459,494
1765877449.548759,495
1765877449.548772,495
1765877449.548785,495
1765877449.5487978,495
1765877449.54881,495
1765877449.5488262,495
1765877449.54884,495
1765877449.548854,495
1765877449.548867,495
1765877449.5488799,496
1765877449.548894,495
1765877449.548907,495
1765877449.548921,495
1765877449.548934,495
1765877449.5489469,494
1765877449.54896,494
1765877449.548974,494
1765877449.548987,494
1765877449.549001,495
1765877449.549014,495
1765877449.549027,496
1765877449.5490391,496
1765877449.549052,496
1765877449.5490649,495
1765877449.549078,495
1765877449.5490901,494
1765877449.549102,494
1765877449.549115,494
1765877449.54914,494
1765877449.549278,495
1765877449.549294,494
1765877449.5493171,495
1765877449.54933,495
1765877449.549342,495
1765877449.549355,495
1765877449.5493681,495
1765877449.54938,495
1765877449.549393,494
1765877449.549407,495
1765877449.54942,495
1765877449.549432,494
1765877449.5494442,495
1765877449.549458,494
1765877449.54947,494
1765877449.549901,495
1765877449.5499241,494
1765877449.549939,493
1765877449.549953,494
1765877449.5501351,495
1765877449.5501509,495
1765877449.550165,495
1765877449.5502112,496
1765877449.5502248,495
1765877449.550238,495
1765877449.550251,494
1765877449.550263,495
1765877449.550288,495
1765877449.550315,495
1765877449.550329,495
1765877449.5503411,495
1765877449.5503528,495
1765877449.550366,495
1765877449.5503821,495
1765877449.5503948,495
1765877449.55041,494
1765877449.5504498,494
1765877449.550477,494
1765877449.5504901,494
1765877449.550503,495
1765877449.550515,495
1765877449.550529,495
1765877449.550543,495
1765877449.550573,495
1765877449.5505862,495
1765877449.550598,496
1765877449.5506098,495
1765877449.550622,495
1765877449.550634,495
1765877449.550647,495
1765877449.5506592,495
1765877449.5506802,495
1765877449.550692,495
1765877449.5507042,495
1765877449.55072,495
1765877449.550733,495
1765877449.550744,495
1765877449.5507572,494
1765877449.5507689,494
1765877449.550781,495
1765877449.550793,494
1765877449.550805,494
1765877449.550854,495
1765877449.55087,496
1765877449.550893,495
1765877449.5509062,495
1765877449.5509188,495
1765877449.550931,495
1765877449.550943,495
1765877449.550956,495
1765877449.5509682,495
1765877449.550987,495
1765877449.550999,495
1765877449.551012,495
1765877449.5510242,496
1765877449.5510411,496
1765877449.5510552,496
1765877449.5510678,496
1765877449.55108,495
1765877449.551092,494
1765877449.5511072,494
1765877449.551122,495
1765877449.551135,495
1765877449.551147,494
1765877449.5511591,495
1765877449.551172,495
1765877449.551184,496
1765877449.5511959,496
1765877449.551208,497
1765877449.551221,497
1765877449.551239,496
1765877449.551252,495
1765877449.551264,494
1765877449.551276,494
1765877449.5512881,494
1765877449.551301,494
1765877449.5513139,495
1765877449.551327,495
1765877449.551339,495
1765877449.551351,495
1765877449.551363,495
1765877449.5513759,495
1765877449.5513878,496
1765877449.551401,495
1765877449.551413,495
1765877449.551425,495
1765877449.551438,495
1765877449.551451,495
1765877449.551467,495
1765877449.55148,495
1765877449.5514932,495
1765877449.551511,495
1765877449.551523,494
1765877449.5515351,494
1765877449.5515468,495
1765877449.5515661,495
1765877449.551578,495
1765877449.551591,495
1765877449.5516028,496
1765877449.551619,495
1765877449.5516312,495
1765877449.551643,495
1765877449.551656,496
1765877449.551668,495
1765877449.55168,495
1765877449.551692,496
1765877449.5517042,496
1765877449.551716,495
1765877449.551728,496
1765877449.55174,495
1765877449.5517519,495
1765877449.551769,495
1765877449.551782,495
1765877449.551795,495
1765877449.551807,495
1765877449.551819,495
1765877449.551832,495
1765877449.5518441,495
1765877449.551856,495
1765877449.551872,495
1765877449.551884,495
1765877449.551897,495
1765877449.5519092,495
1765877449.551921,495
1765877449.5519328,496
1765877449.551945,495
1765877449.551957,495
1765877449.55197,495
1765877449.5519822,495
1765877449.551994,495
1765877449.552083,495
1765877449.5521028,497
1765877449.552119,496
1765877449.5521338,496
1765877449.55215,495
1765877449.552166,494
1765877449.552181,494
1765877449.5521972,494
1765877449.552212,494
1765877449.552237,495
1765877449.552253,495
1765877449.552268,495
1765877449.552284,495
1765877449.552299,495
1765877449.552315,496
1765877449.55233,497
1765877449.5523462,498
1765877449.552362,497
1765877449.552377,495
1765877449.552393,495
1765877449.552408,495
1765877449.552424,496
1765877449.552439,495
1765877449.552455,495
1765877449.552471,494
1765877449.552486,494
1765877449.552502,495
1765877449.5525172,495
1765877449.552531,495
1765877449.552544,495
1765877449.552557,495
1765877449.55257,495
1765877449.552583,495
1765877449.5525959,496
1765877449.552609,495
1765877449.5526268,494
1765877449.55264,494
1765877449.552653,495
1765877449.5526662,495
1765877449.5526788,496
1765877449.552692,495
1765877449.552705,495
1765877449.552717,494
1765877449.55273,495
1765877449.552743,496
1765877449.552756,495
1765877449.552769,496
1765877449.552782,496
1765877449.552795,496
1765877449.552808,497
1765877449.552821,497
1765877449.552834,497
1765877449.5528479,496
1765877449.552861,495
1765877449.552874,495
1765877449.552887,495
1765877449.5529,495
1765877449.552913,495
1765877449.552927,495
1765877449.5529401,495
1765877449.552953,496
1765877449.55297,497
1765877449.552984,497
1765877449.552997,496
1765877449.55301,496
1765877449.5530229,496
1765877449.5530372,496
1765877449.55305,496
1765877449.553063,497
1765877449.553076,496
1765877449.5530891,496
1765877449.553102,496
1765877449.553115,496
1765877449.553128,496
1765877449.5531409,496
1765877449.5531552,496
1765877449.5531678,496
1765877449.553181,496
1765877449.553194,495
1765877449.5532072,496
1765877449.55322,496
1765877449.553233,496
1765877449.553247,496
1765877449.55326,496
1765877449.553272,496
1765877449.5532851,496
1765877449.553299,496
1765877449.553314,495
1765877449.553329,496
1765877449.553344,496
1765877449.5533571,495
1765877449.55337,495
1765877449.5533829,495
1765877449.553396,495
1765877449.55341,496
1765877449.5534232,495
1765877449.5534358,495
1765877449.553449,495
1765877449.553462,495
1765877449.553476,495
1765877449.553489,496
1765877449.5535018,495
1765877449.553515,495
1765877449.553528,495
1765877449.5535412,495
1765877449.553555,495
1765877449.553568,495
1765877449.553581,495
1765877449.553594,495
1765877449.553607,495
1765877449.5536199,495
1765877449.553633,495
1765877449.553646,496
1765877449.553659,496
1765877449.553677,495
1765877449.5536902,496
1765877449.5537028,496
1765877449.553716,496
1765877449.553729,495
1765877449.5537422,494
1765877449.5537548,494
1765877449.553768,494
1765877449.553781,495
1765877449.5537941,494
1765877449.553807,495
1765877449.55382,495
1765877449.553833,495
1765877449.5538461,495
1765877449.553859,495
1765877449.5538719,493
1765877449.553885,493
1765877449.553898,494
1765877449.553911,494
1765877449.553925,495
1765877449.553938,497
1765877449.553951,497
1765877449.5539641,496
1765877449.553977,495
1765877449.55399,495
1765877449.554003,495
1765877449.5540211,495
1765877449.554034,495
1765877449.5540469,496
1765877449.55406,495
1765877449.554073,495
1765877449.554086,495
1765877449.5540988,495
1765877449.554112,495
1765877449.554126,495
1765877449.554139,495
1765877449.554152,495
1765877449.554165,495
1765877449.554178,495
1765877449.554191,495
1765877449.554204,494
1765877449.5542169,495
1765877449.55423,495
1765877449.554243,496
1765877449.554256,495
1765877449.5542688,495
1765877449.554282,495
1765877449.554295,496
1765877449.5543082,495
1765877449.5543208,495
1765877449.554334,496
1765877449.554347,495
1765877449.554364,496
1765877449.554379,495
1765877449.554392,495
1765877449.5544052,495
1765877449.5544178,495
1765877449.554431,496
1765877449.554445,496
1765877449.5544572,495
1765877449.5544698,494
1765877449.554483,495
1765877449.554496,495
1765877449.5545092,496
1765877449.554522,495
1765877449.554535,495
1765877449.554548,495
1765877449.5545611,495
1765877449.554574,495
1765877449.5545878,495
1765877449.554602,496
1765877449.554615,495
1765877449.5546281,495
1765877449.554641,495
1765877449.554654,495
1765877449.554667,496
1765877449.55468,495
1765877449.5546932,496
1765877449.554709,496
1765877449.554723,495
1765877449.5547378,495
1765877449.554754,495
1765877449.5547688,493
1765877449.554785,493
1765877449.5548,494
1765877449.554816,497
1765877449.554831,496
1765877449.554847,496
1765877449.554862,494
1765877449.554878,494
1765877449.554893,495
1765877449.554909,494
1765877449.554925,496
1765877449.55494,495
1765877449.554956,495
1765877449.554971,495
1765877449.554987,495
1765877449.5550022,496
1765877449.555017,496
1765877449.5550332,496
1765877449.555049,495
1765877449.555064,494
1765877449.55508,493
1765877449.5550961,495
1765877449.555112,495
1765877449.555132,495
1765877449.555147,495
1765877449.555163,495
1765877449.555179,496
1765877449.5551941,495
1765877449.5552099,496
1765877449.5552251,496
1765877449.5552409,495
1765877449.5552561,495
1765877449.5552719,496
1765877449.5552871,495
1765877449.5553029,495
1765877449.555319,495
1765877449.5553339,496
1765877449.555351,496
1765877449.5553658,495
1765877449.555382,496
1765877449.555398,495
1765877449.555413,495
1765877449.5554292,496
1765877449.555444,495
1765877449.5554602,495
1765877449.555475,496
1765877449.555491,496
1765877449.555506,496
1765877449.555522,495
1765877449.555543,495
1765877449.555559,495
1765877449.555574,495
1765877449.55559,495
1765877449.555605,495
1765877449.5556211,495
1765877449.555636,496
1765877449.5556521,496
1765877449.555667,496
1765877449.5556831,496
1765877449.555698,495
1765877449.5557141,495
1765877449.5557299,495
1765877449.5557451,495
1765877449.5557609,496
1765877449.555777,495
1765877449.5557919,495
1765877449.555808,495
1765877449.555823,496
1765877449.555839,495
1765877449.555855,496
1765877449.555871,496
1765877449.5558841,495
1765877449.555897,496
1765877449.5559099,495
1765877449.555923,495
1765877449.5559402,495
1765877449.555954,496
1765877449.555967,495
1765877449.55598,495
1765877449.555993,495
1765877449.556006,495
1765877449.5560188,496
1765877449.5560331,495
1765877449.556046,495
1765877449.556059,495
1765877449.556072,495
1765877449.556085,496
1765877449.556098,497
1765877449.556111,496
1765877449.556124,495
1765877449.5561368,495
1765877449.55615,496
1765877449.556164,495
1765877449.556177,495
1765877449.55619,495
1765877449.5562031,496
1765877449.5562172,495
1765877449.5562298,496
1765877449.556243,495
1765877449.556256,495
1765877449.5562701,495
1765877449.556288,495
1765877449.556302,495
1765877449.556315,495
1765877449.5563278,495
1765877449.5563421,496
1765877449.556355,496
1765877449.5563679,495
1765877449.556381,495
1765877449.556394,495
1765877449.5564082,497
1765877449.556421,495
1765877449.556434,495
1765877449.556447,496
1765877449.5564601,495
1765877449.556473,496
1765877449.556486,497
1765877449.556499,496
1765877449.556512,496
1765877449.5565262,495
1765877449.5565388,496
1765877449.556552,496
1765877449.556565,495
1765877449.5565782,495
1765877449.556591,495
1765877449.556604,495
1765877449.5566232,496
1765877449.556639,496
1765877449.556654,496
1765877449.5566669,496
1765877449.55668,496
1765877449.556693,496
1765877449.556706,496
1765877449.556719,496
1765877449.556733,495
1765877449.556746,495
1765877449.556759,496
1765877449.556772,495
1765877449.5567849,496
1765877449.556798,496
1765877449.556811,495
1765877449.556824,495
1765877449.5568378,495
1765877449.556851,495
1765877449.556864,495
1765877449.5568771,495
1765877449.556891,495
1765877449.5569038,495
1765877449.556917,495
1765877449.55693,495
1765877449.5569432,496
1765877449.5569558,495
1765877449.556969,495
1765877449.556982,495
1765877449.557,495
1765877449.557013,495
1765877449.557029,495
1765877449.557042,495
1765877449.557055,496
1765877449.557068,496
1765877449.557081,496
1765877449.5570939,495
1765877449.557108,495
1765877449.557121,495
1765877449.5571342,495
1765877449.5571468,495
1765877449.55716,495
1765877449.557173,495
1765877449.5571861,496
1765877449.557199,496
1765877449.5572119,495
1765877449.557225,496
1765877449.557238,495
1765877449.557251,495
1765877449.5572639,496
1765877449.557277,496
1765877449.55729,495
1765877449.5573041,496
1765877449.557317,495
1765877449.55733,496
1765877449.557346,496
1765877449.557361,495
1765877449.557374,496
1765877449.557387,496
1765877449.5574,495
1765877449.5574138,495
1765877449.557427,495
1765877449.55744,496
1765877449.5574532,495
1765877449.557467,496
1765877449.5574799,496
1765877449.557493,496
1765877449.557506,495
1765877449.5575192,495
1765877449.5575318,495
1765877449.557545,496
1765877449.557558,495
1765877449.55758,495
1765877449.5575948,495
1765877449.557608,496
1765877449.557621,496
1765877449.5576692,496
1765877449.557684,495
1765877449.557697,496
1765877449.5577102,496
1765877449.5577228,496
1765877449.55774,496
1765877449.557755,496
1765877449.5577679,495
1765877449.55778,495
1765877449.5577931,496
1765877449.557806,496
1765877449.557819,497
1765877449.557832,497
1765877449.5578449,497
1765877449.557858,497
1765877449.557871,497
1765877449.5578828,497
1765877449.557896,497
1765877449.557909,497
1765877449.5579221,497
1765877449.557942,497
1765877449.557955,498
1765877449.557968,497
1765877449.557981,496
1765877449.557994,497
1765877449.558007,496
1765877449.55802,496
1765877449.558033,496
1765877449.5580459,496
1765877449.558059,495
1765877449.558072,496
1765877449.5580869,496
1765877449.5581021,496
1765877449.558115,497
1765877449.558128,495
1765877449.558141,495
1765877449.5581539,496
1765877449.558167,496
1765877449.558181,496
1765877449.558194,496
1765877449.558207,496
1765877449.5582201,496
1765877449.558233,496
1765877449.558246,496
1765877449.558259,495
1765877449.558272,496
1765877449.558285,496
1765877449.558298,496
1765877449.558311,496
1765877449.558325,496
1765877449.5583382,496
1765877449.558351,496
1765877449.558364,496
1765877449.558377,496
1765877449.55839,496
1765877449.558403,496
1765877449.558416,496
1765877449.558429,496
1765877449.5584471,496
1765877449.558461,495
1765877449.558474,496
1765877449.558487,496
1765877449.5585,496
1765877449.558513,496
1765877449.558526,496
1765877449.558539,496
1765877449.558552,496
1765877449.5585651,496
1765877449.558578,496
1765877449.558603,496
1765877449.5586162,496
1765877449.558629,496
1765877449.558642,496
1765877449.558655,496
1765877449.558667,496
1765877449.55868,496
1765877449.5586932,495
1765877449.5587142,496
1765877449.558727,496
1765877449.55874,496
1765877449.558753,496
1765877449.5587661,496
1765877449.5587788,496
1765877449.5587919,496
1765877449.558808,496
1765877449.558822,496
1765877449.558835,496
1765877449.558848,497
1765877449.558861,496
1765877449.5588741,496
1765877449.558887,496
1765877449.5588999,495
1765877449.558913,495
1765877449.558926,496
1765877449.558939,495
1765877449.5589519,496
1765877449.558965,495
1765877449.558978,496
1765877449.5589912,495
1765877449.5590038,496
1765877449.559017,495
1765877449.55903,496
1765877449.5590432,496
1765877449.5590558,496
1765877449.559069,496
1765877449.559082,496
1765877449.5590951,496
1765877449.559108,496
1765877449.559121,497
1765877449.559134,497
1765877449.559155,497
1765877449.55917,496
1765877449.5591831,496
1765877449.559196,496
1765877449.559216,496
1765877449.5592299,495
1765877449.559242,495
1765877449.5592551,496
1765877449.559268,496
1765877449.5592809,496
1765877449.559294,496
1765877449.559307,496
1765877449.55932,496
1765877449.559333,495
1765877449.559346,495
1765877449.559359,495
1765877449.559372,496
1765877449.559386,496
1765877449.559398,496
1765877449.559411,496
1765877449.559424,496
1765877449.559437,496
1765877449.5594501,496
1765877449.559463,496
1765877449.559476,496
1765877449.559489,496
1765877449.559506,495
1765877449.55952,495
1765877449.559533,496
1765877449.559547,496
1765877449.5595598,495
1765877449.559572,496
1765877449.559585,496
1765877449.5596101,495
1765877449.559623,495
1765877449.5596359,496
1765877449.559649,496
1765877449.559662,495
1765877449.559675,495
1765877449.559689,496
1765877449.559702,495
1765877449.559715,495
1765877449.5597281,495
1765877449.559741,496
1765877449.559754,496
1765877449.559767,497
1765877449.5597801,496
1765877449.559793,496
1765877449.5598059,496
1765877449.559819,496
1765877449.559832,495
1765877449.5598452,496
1765877449.5598578,496
1765877449.5598762,496
1765877449.5598888,496
1765877449.559902,496
1765877449.559915,496
1765877449.5599282,496
1765877449.559941,495
1765877449.559953,496
1765877449.5599658,496
1765877449.55998,496
1765877449.559993,496
1765877449.560006,496
1765877449.560019,496
1765877449.560032,496
1765877449.5600471,496
1765877449.5600588,496
1765877449.560072,496
1765877449.560085,496
1765877449.560098,496
1765877449.560111,497
1765877449.560131,496
1765877449.560144,496
1765877449.5601568,496
1765877449.56017,496
1765877449.560183,496
1765877449.5601962,496
1765877449.5602088,496
1765877449.560226,496
1765877449.560239,496
1765877449.560252,496
1765877449.560265,496
1765877449.560278,496
1765877449.560291,496
1765877449.5603042,496
1765877449.560317,496
1765877449.56033,496
1765877449.560343,496
1765877449.5603561,495
1765877449.560369,496
1765877449.560382,496
1765877449.560396,495
1765877449.560409,496
1765877449.560422,496
1765877449.560435,495
1765877449.560448,496
1765877449.560461,496
1765877449.5604742,496
1765877449.5604868,496
1765877449.5605,496
1765877449.560513,496
1765877449.5605261,496
1765877449.56054,496
1765877449.560552,496
1765877449.560568,496
1765877449.560582,496
1765877449.560595,496
1765877449.560608,496
1765877449.560621,497
1765877449.5606341,495
1765877449.560647,496
1765877449.560661,496
1765877449.560674,496
1765877449.560687,496
1765877449.5607,496
1765877449.560713,496
1765877449.560726,495
1765877449.560739,495
1765877449.5607522,496
1765877449.560765,496
1765877449.560778,496
1765877449.560791,496
1765877449.560808,496
1765877449.560822,496
1765877449.5608351,496
1765877449.5608478,496
1765877449.5608609,496
1765877449.560874,496
1765877449.560888,496
1765877449.5609012,496
1765877449.560915,496
1765877449.560933,496
1765877449.560946,496
1765877449.5609589,496
1765877449.560972,495
1765877449.560985,496
1765877449.560998,495
1765877449.5610108,496
1765877449.561024,496
1765877449.561037,496
1765877449.5610502,496
1765877449.5610628,496
1765877449.5610769,496
1765877449.56109,496
1765877449.5611038,496
1765877449.561116,495
1765877449.56113,495
1765877449.561143,496
1765877449.561159,496
1765877449.561173,496
1765877449.561186,496
1765877449.561205,496
1765877449.561219,496
1765877449.5612319,496
1765877449.561248,496
1765877449.561261,496
1765877449.561274,496
1765877449.5612931,496
1765877449.561306,496
1765877449.561321,496
1765877449.5613341,496
1765877449.561347,496
1765877449.56136,496
1765877449.561373,496
1765877449.5613859,496
1765877449.561399,495
1765877449.561412,496
1765877449.561426,496
1765877449.561439,496
1765877449.5614522,496
1765877449.561465,496
1765877449.561478,496
1765877449.561491,496
1765877449.561504,496
1765877449.561517,496
1765877449.56153,496
1765877449.561543,496
1765877449.5615559,496
1765877449.561569,496
1765877449.561582,496
1765877449.561595,495
1765877449.561609,496
1765877449.561622,496
1765877449.5616379,496
1765877449.561652,496
1765877449.561665,496
1765877449.5616782,496
1765877449.5616908,496
1765877449.561704,496
1765877449.561717,495
1765877449.5617301,495
1765877449.561743,496
1765877449.561756,496
1765877449.561769,497
1765877449.561783,496
1765877449.5617962,496
1765877449.5618088,496
1765877449.561822,496
1765877449.561835,495
1765877449.561849,495
1765877449.561862,495
1765877449.5618749,495
1765877449.561888,495
1765877449.561901,496
1765877449.561913,495
1765877449.5619252,495
1765877449.561936,495
1765877449.5619469,496
1765877449.5619578,496
1765877449.561972,496
1765877449.561986,496
1765877449.561997,496
1765877449.5620081,496
1765877449.562019,496
1765877449.56203,496
1765877449.562042,495
1765877449.5620532,496
1765877449.562064,496
1765877449.5620759,496
1765877449.5620868,496
1765877449.562098,496
1765877449.562109,496
1765877449.562121,495
1765877449.562132,495
1765877449.562143,496
1765877449.562154,496
1765877449.562166,496
1765877449.562177,496
1765877449.562189,496
1765877449.5622,496
1765877449.562211,496
1765877449.562222,496
1765877449.5622342,496
1765877449.5622451,496
1765877449.5622559,495
1765877449.5622668,495
1765877449.562283,496
1765877449.562294,496
1765877449.562305,496
1765877449.5623198,496
1765877449.562331,496
1765877449.562342,496
1765877449.5623538,496
1765877449.5623648,496
1765877449.562376,496
1765877449.562387,495
1765877449.562399,496
1765877449.5624099,496
1765877449.562421,495
1765877449.562433,496
1765877449.562444,496
1765877449.562455,495
1765877449.562467,496
1765877449.562478,496
1765877449.562489,496
1765877449.5625012,495
1765877449.562512,496
1765877449.562523,496
1765877449.5625348,497
1765877449.562546,497
1765877449.562557,497
1765877449.562569,497
1765877449.562583,497
1765877449.5625951,497
1765877449.562606,497
1765877449.562618,496
1765877449.5626292,497
1765877449.56264,496
1765877449.5626519,497
1765877449.5626628,497
1765877449.562675,497
1765877449.562686,497
1765877449.562697,497
1765877449.562709,496
1765877449.56272,496
1765877449.562731,496
1765877449.562743,496
1765877449.5627542,497
1765877449.5627651,496
1765877449.562777,496
1765877449.562788,495
1765877449.5628002,496
1765877449.562811,496
1765877449.5628219,496
1765877449.5628328,496
1765877449.562845,496
1765877449.562856,497
1765877449.562867,497
1765877449.562882,496
1765877449.5628958,496
1765877449.562907,496
1765877449.562919,496
1765877449.5629299,496
1765877449.5629408,496
1765877449.562953,496
1765877449.562964,496
1765877449.562975,496
1765877449.562987,496
1765877449.562998,496
1765877449.563009,496
1765877449.56302,496
1765877449.5630322,496
1765877449.563043,496
1765877449.563054,496
1765877449.563066,496
1765877449.5630772,496
1765877449.563089,495
1765877449.5630999,496
1765877449.5631108,496
1765877449.563123,496
1765877449.563134,496
1765877449.563145,496
1765877449.563157,496
1765877449.563168,496
1765877449.56318,496
1765877449.563194,496
1765877449.563207,495
1765877449.5632179,495
1765877449.5632288,496
1765877449.56324,497
1765877449.563252,496
1765877449.563263,496
1765877449.563274,496
1765877449.563286,496
1765877449.563297,496
1765877449.563308,497
1765877449.563319,496
1765877449.5633311,496
1765877449.563342,496
1765877449.563353,496
1765877449.563364,496
1765877449.5633762,496
1765877449.563387,496
1765877449.5633988,496
1765877449.5634098,496
1765877449.563421,496
1765877449.563432,495
1765877449.563444,496
1765877449.5634549,496
1765877449.563466,496
1765877449.563478,496
1765877449.563492,496
1765877449.563505,496
1765877449.5635169,496
1765877449.5635278,496
1765877449.563539,496
1765877449.56355,496
1765877449.563562,496
1765877449.563573,496
1765877449.563584,496
1765877449.563595,496
1765877449.563607,496
1765877449.563618,495
1765877449.56363,496
1765877449.563641,497
1765877449.5636532,496
1765877449.563664,496
1765877449.563675,496
1765877449.5636868,496
1765877449.5636978,496
1765877449.563709,496
1765877449.56372,496
1765877449.563731,496
1765877449.5637429,496
1765877449.563754,496
1765877449.563765,496
1765877449.563777,497
1765877449.563788,496
1765877449.5637991,497
1765877449.56381,496
1765877449.563822,497
1765877449.563833,496
1765877449.5638452,495
1765877449.5638568,496
1765877449.5638678,496
1765877449.563879,496
1765877449.56389,496
1765877449.563902,496
1765877449.5639129,496
1765877449.563924,496
1765877449.563936,496
1765877449.563947,496
1765877449.563958,496
1765877449.56397,496
1765877449.563981,496
1765877449.563992,496
1765877449.5640042,496
1765877449.5640152,496
1765877449.5640268,496
1765877449.5640378,496
1765877449.564049,496
1765877449.564061,496
1765877449.564072,496
1765877449.5640829,496
1765877449.564094,496
1765877449.564105,497
1765877449.564116,496
1765877449.564128,496
1765877449.564139,496
1765877449.564151,496
1765877449.564162,496
1765877449.564173,496
1765877449.5641851,496
1765877449.564196,497
1765877449.564207,496
1765877449.564219,496
1765877449.56423,496
1765877449.564241,496
1765877449.5642529,496
1765877449.5642638,496
1765877449.564275,496
1765877449.564286,496
1765877449.564298,496
1765877449.564309,496
1765877449.564321,496
1765877449.564332,496
1765877449.5643442,496
1765877449.5643551,496
1765877449.564367,497
1765877449.564378,497
1765877449.5643892,497
1765877449.5644002,497
1765877449.5644119,497
1765877449.5644228,496
1765877449.5644338,497
1765877449.564446,496
1765877449.564458,497
1765877449.564469,496
1765877449.56448,496
1765877449.564491,496
1765877449.564502,495
1765877449.5645142,496
1765877449.5645251,496
1765877449.564537,497
1765877449.564548,496
1765877449.5645592,496
1765877449.564571,496
1765877449.5645819,496
1765877449.5645928,496
1765877449.5646038,496
1765877449.564616,496
1765877449.564627,496
1765877449.564638,496
1765877449.564651,496
1765877449.564662,497
1765877449.5646741,496
1765877449.564685,496
1765877449.564696,496
1765877449.564708,496
1765877449.5647192,497
1765877449.5647302,497
1765877449.5647411,496
1765877449.5647528,496
1765877449.564764,497
1765877449.564775,496
1765877449.564786,497
1765877449.564797,496
1765877449.5648088,496
1765877449.56482,496
1765877449.564831,496
1765877449.564843,496
1765877449.564854,496
1765877449.564865,497
1765877449.564876,496
1765877449.564888,496
1765877449.564899,496
1765877449.5649102,496
1765877449.5649211,496
1765877449.564932,496
1765877449.5649438,496
1765877449.564956,496
1765877449.5649679,496
1765877449.564981,496
1765877449.5649931,497
1765877449.565004,496
1765877449.565016,496
1765877449.565027,497
1765877449.5650392,497
1765877449.5650501,496
1765877449.5650618,496
1765877449.565073,495
1765877449.565084,496
1765877449.565096,496
1765877449.5651069,496
1765877449.565119,495
1765877449.56513,496
1765877449.565142,496
1765877449.5651531,496
1765877449.565164,496
1765877449.565176,496
1765877449.565187,496
1765877449.5651982,496
1765877449.56521,496
1765877449.565221,496
1765877449.565232,495
1765877449.565244,496
1765877449.565255,496
1765877449.5652668,496
1765877449.565278,496
1765877449.565289,495
1765877449.565301,496
1765877449.565312,496
1765877449.565324,496
1765877449.565335,495
1765877449.565346,496
1765877449.565357,496
1765877449.5653682,496
1765877449.56538,496
1765877449.565391,496
1765877449.565402,496
1765877449.565414,496
1765877449.565425,496
1765877449.565436,495
1765877449.565448,496
1765877449.565459,496
1765877449.56547,496
1765877449.565482,495
1765877449.565493,495
1765877449.565504,495
1765877449.565516,495
1765877449.565527,496
1765877449.565538,496
1765877449.56555,495
1765877449.565561,496
1765877449.565572,495
1765877449.565584,495
1765877449.565595,495
1765877449.5656059,495
1765877449.565618,496
1765877449.565629,496
1765877449.565641,496
1765877449.565652,496
1765877449.565664,496
1765877449.565675,495
1765877449.565686,495
1765877449.565697,495
1765877449.565709,495
1765877449.56572,495
1765877449.565731,495
1765877449.5657432,495
1765877449.5657542,495
1765877449.5657659,495
1765877449.565778,495
1765877449.565789,496
1765877449.5658,496
1765877449.565811,495
1765877449.565823,495
1765877449.5667021,495
1765877449.5676959,496
1765877449.5686772,496
1765877449.569674,495
1765877449.570689,496
1765877449.573216,496
1765877449.5732212,496
1765877449.573678,495
1765877449.574694,495
1765877449.575739,495
1765877449.576721,496
1765877449.577719,496
1765877449.578738,495
1765877449.579747,495
1765877449.580739,495
1765877449.581772,496
1765877449.582717,495
1765877449.583745,495
1765877449.584746,496
1765877449.585769,495
1765877449.5867221,496
1765877449.587719,496
1765877449.588725,496
1765877449.589741,496
1765877449.590728,496
1765877449.5917618,496
1765877449.592763,495
1765877449.593761,495
1765877449.594731,495
1765877449.595757,496
1765877449.596778,495
1765877449.5977442,495
1765877449.598759,495
1765877449.5997472,496
1765877449.600783,496
1765877449.60178,496
1765877449.602751,495
1765877449.6037571,496
1765877449.60477,496
1765877449.6057658,495
1765877449.6067562,496
1765877449.607759,496
1765877449.608761,496
1765877449.609782,496
1765877449.610764,496
1765877449.6117818,496
1765877449.612781,496
1765877449.61378,495
1765877449.614789,496
1765877449.6157892,495
1765877449.6168032,496
1765877449.617818,496
1765877449.618788,496
1765877449.6198132,496
1765877449.6208158,495
1765877449.6218119,495
1765877449.622823,495
1765877449.623843,495
1765877449.624844,496
1765877449.625858,496
1765877449.626813,496
1765877449.627897,496
1765877449.628872,495
1765877449.629846,495
1765877449.630847,496
1765877449.631902,495
1765877449.6329181,496
1765877449.6338801,496
1765877449.634851,497
1765877449.6358552,497
1765877449.636859,497
1765877449.637873,497
1765877449.638848,497
1765877449.639863,497
1765877449.6408708,497
1765877449.6418529,497
1765877449.642866,497
1765877449.6438558,497
1765877449.644873,497
1765877449.6458828,497
1765877449.646875,497
1765877449.647888,496
1765877449.6489658,497
1765877449.6498828,497
1765877449.65088,496
1765877449.6518872,497
1765877449.6529,496
1765877449.65392,496
1765877449.654922,496
1765877449.655925,496
1765877449.656945,496
1765877449.657968,495
1765877449.6589801,496
1765877449.65998,496
1765877449.660962,496
1765877449.6620219,496
1765877449.663009,496
1765877449.663959,496
1765877449.664939,496
1765877449.665934,496
1765877449.666956,496
1765877449.668042,496
1765877449.6690528,496
1765877449.670044,496
1765877449.6710558,496
1765877449.672044,496
1765877449.6731021,496
1765877449.6740491,496
1765877449.675046,496
1765877449.676033,496
1765877449.677012,495
1765877449.678019,496
1765877449.679028,495
1765877449.6800241,496
1765877449.681018,496
1765877449.682014,496
1765877449.683031,496
1765877449.684008,496
1765877449.685007,496
1765877449.686014,496
1765877449.687019,496
1765877449.688027,496
1765877449.689012,495
1765877449.690033,496
1765877449.691026,495
1765877449.692011,495
1765877449.693009,495
1765877449.694022,496
1765877449.695054,495
1765877449.696031,496
1765877449.697024,496
1765877449.6980171,496
1765877449.699019,496
1765877449.700043,495
1765877449.701044,496
1765877449.702049,496
1765877449.703051,496
1765877449.704082,496
1765877449.705081,496
1765877449.706058,496
1765877449.707045,496
1765877449.7080572,496
1765877449.709086,496
1765877449.710062,496
1765877449.711052,496
1765877449.71207,496
1765877449.713075,496
1765877449.714091,496
1765877449.7150762,496
1765877449.7160661,496
1765877449.7170649,496
1765877449.7180731,496
1765877449.719083,496
1765877449.720125,496
1765877449.7211049,496
1765877449.7220879,496
1765877449.7230961,496
1765877449.7240949,495
1765877449.725107,495
1765877449.726109,496
1765877449.7271008,495
1765877449.72811,495
1765877449.729109,496
1765877449.730104,495
1765877449.731105,496
1765877449.73214,495
1765877449.7331011,496
1765877449.734126,496
1765877449.735134,496
1765877449.7361212,496
1765877449.737132,496
1765877449.738115,496
1765877449.739133,495
1765877449.740135,496
1765877449.7411468,496
1765877449.742168,496
1765877449.743158,496
1765877449.7441971,495
1765877449.745196,496
1765877449.7461839,496
1765877449.747155,496
1765877449.7481651,496
1765877449.749179,496
1765877449.750172,496
1765877449.751171,496
1765877449.752158,496
1765877449.753183,497
1765877449.754198,496
1765877449.7552052,495
1765877449.7562082,496
1765877449.7572072,496
1765877449.758194,496
1765877449.759192,495
1765877449.7602,495
1765877449.761208,496
1765877449.762204,496
1765877449.763217,495
1765877449.764214,496
1765877449.765224,496
1765877449.766222,496
1765877449.7672331,496
1765877449.768214,496
1765877449.7692192,496
1765877449.77024,496
1765877449.771227,496
1765877449.7722318,496
1765877449.7732348,496
1765877449.774248,496
1765877449.775242,496
1765877449.7762518,496
1765877449.777248,495
1765877449.7782452,496
1765877449.779247,496
1765877449.780255,496
1765877449.781257,496
1765877449.782263,496
1765877449.7832682,496
1765877449.784271,496
1765877449.785287,496
1765877449.786301,496
1765877449.787425,496
1765877449.788353,496
1765877449.789292,495
1765877449.790314,496
1765877449.791316,496
1765877449.7922812,496
1765877449.793281,496
1765877449.7942889,497
1765877449.7953029,496
1765877449.796306,496
1765877449.797318,497
1765877449.798319,496
1765877449.7993212,496
1765877449.800333,495
1765877449.801313,496
1765877449.8023171,496
1765877449.803477,496
1765877449.804369,495
1765877449.8053691,496
1765877449.806349,496
1765877449.807334,496
1765877449.8083358,496
1765877449.8093529,495
1765877449.810337,496
1765877449.8113449,495
1765877449.812354,496
1765877449.813343,496
1765877449.814336,496
1765877449.815361,496
1765877449.816351,495
1765877449.8173702,495
1765877449.818364,496
1765877449.819356,496
1765877449.82036,496
1765877449.82136,497
1765877449.822363,497
1765877449.823385,496
1765877449.8243809,496
1765877449.825402,496
1765877449.826377,496
1765877449.827413,495
1765877449.828417,495
1765877449.829439,495
1765877449.8304179,495
1765877449.831421,496
1765877449.832428,496
1765877449.833427,496
1765877449.8344378,495
1765877449.835426,496
1765877449.836438,496
1765877449.837447,496
1765877449.838447,496
1765877449.839444,496
1765877449.840565,495
1765877449.841464,496
1765877449.842487,496
1765877449.843476,496
1765877449.844488,496
1765877449.845483,496
1765877449.846462,496
1765877449.8474681,496
1765877449.848447,496
1765877449.8494642,497
1765877449.850463,496
1765877449.8514738,496
1765877449.852479,496
1765877449.8534899,495
1765877449.854499,495
1765877449.855514,496
1765877449.856488,495
1765877449.857483,496
1765877449.858531,496
1765877449.859514,497
1765877449.860502,496
1765877449.8614988,496
1765877449.8625169,496
1765877449.863517,496
1765877449.86451,496
1765877449.865512,496
1765877449.866504,496
1765877449.867498,495
1765877449.868504,496
1765877449.869529,496
1765877449.870555,496
1765877449.871524,496
1765877449.872562,496
1765877449.8735611,495
1765877449.8745549,495
1765877449.875526,496
1765877449.876538,496
1765877449.87754,496
1765877449.8785238,496
1765877449.879539,496
1765877449.880537,497
1765877449.881552,496
1765877449.882565,496
1765877449.883571,495
1765877449.884541,495
1765877449.8855429,496
1765877449.886552,496
1765877449.887554,496
1765877449.888561,496
1765877449.8895528,496
1765877449.8905568,496
1765877449.891572,496
1765877449.8925738,496
1765877449.89358,496
1765877449.8945842,496
1765877449.895603,496
1765877449.8966,496
1765877449.8975759,496
1765877449.89858,496
1765877449.899584,496
1765877449.900592,496
1765877449.901576,496
1765877449.9026089,495
1765877449.903609,495
1765877449.904617,496
1765877449.905613,495
1765877449.9066062,495
1765877449.907614,496
1765877449.9086258,496
1765877449.909625,496
1765877449.910623,496
1765877449.911638,496
1765877449.912627,496
1765877449.9136431,495
1765877449.9146419,495
1765877449.9156501,495
1765877449.916634,496
1765877449.9176419,496
1765877449.918633,495
1765877449.9196548,496
1765877449.920634,495
1765877449.921655,495
1765877449.9226549,496
1765877449.923637,495
1765877449.924661,496
1765877449.925659,495
1765877449.9266748,495
1765877449.927676,496
1765877449.928682,495
1765877449.929667,495
1765877449.9306712,495
1765877449.931742,496
1765877449.9329112,496
1765877449.9337559,496
1765877449.934714,496
1765877449.9356842,496
1765877449.9367108,496
1765877449.937689,496
1765877449.9386811,496
1765877449.9396951,496
1765877449.940707,496
1765877449.941738,495
1765877449.942716,495
1765877449.943716,496
1765877449.944719,495
1765877449.9457128,496
1765877449.946712,496
1765877449.9477189,495
1765877449.948736,496
1765877449.949733,496
1765877449.950756,496
1765877449.951762,495
1765877449.952786,496
1765877449.9538,496
1765877449.954758,496
1765877449.95575,497
1765877449.956737,496
1765877449.957736,496
1765877449.95876,495
1765877449.959739,495
1765877449.960748,496
1765877449.961757,496
1765877449.9627478,495
1765877449.963773,494
1765877449.964778,495
1765877449.96577,496
1765877449.9667919,496
1765877449.96778,497
1765877449.968769,497
1765877449.969782,497
1765877449.970783,497
1765877449.971781,496
1765877449.972793,497
1765877449.973808,499
1765877449.974802,498
1765877449.975803,497
1765877449.9768069,496
1765877449.977819,496
1765877449.978849,494
1765877449.979882,495
1765877449.9808562,495
1765877449.981813,495
1765877449.982812,495
1765877449.983815,495
1765877449.9848168,495
1765877449.985827,495
1765877449.986829,496
1765877449.987825,495
1765877449.9888299,495
1765877449.989853,495
1765877449.990866,495
1765877449.9918568,495
1765877449.992864,496
1765877449.993858,496
1765877449.99489,496
1765877449.99588,495
1765877449.996881,496
1765877449.997856,497
1765877449.9988632,498
1765877449.999862,497
1765877450.000874,496
1765877450.0018618,496
1765877450.0028749,497
1765877450.003871,497
1765877450.004884,497
1765877450.005879,497
1765877450.006887,497
1765877450.007881,497
1765877450.008895,497
1765877450.0099032,497
1765877450.0109031,496
1765877450.011915,496
1765877450.0129101,495
1765877450.013907,495
1765877450.014903,495
1765877450.015908,495
1765877450.016908,495
1765877450.017901,495
1765877450.018901,495
1765877450.019897,496
1765877450.020909,495
1765877450.021898,495
1765877450.022901,496
1765877450.0239081,496
1765877450.0249128,498
1765877450.026007,498
1765877450.0270011,498
1765877450.028003,498
1765877450.029047,498
1765877450.029969,499
1765877450.0310452,497
1765877450.032065,496
1765877450.033073,494
1765877450.03407,494
1765877450.035083,496
1765877450.036048,498
1765877450.037028,496
1765877450.038072,495
1765877450.0390809,492
1765877450.0400488,494
1765877450.04108,496
1765877450.0420349,497
1765877450.0430589,498
1765877450.0440772,498
1765877450.045074,499
1765877450.046032,499
1765877450.047033,499
1765877450.048046,499
1765877450.049044,497
1765877450.050027,498
1765877450.0510452,500
1765877450.052035,497
1765877450.0530639,497
1765877450.054056,496
1765877450.0550542,495
1765877450.0560288,492
1765877450.057045,491
1765877450.058047,493
1765877450.0590138,492
1765877450.06002,493
1765877450.061034,494
1765877450.062038,495
1765877450.063058,497
1765877450.06403,497
1765877450.0650702,498
1765877450.0660632,497
1765877450.067061,495
1765877450.0680928,496
1765877450.069056,494
1765877450.070055,494
1765877450.07106,495
1765877450.072064,496
1765877450.073057,496
1765877450.074071,497
1765877450.075094,497
1765877450.0760908,497
1765877450.0770931,495
1765877450.07808,495
1765877450.079078,496
1765877450.080079,497
1765877450.08114,498
1765877450.082159,496
1765877450.083133,495
1765877450.0841322,494
1765877450.085081,496
1765877450.0861042,496
1765877450.0870988,495
1765877450.088096,496
1765877450.089141,497
1765877450.090111,498
1765877450.091115,499
1765877450.092118,501
1765877450.093159,499
1765877450.0941591,498
1765877450.095175,497
1765877450.09618,494
1765877450.097186,491
1765877450.098179,493
1765877450.099165,497
1765877450.1001668,499
1765877450.1011899,500
1765877450.1021838,500
1765877450.1031392,495
1765877450.1041422,492
1765877450.1051462,493
1765877450.106146,493
1765877450.107214,493
1765877450.1082082,493
1765877450.109209,496
1765877450.110202,499
1765877450.111203,500
1765877450.11218,502
1765877450.11316,503
1765877450.114162,505
1765877450.1151922,498
1765877450.116212,495
1765877450.117171,496
1765877450.118221,496
1765877450.119253,493
1765877450.120192,492
1765877450.121204,494
1765877450.122218,495
1765877450.12324,495
1765877450.124248,494
1765877450.125269,495
1765877450.126262,495
1765877450.127244,495
1765877450.1282802,493
1765877450.129298,494
1765877450.1302998,493
1765877450.131287,494
1765877450.1322722,494
1765877450.133287,495
1765877450.134295,496
1765877450.1352901,499
1765877450.1362822,502
1765877450.137249,502
1765877450.1382852,505
1765877450.13929,505
1765877450.140286,503
1765877450.14129,503
1765877450.142293,502
1765877450.143303,501
1765877450.144256,500
1765877450.14531,492
1765877450.1463292,494
1765877450.1473129,498
1765877450.148313,495
1765877450.149437,490
1765877450.150269,491
1765877450.151325,492
1765877450.1523259,495
1765877450.153336,496
1765877450.15433,496
1765877450.1553438,497
1765877450.156349,498
1765877450.1573482,497
1765877450.1582851,494
1765877450.1592991,494
1765877450.160317,495
1765877450.1613598,493
1765877450.162373,495
1765877450.163348,495
1765877450.16434,495
1765877450.165341,493
1765877450.1663759,494
1765877450.1673632,495
1765877450.168365,496
1765877450.1693618,498
1765877450.170371,500
1765877450.171401,501
1765877450.172389,500
1765877450.173376,496
1765877450.1744032,492
1765877450.1753888,493
1765877450.1764102,493
1765877450.1773922,492
1765877450.178406,493
1765877450.1794078,494
1765877450.1804311,494
1765877450.181421,494
1765877450.182416,494
1765877450.183409,494
1765877450.1844249,494
1765877450.185418,494
1765877450.186431,494
1765877450.187419,496
1765877450.188417,496
1765877450.189449,497
1765877450.190455,498
1765877450.191443,500
1765877450.192429,499
1765877450.193461,499
1765877450.194442,499
1765877450.195452,497
1765877450.196447,494
1765877450.197453,492
1765877450.1984708,494
1765877450.199452,496
1765877450.2004638,494
1765877450.20146,495
1765877450.202469,494
1765877450.203477,495
1765877450.2044349,495
1765877450.205452,494
1765877450.206452,496
1765877450.207478,496
1765877450.208467,496
1765877450.209507,496
1765877450.210507,498
1765877450.2115068,500
1765877450.212499,502
1765877450.213493,504
1765877450.2145019,501
1765877450.2155142,504
1765877450.216528,509
1765877450.21754,511
1765877450.218506,510
1765877450.2195342,499
1765877450.2205272,487
1765877450.221508,490
1765877450.222511,493
1765877450.223508,491
1765877450.224549,488
1765877450.225549,489
1765877450.226541,492
1765877450.227541,493
1765877450.228538,493
1765877450.2295418,493
1765877450.230546,493
1765877450.231553,492
1765877450.232558,493
1765877450.23357,493
1765877450.234569,494
1765877450.2355468,494
1765877450.2365718,495
1765877450.23757,494
1765877450.23857,494
1765877450.239573,494
1765877450.240581,494
1765877450.2415302,494
1765877450.242594,495
1765877450.243607,495
1765877450.2445781,495
1765877450.245594,494
1765877450.246612,494
1765877450.2475672,494
1765877450.248606,495
1765877450.249623,495
1765877450.2506292,495
1765877450.2516139,495
1765877450.2526028,496
1765877450.253628,496
1765877450.2546098,495
1765877450.2556171,494
1765877450.256625,494
1765877450.2576158,494
1765877450.258634,496
1765877450.25963,496
1765877450.260635,498
1765877450.261649,497
1765877450.2626328,497
1765877450.263633,496
1765877450.264659,494
1765877450.265635,493
1765877450.266646,495
1765877450.267658,494
1765877450.268671,495
1765877450.269654,495
1765877450.27068,493
1765877450.271678,494
1765877450.272715,494
1765877450.2736819,495
1765877450.274698,495
1765877450.275692,495
1765877450.276692,497
1765877450.277689,499
1765877450.2786958,497
1765877450.27969,498
1765877450.280688,497
1765877450.281715,498
1765877450.2827039,496
1765877450.2836952,495
1765877450.284738,493
1765877450.2857332,493
1765877450.2867358,495
1765877450.2876658,497
1765877450.288754,496
1765877450.2897449,493
1765877450.2907379,492
1765877450.291741,492
1765877450.292746,493
1765877450.2937322,498
1765877450.294753,501
1765877450.295737,506
1765877450.29676,506
1765877450.2977788,501
1765877450.298771,489
1765877450.299776,497
1765877450.300757,504
1765877450.301763,505
1765877450.3027542,502
1765877450.303763,495
1765877450.3047712,489
1765877450.3057961,492
1765877450.306763,491
1765877450.3077838,491
1765877450.3087869,490
1765877450.309778,491
1765877450.310792,492
1765877450.311786,492
1765877450.312781,492
1765877450.31378,493
1765877450.314785,492
1765877450.315786,493
1765877450.316789,494
1765877450.3177862,494
1765877450.318814,494
1765877450.319811,493
1765877450.320792,493
1765877450.3218172,494
1765877450.322828,494
1765877450.323811,495
1765877450.324816,495
1765877450.325792,495
1765877450.326779,494
1765877450.3278332,494
1765877450.328834,494
1765877450.329834,495
1765877450.33087,496
1765877450.3318772,496
1765877450.332852,496
1765877450.333837,495
1765877450.3348422,492
1765877450.33585,494
1765877450.336859,493
1765877450.3378508,494
1765877450.338856,495
1765877450.339853,495
1765877450.3408709,498
1765877450.341876,499
1765877450.342865,500
1765877450.3438761,499
1765877450.344843,495
1765877450.345881,490
1765877450.346876,491
1765877450.347883,494
1765877450.348875,493
1765877450.3498828,493
1765877450.350904,493
1765877450.3518841,493
1765877450.352921,494
1765877450.353898,495
1765877450.354909,496
1765877450.355894,496
1765877450.356898,496
1765877450.357904,496
1765877450.358909,498
1765877450.359901,498
1765877450.3609128,498
1765877450.3619258,500
1765877450.362926,500
1765877450.363913,497
1765877450.3649018,498
1765877450.365921,493
1765877450.366938,492
1765877450.3679419,492
1765877450.3689358,494
1765877450.369928,493
1765877450.370961,493
1765877450.371935,493
1765877450.372942,494
1765877450.373942,494
1765877450.374951,493
1765877450.3759549,495
1765877450.376964,497
1765877450.377963,498
1765877450.3789692,498
1765877450.3799648,497
1765877450.38096,494
1765877450.381966,492
1765877450.383051,493
1765877450.384059,494
1765877450.385073,495
1765877450.386008,496
1765877450.38707,497
1765877450.388077,497
1765877450.3890529,495
1765877450.390055,496
1765877450.391062,494
1765877450.392055,492
1765877450.3930528,494
1765877450.394055,495
1765877450.395013,495
1765877450.39606,496
1765877450.397054,496
1765877450.398072,498
1765877450.399012,496
1765877450.400052,493
1765877450.401052,496
1765877450.402051,497
1765877450.403015,495
1765877450.404073,495
1765877450.405068,496
1765877450.4060538,494
1765877450.407012,491
1765877450.408052,492
1765877450.409011,494
1765877450.41006,496
1765877450.411018,497
1765877450.412008,498
1765877450.4130108,499
1765877450.414027,498
1765877450.415027,495
1765877450.4160461,493
1765877450.417032,495
1765877450.4180639,496
1765877450.419094,496
1765877450.4201212,495
1765877450.421085,494
1765877450.4220831,493
1765877450.4230778,493
1765877450.424098,493
1765877450.4250472,494
1765877450.4261289,494
1765877450.427116,494
1765877450.428096,493
1765877450.429108,492
1765877450.43012,494
1765877450.43111,495
1765877450.4321332,497
1765877450.4331279,496
1765877450.434127,496
1765877450.4351301,497
1765877450.436119,494
1765877450.437129,492
1765877450.438132,493
1765877450.4391448,493
1765877450.440125,493
1765877450.4411352,494
1765877450.442142,494
1765877450.4431381,494
1765877450.4441369,494
1765877450.445135,495
1765877450.4461539,494
1765877450.447142,494
1765877450.4481852,494
1765877450.4491122,495
1765877450.4501739,495
1765877450.451177,495
1765877450.452173,496
1765877450.453176,498
1765877450.454147,501
1765877450.455151,503
1765877450.456176,501
1765877450.457165,495
1765877450.458174,491
1765877450.459171,491
1765877450.460166,491
1765877450.4611561,491
1765877450.462167,492
1765877450.4631732,494
1765877450.4641762,494
1765877450.4651499,495
1765877450.466176,496
1765877450.467181,497
1765877450.4681861,498
1765877450.469187,498
1765877450.4701939,497
1765877450.471196,494
1765877450.472169,493
1765877450.4731991,494
1765877450.474228,494
1765877450.475185,493
1765877450.476207,493
1765877450.477211,493
1765877450.478239,494
1765877450.479202,493
1765877450.480212,494
1765877450.4812522,494
1765877450.482218,494
1765877450.483232,494
1765877450.484233,495
1765877450.4852428,494
1765877450.486225,494
1765877450.487239,494
1765877450.4882402,494
1765877450.489259,495
1765877450.49026,496
1765877450.491256,495
1765877450.492241,498
1765877450.4932458,500
1765877450.4942489,500
1765877450.4952588,498
1765877450.496276,498
1765877450.497279,494
1765877450.498264,491
1765877450.499271,492
1765877450.500279,493
1765877450.501287,494
1765877450.502296,495
1765877450.503277,496
1765877450.504297,499
1765877450.5052748,499
1765877450.506287,500
1765877450.507275,496
1765877450.5082781,494
1765877450.509293,492
1765877450.510292,491
1765877450.5112891,492
1765877450.51229,493
1765877450.513294,495
1765877450.514316,493
1765877450.5152938,494
1765877450.516309,495
1765877450.517313,495
1765877450.518328,495
1765877450.519317,495
1765877450.520322,494
1765877450.521333,497
1765877450.522321,499
1765877450.523332,500
1765877450.52432,503
1765877450.5253272,499
1765877450.5263438,495
1765877450.527321,493
1765877450.528338,491
1765877450.529341,491
1765877450.530347,492
1765877450.531349,492
1765877450.532351,493
1765877450.533338,494
1765877450.534357,492
1765877450.535365,493
1765877450.536374,494
