timestamp,emg_value
1765877482.06361,494
1765877482.0636292,494
1765877482.063642,495
1765877482.0636532,495
1765877482.063663,495
1765877482.063675,494
1765877482.0636852,495
1765877482.063696,495
1765877482.0637062,494
1765877482.0637171,494
1765877482.0637271,495
1765877482.0637372,495
1765877482.0637472,496
1765877482.0637581,498
1765877482.0637681,507
1765877482.0637782,513
1765877482.063788,509
1765877482.0638,499
1765877482.063811,491
1765877482.063821,492
1765877482.06383,489
1765877482.06384,489
1765877482.06385,491
1765877482.063861,491
1765877482.063871,493
1765877482.063891,493
1765877482.063906,493
1765877482.063916,493
1765877482.063926,493
1765877482.063936,494
1765877482.063947,494
1765877482.063957,494
1765877482.063967,495
1765877482.063979,494
1765877482.063989,495
1765877482.063999,494
1765877482.06401,494
1765877482.06402,495
1765877482.06403,495
1765877482.064041,495
1765877482.064051,495
1765877482.064063,494
1765877482.0640728,495
1765877482.0640829,495
1765877482.0640929,495
1765877482.064103,497
1765877482.064113,497
1765877482.0641239,498
1765877482.064134,501
1765877482.064144,499
1765877482.0641541,494
1765877482.0641642,493
1765877482.064181,494
1765877482.0641952,493
1765877482.0642052,494
1765877482.0642161,497
1765877482.0642262,498
1765877482.064236,498
1765877482.064246,496
1765877482.064256,491
1765877482.064266,492
1765877482.064276,494
1765877482.064286,495
1765877482.064296,495
1765877482.064307,496
1765877482.064488,494
1765877482.064499,492
1765877482.064509,493
1765877482.064519,493
1765877482.064529,493
1765877482.064539,494
1765877482.064548,495
1765877482.064558,495
1765877482.064571,496
1765877482.0645819,494
1765877482.064592,494
1765877482.0646038,494
1765877482.06462,493
1765877482.06464,494
1765877482.064651,494
1765877482.06466,494
1765877482.0646698,494
1765877482.0646799,495
1765877482.0646899,495
1765877482.0647008,495
1765877482.0647109,495
1765877482.0647209,495
1765877482.064731,495
1765877482.0647411,494
1765877482.0647511,495
1765877482.0647612,496
1765877482.0647712,497
1765877482.064781,497
1765877482.064793,496
1765877482.064806,497
1765877482.064818,498
1765877482.064828,495
1765877482.064838,497
1765877482.064851,494
1765877482.0648608,494
1765877482.064873,495
1765877482.064883,495
1765877482.064895,494
1765877482.064908,494
1765877482.0649211,496
1765877482.064935,496
1765877482.064946,495
1765877482.064956,498
1765877482.064966,496
1765877482.0649862,494
1765877482.064996,494
1765877482.065006,494
1765877482.065016,495
1765877482.065026,497
1765877482.065036,495
1765877482.065046,494
1765877482.065056,492
1765877482.065066,494
1765877482.065077,496
1765877482.065087,495
1765877482.0650969,496
1765877482.0651069,496
1765877482.065117,494
1765877482.065127,492
1765877482.065137,494
1765877482.065147,497
1765877482.0651572,497
1765877482.0651672,497
1765877482.0651772,496
1765877482.0651982,493
1765877482.065208,493
1765877482.06522,492
1765877482.0652318,492
1765877482.065242,495
1765877482.065252,496
1765877482.065262,495
1765877482.065272,495
1765877482.065281,495
1765877482.065291,494
1765877482.065301,495
1765877482.065311,496
1765877482.065321,494
1765877482.065331,496
1765877482.065341,496
1765877482.065351,497
1765877482.065362,498
1765877482.065372,499
1765877482.065382,500
1765877482.0653949,497
1765877482.065405,495
1765877482.065415,496
1765877482.065425,491
1765877482.065435,492
1765877482.0654452,494
1765877482.0654552,495
1765877482.065465,495
1765877482.065475,494
1765877482.0654888,493
1765877482.0655,493
1765877482.0655098,494
1765877482.06552,495
1765877482.0655308,494
1765877482.065541,493
1765877482.065551,494
1765877482.065561,495
1765877482.065571,495
1765877482.065581,494
1765877482.065591,494
1765877482.0656,494
1765877482.06561,494
1765877482.065621,493
1765877482.06563,496
1765877482.06564,496
1765877482.065654,496
1765877482.065664,496
1765877482.065674,495
1765877482.065684,496
1765877482.0656939,494
1765877482.0657039,493
1765877482.065714,495
1765877482.065724,496
1765877482.0657332,495
1765877482.0657432,496
1765877482.065753,496
1765877482.0657668,496
1765877482.0657768,495
1765877482.0657868,493
1765877482.065797,492
1765877482.065807,493
1765877482.065817,494
1765877482.0658271,494
1765877482.0658371,494
1765877482.0658472,495
1765877482.065857,497
1765877482.065867,497
1765877482.065877,497
1765877482.065887,496
1765877482.065897,497
1765877482.065907,498
1765877482.065917,495
1765877482.065927,494
1765877482.0659368,496
1765877482.0659468,495
1765877482.065957,494
1765877482.065967,496
1765877482.065977,495
1765877482.065987,494
1765877482.0659971,495
1765877482.0660071,494
1765877482.066017,495
1765877482.066029,496
1765877482.06604,497
1765877482.06605,498
1765877482.06606,497
1765877482.06607,495
1765877482.066081,496
1765877482.066091,494
1765877482.066101,495
1765877482.066111,497
1765877482.0661209,497
1765877482.0661309,496
1765877482.066141,495
1765877482.066151,495
1765877482.066161,495
1765877482.066171,496
1765877482.0661812,496
1765877482.0661912,495
1765877482.066201,494
1765877482.066211,495
1765877482.066221,494
1765877482.066231,495
1765877482.066241,495
1765877482.066251,496
1765877482.066262,497
1765877482.066272,498
1765877482.066282,497
1765877482.0662951,498
1765877482.066308,494
1765877482.066318,495
1765877482.066329,494
1765877482.066339,494
1765877482.066349,494
1765877482.066359,494
1765877482.066369,494
1765877482.066379,494
1765877482.066389,495
1765877482.0663989,495
1765877482.066408,494
1765877482.066418,495
1765877482.066428,494
1765877482.066438,494
1765877482.066448,495
1765877482.0664582,495
1765877482.066468,495
1765877482.066478,495
1765877482.066488,494
1765877482.066498,494
1765877482.066509,493
1765877482.066518,496
1765877482.066528,499
1765877482.066538,501
1765877482.0665479,504
1765877482.066561,503
1765877482.066578,497
1765877482.066591,494
1765877482.0666041,499
1765877482.066614,499
1765877482.066624,495
1765877482.066634,488
1765877482.066644,491
1765877482.066654,493
1765877482.066664,495
1765877482.066674,496
1765877482.066684,496
1765877482.066693,494
1765877482.0667038,491
1765877482.066713,493
1765877482.066724,494
1765877482.066734,494
1765877482.066744,494
1765877482.066753,494
1765877482.066763,493
1765877482.066773,493
1765877482.066783,494
1765877482.066793,494
1765877482.066803,494
1765877482.066813,494
1765877482.066823,494
1765877482.0668328,495
1765877482.066846,495
1765877482.066858,494
1765877482.066868,495
1765877482.0668778,495
1765877482.0668879,496
1765877482.0668979,497
1765877482.066908,497
1765877482.066918,497
1765877482.0669281,496
1765877482.0669382,494
1765877482.066947,493
1765877482.066957,493
1765877482.066968,494
1765877482.066978,494
1765877482.066987,494
1765877482.066997,494
1765877482.067007,494
1765877482.067017,494
1765877482.0670269,495
1765877482.0670369,495
1765877482.0670469,495
1765877482.0670578,495
1765877482.0670679,495
1765877482.0670772,495
1765877482.0670872,495
1765877482.0670972,495
1765877482.0671098,495
1765877482.0671208,496
1765877482.0671308,496
1765877482.067141,497
1765877482.067151,500
1765877482.067161,504
1765877482.067171,501
1765877482.067181,502
1765877482.06719,497
1765877482.0672,494
1765877482.067211,493
1765877482.067221,492
1765877482.067231,490
1765877482.067241,491
1765877482.067251,494
1765877482.0672598,493
1765877482.0672698,491
1765877482.0672798,494
1765877482.06729,494
1765877482.0673,495
1765877482.06731,495
1765877482.0673192,494
1765877482.067329,495
1765877482.067339,494
1765877482.067349,494
1765877482.067359,495
1765877482.067369,495
1765877482.067381,494
1765877482.067392,494
1765877482.067402,495
1765877482.067412,495
1765877482.067421,495
1765877482.067431,494
1765877482.067441,495
1765877482.0674508,495
1765877482.067461,494
1765877482.067471,493
1765877482.067481,495
1765877482.067491,495
1765877482.067501,495
1765877482.0675101,495
1765877482.06752,495
1765877482.06753,495
1765877482.06754,495
1765877482.06755,495
1765877482.06756,496
1765877482.06757,496
1765877482.06758,495
1765877482.06759,495
1765877482.0675998,495
1765877482.067609,496
1765877482.067619,494
1765877482.067629,494
1765877482.067641,496
1765877482.0676532,496
1765877482.067662,495
1765877482.067672,496
1765877482.067682,495
1765877482.067692,496
1765877482.067702,495
1765877482.067712,494
1765877482.067722,494
1765877482.0677319,495
1765877482.0677419,495
1765877482.067752,495
1765877482.067762,497
1765877482.067772,498
1765877482.0677812,494
1765877482.067791,492
1765877482.067801,494
1765877482.067811,494
1765877482.067821,494
1765877482.067831,495
1765877482.067841,496
1765877482.067851,497
1765877482.067861,497
1765877482.067871,498
1765877482.0678809,499
1765877482.067891,499
1765877482.067901,496
1765877482.067913,498
1765877482.0679228,499
1765877482.0679328,498
1765877482.0679429,498
1765877482.0679529,494
1765877482.067963,491
1765877482.0679731,492
1765877482.0679832,491
1765877482.067992,492
1765877482.068002,494
1765877482.068012,494
1765877482.068022,494
1765877482.068032,495
1765877482.068042,494
1765877482.068052,494
1765877482.068062,494
1765877482.0680718,493
1765877482.0680819,494
1765877482.0680919,495
1765877482.068102,494
1765877482.068112,495
1765877482.0681221,495
1765877482.0681322,495
1765877482.0681431,496
1765877482.0681531,495
1765877482.0681632,495
1765877482.068175,495
1765877482.068186,495
1765877482.068196,495
1765877482.068206,494
1765877482.068216,495
1765877482.068226,495
1765877482.068236,496
1765877482.0682461,498
1765877482.068256,497
1765877482.068266,498
1765877482.068276,497
1765877482.068286,492
1765877482.068296,493
1765877482.068306,496
1765877482.068316,495
1765877482.068326,494
1765877482.068336,495
1765877482.068346,494
1765877482.068356,494
1765877482.068366,495
1765877482.068375,496
1765877482.0683851,496
1765877482.068395,497
1765877482.068405,497
1765877482.068415,496
1765877482.068425,495
1765877482.068437,494
1765877482.068448,495
1765877482.068458,494
1765877482.0684679,496
1765877482.0684779,496
1765877482.068488,496
1765877482.068498,493
1765877482.068508,494
1765877482.068518,494
1765877482.0685282,494
1765877482.0685382,494
1765877482.0685482,494
1765877482.068558,494
1765877482.068568,495
1765877482.068578,495
1765877482.068588,494
1765877482.068598,494
1765877482.068607,495
1765877482.0686169,495
1765877482.0686269,497
1765877482.068637,498
1765877482.068647,497
1765877482.068657,497
1765877482.068667,498
1765877482.0686772,491
1765877482.0686872,493
1765877482.068697,494
1765877482.0687099,495
1765877482.06872,495
1765877482.06873,496
1765877482.068741,496
1765877482.068751,496
1765877482.068761,498
1765877482.06877,497
1765877482.0687811,496
1765877482.0687912,497
1765877482.0688,493
1765877482.068811,492
1765877482.068821,494
1765877482.068831,493
1765877482.068841,493
1765877482.068851,493
1765877482.068861,493
1765877482.068871,495
1765877482.0688808,495
1765877482.068892,495
1765877482.0689018,494
1765877482.068912,494
1765877482.068922,493
1765877482.068932,494
1765877482.068942,494
1765877482.068952,494
1765877482.068962,496
1765877482.068974,496
1765877482.0689862,495
1765877482.0689962,497
1765877482.069006,498
1765877482.0690172,495
1765877482.0690272,496
1765877482.0690382,496
1765877482.0690482,496
1765877482.069058,495
1765877482.069068,494
1765877482.069078,492
1765877482.069088,494
1765877482.069098,496
1765877482.069109,495
1765877482.069119,495
1765877482.069152,495
1765877482.069163,495
1765877482.069173,494
1765877482.0691829,494
1765877482.069193,493
1765877482.069202,493
1765877482.069213,494
1765877482.069223,495
1765877482.069233,494
1765877482.069243,494
1765877482.0692532,496
1765877482.069265,497
1765877482.069275,497
1765877482.0692852,496
1765877482.0692952,495
1765877482.0693052,495
1765877482.069315,493
1765877482.069325,494
1765877482.069335,494
1765877482.069344,494
1765877482.069354,494
1765877482.069364,496
1765877482.0693738,496
1765877482.0693839,496
1765877482.0693939,495
1765877482.069404,493
1765877482.069414,492
1765877482.0694242,495
1765877482.0694342,495
1765877482.0694442,494
1765877482.0694542,493
1765877482.069464,495
1765877482.069474,495
1765877482.069483,495
1765877482.069493,496
1765877482.069503,494
1765877482.0695128,496
1765877482.0695229,497
1765877482.069535,497
1765877482.069545,498
1765877482.069555,498
1765877482.0695648,498
1765877482.0695748,491
1765877482.0695848,492
1765877482.0695949,495
1765877482.0696042,496
1765877482.0696142,495
1765877482.069624,494
1765877482.069634,491
1765877482.069644,493
1765877482.069653,493
1765877482.069663,494
1765877482.069673,494
1765877482.0696828,494
1765877482.0696929,494
1765877482.0697029,495
1765877482.0697129,495
1765877482.069723,495
1765877482.0697322,495
1765877482.0697432,496
1765877482.0697532,497
1765877482.0697632,497
1765877482.069773,499
1765877482.069783,500
1765877482.069794,500
1765877482.069806,499
1765877482.069817,496
1765877482.069828,494
1765877482.069841,496
1765877482.0698519,494
1765877482.0698628,492
1765877482.0698738,495
1765877482.069885,494
1765877482.069896,495
1765877482.069907,495
1765877482.069918,495
1765877482.06993,495
1765877482.069941,495
1765877482.069953,494
1765877482.069964,495
1765877482.0699751,494
1765877482.069987,495
1765877482.069998,495
1765877482.070009,495
1765877482.0700202,495
1765877482.0700312,495
1765877482.0700421,495
1765877482.070053,495
1765877482.0700648,495
1765877482.070076,495
1765877482.070087,496
1765877482.070101,495
1765877482.070113,494
1765877482.0701241,494
1765877482.070135,496
1765877482.070147,498
1765877482.070158,498
1765877482.070169,498
1765877482.0701802,499
1765877482.0701911,496
1765877482.0702028,492
1765877482.0702138,494
1765877482.070225,495
1765877482.070236,494
1765877482.070247,492
1765877482.070258,493
1765877482.0702689,494
1765877482.0702798,496
1765877482.070292,495
1765877482.070303,496
1765877482.070314,497
1765877482.070325,497
1765877482.070336,496
1765877482.070347,495
1765877482.070358,495
1765877482.07037,495
1765877482.0703812,494
1765877482.070395,493
1765877482.070406,494
1765877482.070417,494
1765877482.070428,494
1765877482.0704389,494
1765877482.070451,494
1765877482.070462,494
1765877482.070473,495
1765877482.070484,495
1765877482.070495,495
1765877482.070507,495
1765877482.070518,495
1765877482.070529,495
1765877482.07054,495
1765877482.0705512,494
1765877482.070563,495
1765877482.070574,496
1765877482.070585,496
1765877482.070596,495
1765877482.0706072,495
1765877482.0706189,494
1765877482.0706298,494
1765877482.0706408,496
1765877482.070652,498
1765877482.070664,499
1765877482.070675,500
1765877482.070688,496
1765877482.0707011,491
1765877482.070712,489
1765877482.070723,492
1765877482.070734,494
1765877482.070745,494
1765877482.0707562,495
1765877482.070826,494
1765877482.070845,493
1765877482.070861,494
1765877482.0709262,494
1765877482.07094,495
1765877482.070952,494
1765877482.0709639,493
1765877482.070976,494
1765877482.0709891,495
1765877482.071001,494
1765877482.0710132,495
1765877482.0710242,495
1765877482.0710359,496
1765877482.0710778,496
1765877482.071092,497
1765877482.071105,496
1765877482.0711172,495
1765877482.07113,494
1765877482.071142,494
1765877482.071157,494
1765877482.071202,494
1765877482.071251,494
1765877482.07127,496
1765877482.0712829,495
1765877482.071296,495
1765877482.0713081,495
1765877482.071321,495
1765877482.071334,495
1765877482.071347,493
1765877482.071359,494
1765877482.0713909,494
1765877482.071403,494
1765877482.071414,494
1765877482.071424,494
1765877482.071435,494
1765877482.071445,494
1765877482.071455,495
1765877482.071465,494
1765877482.071475,494
1765877482.071485,494
1765877482.0714948,496
1765877482.0715048,498
1765877482.0715148,501
1765877482.071525,501
1765877482.0715342,500
1765877482.0715468,496
1765877482.071557,491
1765877482.071567,491
1765877482.071577,492
1765877482.071587,492
1765877482.071597,492
1765877482.071607,493
1765877482.0716171,495
1765877482.071627,494
1765877482.071637,494
1765877482.071647,494
1765877482.071682,494
1765877482.071692,494
1765877482.071703,495
1765877482.071713,496
1765877482.071723,497
1765877482.071733,497
1765877482.071743,498
1765877482.071753,494
1765877482.071763,493
1765877482.0717728,492
1765877482.0717819,492
1765877482.0717921,493
1765877482.0718021,494
1765877482.0718122,494
1765877482.0718222,495
1765877482.071856,495
1765877482.071867,495
1765877482.071877,494
1765877482.071887,494
1765877482.071897,494
1765877482.071907,494
1765877482.071917,494
1765877482.071927,494
1765877482.071936,495
1765877482.071946,494
1765877482.071956,495
1765877482.071966,494
1765877482.071976,494
1765877482.072007,495
1765877482.072017,495
1765877482.072027,495
1765877482.0720372,493
1765877482.072065,493
1765877482.072076,494
1765877482.072085,494
1765877482.072095,494
1765877482.072105,494
1765877482.072115,494
1765877482.072125,495
1765877482.072135,495
1765877482.072209,495
1765877482.072227,495
1765877482.0722408,494
1765877482.072254,494
1765877482.0722802,494
1765877482.072295,494
1765877482.072311,494
1765877482.0723252,495
1765877482.072336,495
1765877482.0723462,495
1765877482.072356,494
1765877482.072366,495
1765877482.072376,495
1765877482.072386,495
1765877482.072396,495
1765877482.072406,494
1765877482.072416,495
1765877482.072426,495
1765877482.0724359,495
1765877482.0724459,495
1765877482.072456,495
1765877482.072466,494
1765877482.072476,493
1765877482.072486,494
1765877482.0725162,495
1765877482.072526,495
1765877482.072536,495
1765877482.0725498,495
1765877482.07256,494
1765877482.07257,495
1765877482.07258,495
1765877482.07259,495
1765877482.0726001,495
1765877482.0726101,494
1765877482.07262,495
1765877482.07263,495
1765877482.072654,495
1765877482.072665,495
1765877482.072674,495
1765877482.072684,495
1765877482.072694,495
1765877482.072705,495
1765877482.072714,495
1765877482.0727239,495
1765877482.0727339,495
1765877482.072744,495
1765877482.072754,495
1765877482.072764,495
1765877482.072774,495
1765877482.072784,495
1765877482.0727942,494
1765877482.0728042,495
1765877482.072814,494
1765877482.0728269,495
1765877482.072839,495
1765877482.0728488,495
1765877482.0728588,495
1765877482.072869,494
1765877482.072879,495
1765877482.0728881,494
1765877482.0728981,495
1765877482.072908,494
1765877482.072918,495
1765877482.072928,494
1765877482.072938,493
1765877482.072948,493
1765877482.072958,493
1765877482.072968,493
1765877482.072978,493
1765877482.0729878,494
1765877482.0729978,495
1765877482.073008,495
1765877482.073018,496
1765877482.073028,495
1765877482.073038,495
1765877482.073048,495
1765877482.0730581,494
1765877482.073067,495
1765877482.073077,494
1765877482.07309,495
1765877482.0731,495
1765877482.07311,495
1765877482.07312,494
1765877482.07313,493
1765877482.073139,493
1765877482.073149,494
1765877482.073159,495
1765877482.073169,496
1765877482.0731788,496
1765877482.073189,495
1765877482.073199,495
1765877482.073209,495
1765877482.073219,495
1765877482.073229,495
1765877482.073239,495
1765877482.073249,495
1765877482.073259,495
1765877482.073269,495
1765877482.073279,495
1765877482.073289,495
1765877482.073468,495
1765877482.073479,495
1765877482.073489,494
1765877482.073499,494
1765877482.0735092,495
1765877482.0735219,494
1765877482.0735328,494
1765877482.0735428,495
1765877482.0735528,495
1765877482.0735638,496
1765877482.073573,495
1765877482.073584,495
1765877482.073594,494
1765877482.073604,495
1765877482.0736141,494
1765877482.0736241,495
1765877482.0736341,495
1765877482.073644,495
1765877482.073654,494
1765877482.073664,495
1765877482.073674,495
1765877482.073684,495
1765877482.073694,495
1765877482.073704,494
1765877482.073714,495
1765877482.073725,495
1765877482.073735,495
1765877482.073745,494
1765877482.0737548,494
1765877482.073765,495
1765877482.073775,495
1765877482.073786,495
1765877482.073799,495
1765877482.073809,495
1765877482.0738199,495
1765877482.07383,495
1765877482.0738401,495
1765877482.0738502,495
1765877482.0738602,495
1765877482.0738702,495
1765877482.07388,495
1765877482.07389,493
1765877482.0739,493
1765877482.073911,494
1765877482.073921,494
1765877482.073931,495
1765877482.073941,495
1765877482.073951,495
1765877482.073961,496
1765877482.073971,495
1765877482.073981,495
1765877482.0739908,495
1765877482.0740008,495
1765877482.0740118,495
1765877482.0740218,495
1765877482.074032,495
1765877482.074042,496
1765877482.074053,497
1765877482.074066,496
1765877482.074077,495
1765877482.074087,495
1765877482.074097,494
1765877482.074108,494
1765877482.0741172,495
1765877482.074128,495
1765877482.0741382,495
1765877482.0741491,495
1765877482.0741591,495
1765877482.0741692,494
1765877482.0741792,495
1765877482.074189,494
1765877482.0742002,495
1765877482.0742102,496
1765877482.0742211,496
1765877482.0742311,497
1765877482.074241,496
1765877482.074251,496
1765877482.074261,495
1765877482.074272,496
1765877482.074282,496
1765877482.074293,496
1765877482.074303,495
1765877482.074313,496
1765877482.074324,495
1765877482.074337,496
1765877482.074347,496
1765877482.074358,496
1765877482.074368,496
1765877482.074378,497
1765877482.074388,496
1765877482.074399,496
1765877482.074409,496
1765877482.074419,495
1765877482.074429,495
1765877482.07444,496
1765877482.074451,495
1765877482.074461,495
1765877482.074471,496
1765877482.074481,496
1765877482.074492,497
1765877482.074502,496
1765877482.0745118,496
1765877482.074522,495
1765877482.0745332,494
1765877482.074543,494
1765877482.074553,495
1765877482.074563,495
1765877482.074574,495
1765877482.074584,495
1765877482.074614,495
1765877482.074629,494
1765877482.0746398,493
1765877482.0746508,493
1765877482.074661,494
1765877482.0746722,493
1765877482.074682,495
1765877482.074692,496
1765877482.0747032,496
1765877482.074713,496
1765877482.0747242,496
1765877482.074734,495
1765877482.074744,495
1765877482.074755,494
1765877482.074765,495
1765877482.074775,496
1765877482.074785,495
1765877482.074796,495
1765877482.074806,496
1765877482.074816,494
1765877482.074826,495
1765877482.074837,495
1765877482.074847,496
1765877482.074857,494
1765877482.074867,495
1765877482.074878,495
1765877482.074888,495
1765877482.074903,495
1765877482.074913,496
1765877482.074923,495
1765877482.074934,495
1765877482.074944,495
1765877482.074954,494
1765877482.074965,494
1765877482.074975,496
1765877482.074985,496
1765877482.074995,496
1765877482.075006,496
1765877482.075016,495
1765877482.075026,496
1765877482.0750358,496
1765877482.0750458,495
1765877482.075056,495
1765877482.0750668,495
1765877482.075077,495
1765877482.075087,495
1765877482.075097,495
1765877482.075107,495
1765877482.075117,494
1765877482.0751271,495
1765877482.0751371,493
1765877482.075147,494
1765877482.075177,496
1765877482.075192,495
1765877482.0752032,495
1765877482.075213,495
1765877482.075223,495
1765877482.075234,495
1765877482.075244,494
1765877482.075254,494
1765877482.075264,494
1765877482.075275,494
1765877482.075285,495
1765877482.075295,494
1765877482.075305,495
1765877482.075315,494
1765877482.075325,494
1765877482.075336,493
1765877482.075346,494
1765877482.075356,495
1765877482.0753658,495
1765877482.075376,494
1765877482.075386,495
1765877482.075397,494
1765877482.075407,494
1765877482.075417,495
1765877482.075427,497
1765877482.075437,496
1765877482.075447,496
1765877482.0754602,495
1765877482.0754712,495
1765877482.0754812,494
1765877482.075497,494
1765877482.0755079,494
1765877482.075518,494
1765877482.075528,494
1765877482.075538,495
1765877482.075548,496
1765877482.075558,496
1765877482.0755682,495
1765877482.0755782,493
1765877482.075588,492
1765877482.0755992,494
1765877482.0756092,494
1765877482.075619,495
1765877482.075629,496
1765877482.075639,495
1765877482.075649,494
1765877482.075659,495
1765877482.07567,495
1765877482.07568,494
1765877482.07569,494
1765877482.0757,495
1765877482.07571,496
1765877482.0757198,495
1765877482.0757298,495
1765877482.075744,495
1765877482.0757551,495
1765877482.075765,495
1765877482.075775,494
1765877482.075785,494
1765877482.075795,495
1765877482.075806,494
1765877482.075816,494
1765877482.075826,494
1765877482.075837,495
1765877482.075847,495
1765877482.075857,495
1765877482.075867,495
1765877482.0758772,495
1765877482.0758872,495
1765877482.075897,495
1765877482.0759082,495
1765877482.0759182,495
1765877482.075928,495
1765877482.075938,495
1765877482.075949,495
1765877482.075959,496
1765877482.075969,495
1765877482.075979,495
1765877482.075989,494
1765877482.076,495
1765877482.076013,494
1765877482.076024,494
1765877482.076035,495
1765877482.076045,494
1765877482.076055,494
1765877482.076065,494
1765877482.076075,495
1765877482.076085,495
1765877482.0760949,495
1765877482.076106,495
1765877482.076115,495
1765877482.0761259,494
1765877482.0761359,495
1765877482.076146,494
1765877482.076156,495
1765877482.076166,495
1765877482.076176,495
1765877482.076187,495
1765877482.0761971,495
1765877482.0762072,495
1765877482.0762172,495
1765877482.0762439,495
1765877482.076281,495
1765877482.0763352,494
1765877482.0763469,494
1765877482.0763578,494
1765877482.076372,494
1765877482.076384,495
1765877482.076395,495
1765877482.076405,494
1765877482.076415,495
1765877482.076425,494
1765877482.0764349,495
1765877482.076446,497
1765877482.0764558,497
1765877482.0764658,496
1765877482.0764768,494
1765877482.0764868,494
1765877482.0764968,495
1765877482.0765078,494
1765877482.0765178,494
1765877482.076528,495
1765877482.076538,494
1765877482.076548,495
1765877482.076559,495
1765877482.076569,495
1765877482.076579,496
1765877482.076589,496
1765877482.0765991,496
1765877482.0766091,495
1765877482.07662,495
1765877482.07663,495
1765877482.07664,495
1765877482.0766542,496
1765877482.0766652,495
1765877482.0766752,495
1765877482.076685,495
1765877482.076695,494
1765877482.076705,493
1765877482.076715,493
1765877482.076725,494
1765877482.076735,495
1765877482.076745,494
1765877482.076755,495
1765877482.0767648,495
1765877482.0767748,495
1765877482.0767848,496
1765877482.0767949,495
1765877482.076805,495
1765877482.0768158,495
1765877482.076826,496
1765877482.076836,495
1765877482.0768461,494
1765877482.0768561,493
1765877482.0768661,494
1765877482.076876,495
1765877482.076886,495
1765877482.076897,495
1765877482.076906,496
1765877482.07692,496
1765877482.07693,496
1765877482.07694,496
1765877482.076951,496
1765877482.07696,495
1765877482.07697,495
1765877482.076979,494
1765877482.076988,495
1765877482.076997,495
1765877482.077006,495
1765877482.077015,495
1765877482.077024,495
1765877482.077033,495
1765877482.0770419,495
1765877482.077051,496
1765877482.0770612,494
1765877482.077069,495
1765877482.077079,495
1765877482.077088,494
1765877482.077097,495
1765877482.077106,495
1765877482.0771148,495
1765877482.077124,494
1765877482.077133,494
1765877482.077142,494
1765877482.077152,495
1765877482.077163,495
1765877482.077172,495
1765877482.0771809,495
1765877482.07719,495
1765877482.0772,496
1765877482.077209,495
1765877482.077218,496
1765877482.077227,495
1765877482.077236,495
1765877482.077245,494
1765877482.0772538,494
1765877482.077263,495
1765877482.0772722,495
1765877482.077282,495
1765877482.077291,494
1765877482.0773,495
1765877482.077309,495
1765877482.077318,495
1765877482.077327,495
1765877482.077336,495
1765877482.0773451,496
1765877482.077355,495
1765877482.077364,495
1765877482.077373,495
1765877482.0773811,495
1765877482.0773902,495
1765877482.077402,496
1765877482.0774121,496
1765877482.077421,497
1765877482.07743,496
1765877482.077441,495
1765877482.07745,496
1765877482.0774589,495
1765877482.0774689,495
1765877482.0774772,495
1765877482.077486,495
1765877482.077495,495
1765877482.077505,493
1765877482.0775151,494
1765877482.077524,496
1765877482.077533,495
1765877482.0775418,495
1765877482.0775511,496
1765877482.07756,496
1765877482.077569,495
1765877482.077578,495
1765877482.077588,495
1765877482.077597,495
1765877482.077606,494
1765877482.077615,495
1765877482.077624,495
1765877482.077634,495
1765877482.077643,495
1765877482.077655,495
1765877482.077664,496
1765877482.077673,495
1765877482.077682,496
1765877482.0776908,496
1765877482.0777001,495
1765877482.077709,496
1765877482.077719,496
1765877482.077727,497
1765877482.0777369,496
1765877482.077746,495
1765877482.077755,494
1765877482.0777721,495
1765877482.078078,495
1765877482.078102,494
1765877482.078112,493
1765877482.078121,493
1765877482.07813,494
1765877482.0781388,495
1765877482.078149,496
1765877482.0781581,496
1765877482.078167,496
1765877482.078176,495
1765877482.0781848,495
1765877482.0781949,496
1765877482.078204,496
1765877482.078217,495
1765877482.078228,495
1765877482.0782368,495
1765877482.0782459,495
1765877482.0782552,494
1765877482.078264,495
1765877482.078273,495
1765877482.0782819,495
1765877482.078291,494
1765877482.0783,495
1765877482.0783098,495
1765877482.078319,496
1765877482.0783281,496
1765877482.078337,495
1765877482.078346,495
1765877482.0783548,494
1765877482.0783648,494
1765877482.078374,494
1765877482.0783832,494
1765877482.078392,495
1765877482.078401,496
1765877482.078432,497
1765877482.078441,497
1765877482.078451,495
1765877482.0784588,495
1765877482.078469,495
1765877482.0784771,496
1765877482.078489,497
1765877482.0784981,496
1765877482.0785081,496
1765877482.078517,497
1765877482.078526,498
1765877482.078536,498
1765877482.0785449,498
1765877482.0785542,498
1765877482.078563,498
1765877482.078572,496
1765877482.078582,496
1765877482.0785909,496
1765877482.0786,495
1765877482.078609,494
1765877482.078618,495
1765877482.078627,494
1765877482.078636,494
1765877482.078645,494
1765877482.078655,495
1765877482.0786638,494
1765877482.078673,495
1765877482.0786822,496
1765877482.0786922,497
1765877482.078702,497
1765877482.078711,497
1765877482.07872,496
1765877482.078731,496
1765877482.078742,495
1765877482.078751,494
1765877482.07876,495
1765877482.078769,495
1765877482.078778,495
1765877482.078787,494
1765877482.0787961,495
1765877482.078806,495
1765877482.078815,495
1765877482.078824,494
1765877482.0788329,495
1765877482.0788422,496
1765877482.078851,496
1765877482.078876,496
1765877482.078887,496
1765877482.078896,495
1765877482.078906,495
1765877482.078915,494
1765877482.078924,494
1765877482.078933,495
1765877482.078942,496
1765877482.078951,495
1765877482.0789602,495
1765877482.078969,495
1765877482.078979,495
1765877482.0790179,495
1765877482.079028,495
1765877482.079038,495
1765877482.079047,493
1765877482.0790558,495
1765877482.079066,494
1765877482.079075,494
1765877482.079084,495
1765877482.079093,495
1765877482.079102,495
1765877482.0791109,496
1765877482.07912,497
1765877482.0791302,496
1765877482.079139,496
1765877482.079148,496
1765877482.0791569,495
1765877482.079166,495
1765877482.079175,495
1765877482.0791838,495
1765877482.079193,496
1765877482.079202,497
1765877482.079212,497
1765877482.079221,496
1765877482.07923,496
1765877482.079239,495
1765877482.079249,497
1765877482.0792599,495
1765877482.0792708,495
1765877482.0792801,495
1765877482.0792892,494
1765877482.079298,494
1765877482.079307,495
1765877482.079317,495
1765877482.079325,495
1765877482.0793338,495
1765877482.079344,495
1765877482.079353,495
1765877482.079364,496
1765877482.0793731,496
1765877482.079382,496
1765877482.079391,496
1765877482.0793998,496
1765877482.079409,495
1765877482.0794182,495
1765877482.079427,495
1765877482.079437,495
1765877482.079446,494
1765877482.079454,495
1765877482.079463,496
1765877482.079472,496
1765877482.0794811,495
1765877482.07949,495
1765877482.079499,495
1765877482.0795121,495
1765877482.079523,494
1765877482.0795321,494
1765877482.079541,495
1765877482.07955,496
1765877482.0795588,495
1765877482.079568,495
1765877482.079577,495
1765877482.079586,495
1765877482.079595,495
1765877482.079604,494
1765877482.079613,494
1765877482.0796218,495
1765877482.079631,495
1765877482.0796402,495
1765877482.079649,495
1765877482.079659,495
1765877482.079668,495
1765877482.079676,495
1765877482.0796852,495
1765877482.079694,496
1765877482.079703,496
1765877482.079712,495
1765877482.079721,496
1765877482.07973,496
1765877482.0797381,495
1765877482.079749,495
1765877482.0797598,495
1765877482.0797682,494
1765877482.079778,494
1765877482.079786,495
1765877482.079795,494
1765877482.079804,494
1765877482.079813,495
1765877482.079822,495
1765877482.0798311,495
1765877482.07984,495
1765877482.079849,495
1765877482.0798578,494
1765877482.0798662,495
1765877482.079875,495
1765877482.079884,495
1765877482.0798929,495
1765877482.079902,495
1765877482.079911,495
1765877482.07992,496
1765877482.079929,494
1765877482.079938,495
1765877482.079947,495
1765877482.079956,495
1765877482.0799649,496
1765877482.0799732,495
1765877482.079982,496
1765877482.079995,495
1765877482.080004,495
1765877482.080013,495
1765877482.080021,495
1765877482.080031,495
1765877482.080039,495
1765877482.080048,495
1765877482.0800571,495
1765877482.080066,495
1765877482.080075,495
1765877482.080084,495
1765877482.080093,495
1765877482.080102,495
1765877482.080111,496
1765877482.0801191,496
1765877482.080128,495
1765877482.080137,495
1765877482.0801458,495
1765877482.080155,495
1765877482.0801642,495
1765877482.080173,495
1765877482.080181,496
1765877482.08019,495
1765877482.080199,496
1765877482.0802088,496
1765877482.080218,495
1765877482.080229,495
1765877482.080238,495
1765877482.080247,495
1765877482.080256,495
1765877482.080265,495
1765877482.0802739,495
1765877482.080283,495
1765877482.080292,495
1765877482.080301,495
1765877482.08031,495
1765877482.080319,496
1765877482.0803268,496
1765877482.0803359,495
1765877482.0803452,495
1765877482.080354,495
1765877482.080363,495
1765877482.0803719,496
1765877482.080381,495
1765877482.08039,496
1765877482.080399,495
1765877482.080408,495
1765877482.080416,496
1765877482.080425,495
1765877482.0804338,496
1765877482.080443,495
1765877482.0804522,495
1765877482.0804632,496
1765877482.0804732,496
1765877482.080482,496
1765877482.080491,495
1765877482.0805,495
1765877482.0805151,495
1765877482.080524,496
1765877482.080533,495
1765877482.0805418,495
1765877482.080551,495
1765877482.0805602,495
1765877482.080569,495
1765877482.080578,495
1765877482.080586,496
1765877482.080595,495
1765877482.0806038,496
1765877482.0806131,495
1765877482.0806222,496
1765877482.080631,496
1765877482.080639,496
1765877482.080648,495
1765877482.080657,495
1765877482.080666,495
1765877482.0806751,495
1765877482.080684,496
1765877482.080693,495
1765877482.080702,496
1765877482.0807118,496
1765877482.080723,495
1765877482.0807319,495
1765877482.0807412,495
1765877482.080749,495
1765877482.080758,495
1765877482.080767,495
1765877482.080776,495
1765877482.0807848,495
1765877482.0807931,495
1765877482.080802,496
1765877482.080812,495
1765877482.0810912,495
1765877482.0811,496
1765877482.081109,495
1765877482.0811179,495
1765877482.081127,496
1765877482.0811362,496
1765877482.081145,495
1765877482.081154,495
1765877482.081162,495
1765877482.081171,495
1765877482.0811799,495
1765877482.0811892,495
1765877482.081198,495
1765877482.081207,495
1765877482.081218,495
1765877482.081229,495
1765877482.081237,495
1765877482.081246,495
1765877482.081255,496
1765877482.081264,496
1765877482.081273,495
1765877482.0812821,496
1765877482.081291,495
1765877482.081301,495
1765877482.08131,495
1765877482.0813189,495
1765877482.0813272,496
1765877482.081336,495
1765877482.081345,495
1765877482.081355,495
1765877482.081364,495
1765877482.081373,495
1765877482.081381,495
1765877482.0813901,496
1765877482.081399,495
1765877482.081408,495
1765877482.0814168,495
1765877482.081426,495
1765877482.081435,495
1765877482.081444,495
1765877482.081453,495
1765877482.081465,494
1765877482.081474,495
1765877482.0814831,496
1765877482.081492,496
1765877482.081501,496
1765877482.0815098,495
1765877482.0815191,495
1765877482.081528,495
1765877482.081536,495
1765877482.0815449,495
1765877482.081554,495
1765877482.081563,495
1765877482.081572,496
1765877482.081581,495
1765877482.08159,495
1765877482.081598,495
1765877482.0816069,495
1765877482.081616,495
1765877482.081625,495
1765877482.081634,495
1765877482.081643,495
1765877482.081652,495
1765877482.081661,495
1765877482.0816698,495
1765877482.081679,495
1765877482.0816882,495
1765877482.081698,496
1765877482.0817091,495
1765877482.081718,495
1765877482.081727,495
1765877482.0817358,495
1765877482.081745,495
1765877482.0817542,495
1765877482.081763,495
1765877482.081772,495
1765877482.081781,495
1765877482.08179,495
1765877482.081799,495
1765877482.0818079,495
1765877482.0818172,495
1765877482.081826,495
1765877482.081835,495
1765877482.081843,495
1765877482.081852,495
1765877482.081861,496
1765877482.08187,495
1765877482.0818791,495
1765877482.081888,496
1765877482.081897,496
1765877482.0819058,495
1765877482.081915,495
1765877482.0819242,495
1765877482.0819352,495
1765877482.0819452,495
1765877482.081954,495
1765877482.081963,495
1765877482.081972,495
1765877482.081981,495
1765877482.08199,495
1765877482.081998,495
1765877482.082007,495
1765877482.082016,495
1765877482.082025,495
1765877482.0820339,495
1765877482.082043,495
1765877482.082052,495
1765877482.082061,495
1765877482.08207,495
1765877482.082079,495
1765877482.082088,496
1765877482.082096,495
1765877482.0821052,496
1765877482.082114,496
1765877482.082123,496
1765877482.0821319,496
1765877482.082141,496
1765877482.08215,497
1765877482.082159,496
1765877482.082168,497
1765877482.082179,497
1765877482.0821881,496
1765877482.082197,496
1765877482.082206,496
1765877482.0822148,496
1765877482.0822241,496
1765877482.0822332,496
1765877482.082241,496
1765877482.0822499,496
1765877482.082259,496
1765877482.082268,496
1765877482.082277,495
1765877482.0822861,495
1765877482.082295,495
1765877482.082304,495
1765877482.082313,495
1765877482.082322,495
1765877482.082331,495
1765877482.08234,495
1765877482.082349,495
1765877482.0823581,495
1765877482.082366,496
1765877482.0823748,496
1765877482.0823839,496
1765877482.0823932,495
1765877482.082402,496
1765877482.082413,496
1765877482.082423,495
1765877482.082432,495
1765877482.0824409,495
1765877482.08245,495
1765877482.082459,495
1765877482.082468,495
1765877482.0824761,495
1765877482.082485,495
1765877482.082494,495
1765877482.0825028,495
1765877482.082512,495
1765877482.0825212,496
1765877482.08253,495
1765877482.082539,496
1765877482.082548,495
1765877482.082557,495
1765877482.0825658,495
1765877482.082575,495
1765877482.0825841,495
1765877482.082593,495
1765877482.082602,496
1765877482.0826108,495
1765877482.08262,495
1765877482.0826292,495
1765877482.082638,495
1765877482.0826461,495
1765877482.082658,495
1765877482.082667,494
1765877482.082676,495
1765877482.082685,495
1765877482.0826938,495
1765877482.082703,495
1765877482.0827122,495
1765877482.082721,495
1765877482.08273,495
1765877482.0827389,495
1765877482.082748,495
1765877482.0827572,495
1765877482.082766,495
1765877482.082775,495
1765877482.0827851,495
1765877482.082794,495
1765877482.082803,495
1765877482.0828118,495
1765877482.0828211,495
1765877482.0828302,495
1765877482.082839,495
1765877482.082848,495
1765877482.082857,495
1765877482.082866,495
1765877482.0828748,496
1765877482.082884,496
1765877482.082894,495
1765877482.0829031,495
1765877482.082912,494
1765877482.0829198,495
1765877482.0829282,495
1765877482.082937,494
1765877482.0829551,494
1765877482.082964,495
1765877482.0829802,495
1765877482.082988,495
1765877482.082996,495
1765877482.083005,495
1765877482.0830138,495
1765877482.083022,495
1765877482.08303,495
1765877482.0830379,495
1765877482.083047,495
1765877482.0830588,495
1765877482.083071,495
1765877482.0830789,496
1765877482.0830872,495
1765877482.083096,495
1765877482.083104,495
1765877482.083112,495
1765877482.08312,495
1765877482.083138,495
1765877482.083158,495
1765877482.083167,495
1765877482.08318,495
1765877482.0832262,495
1765877482.083266,495
1765877482.083275,495
1765877482.083283,494
1765877482.083292,495
1765877482.0833,495
1765877482.083308,496
1765877482.083364,495
1765877482.083373,494
1765877482.083381,495
1765877482.083389,495
1765877482.0833972,494
1765877482.083405,494
1765877482.083413,495
1765877482.083421,495
1765877482.0834298,495
1765877482.0834382,495
1765877482.083446,495
1765877482.083454,495
1765877482.083463,495
1765877482.083471,495
1765877482.083479,495
1765877482.083487,495
1765877482.083495,495
1765877482.0835059,494
1765877482.0835142,494
1765877482.083523,494
1765877482.083541,495
1765877482.083549,495
1765877482.0835571,495
1765877482.083565,495
1765877482.083573,495
1765877482.083584,495
1765877482.083592,494
1765877482.0835998,494
1765877482.083609,495
1765877482.083617,495
1765877482.083625,495
1765877482.083633,495
1765877482.083641,495
1765877482.083649,495
1765877482.083657,495
1765877482.083713,495
1765877482.083761,495
1765877482.08377,495
1765877482.0837781,495
1765877482.083786,495
1765877482.0837948,494
1765877482.083803,495
1765877482.083811,495
1765877482.0838258,495
1765877482.083835,495
1765877482.083843,495
1765877482.083851,495
1765877482.083863,495
1765877482.083871,495
1765877482.083879,495
1765877482.083888,495
1765877482.0838962,496
1765877482.083904,495
1765877482.083912,496
1765877482.083921,495
1765877482.083929,495
1765877482.083937,495
1765877482.083945,496
1765877482.083958,495
1765877482.083967,495
1765877482.0839748,495
1765877482.0839832,495
1765877482.083991,494
1765877482.083999,495
1765877482.084007,495
1765877482.0840151,496
1765877482.084023,496
1765877482.0840309,495
1765877482.08404,496
1765877482.0840478,495
1765877482.084058,495
1765877482.084067,495
1765877482.084076,495
1765877482.084084,495
1765877482.084092,495
1765877482.0841,495
1765877482.084108,495
1765877482.084116,495
1765877482.084128,495
1765877482.084136,495
1765877482.084144,495
1765877482.084152,495
1765877482.08416,496
1765877482.084168,495
1765877482.0841768,496
1765877482.0841851,495
1765877482.084193,495
1765877482.0842009,495
1765877482.08421,495
1765877482.084218,496
1765877482.0842261,495
1765877482.084234,495
1765877482.0842419,495
1765877482.0842502,495
1765877482.084259,495
1765877482.084267,495
1765877482.084276,495
1765877482.084286,495
1765877482.0842938,495
1765877482.0843022,495
1765877482.08431,495
1765877482.084318,495
1765877482.084327,495
1765877482.084335,495
1765877482.084343,495
1765877482.084351,495
1765877482.084359,495
1765877482.084367,495
1765877482.0843751,495
1765877482.084383,495
1765877482.0843918,495
1765877482.0844002,496
1765877482.084408,495
1765877482.084416,495
1765877482.084424,495
1765877482.084432,495
1765877482.08444,495
1765877482.084449,495
1765877482.084457,495
1765877482.0844648,495
1765877482.0844731,496
1765877482.084481,495
1765877482.08449,495
1765877482.0845,495
1765877482.084509,495
1765877482.084517,495
1765877482.084525,496
1765877482.084533,495
1765877482.084542,496
1765877482.08455,495
1765877482.084558,496
1765877482.084566,495
1765877482.084574,495
1765877482.0845819,495
1765877482.0845902,495
1765877482.084599,495
1765877482.084607,495
1765877482.084615,495
1765877482.084623,495
1765877482.084631,495
1765877482.08464,495
1765877482.084648,495
1765877482.0846562,495
1765877482.084664,496
1765877482.084672,496
1765877482.0846798,495
1765877482.084688,495
1765877482.084696,495
1765877482.084705,496
1765877482.084714,495
1765877482.084723,495
1765877482.0847318,495
1765877482.0847402,495
1765877482.084748,496
1765877482.084756,495
1765877482.084764,496
1765877482.084772,495
1765877482.08478,495
1765877482.084788,496
1765877482.084797,496
1765877482.084805,496
1765877482.084813,495
1765877482.084821,495
1765877482.08483,496
1765877482.084838,496
1765877482.084846,496
1765877482.0848541,495
1765877482.084862,495
1765877482.0848699,496
1765877482.084878,495
1765877482.084887,495
1765877482.084895,495
1765877482.084903,495
1765877482.084911,496
1765877482.084919,496
1765877482.084927,495
1765877482.0849369,496
1765877482.084946,495
1765877482.084954,496
1765877482.0849621,495
1765877482.08497,495
1765877482.0849779,495
1765877482.084987,496
1765877482.084995,496
1765877482.085003,496
1765877482.085011,494
1765877482.0850189,495
1765877482.085027,496
1765877482.085036,495
1765877482.085044,495
1765877482.085052,495
1765877482.0850601,495
1765877482.085069,495
1765877482.0850828,496
1765877482.085092,496
1765877482.0851,496
1765877482.085108,496
1765877482.085116,496
1765877482.085124,495
1765877482.0851321,495
1765877482.08514,496
1765877482.0851479,495
1765877482.0851588,495
1765877482.0851672,495
1765877482.085176,495
1765877482.085184,495
1765877482.085192,496
1765877482.0851998,495
1765877482.0852082,495
1765877482.085216,495
1765877482.085224,495
1765877482.085233,496
1765877482.085241,495
1765877482.085249,495
1765877482.085257,496
1765877482.085265,496
1765877482.085273,496
1765877482.0852811,496
1765877482.085289,495
1765877482.0852969,495
1765877482.0853062,495
1765877482.085315,494
1765877482.085323,495
1765877482.085331,495
1765877482.0853388,495
1765877482.0853472,495
1765877482.085355,495
1765877482.085363,495
1765877482.0853708,495
1765877482.085381,496
1765877482.08539,496
1765877482.085398,495
1765877482.085406,496
1765877482.085414,495
1765877482.085423,495
1765877482.085431,496
1765877482.085443,496
1765877482.0854511,496
1765877482.085459,495
1765877482.0854669,496
1765877482.085475,496
1765877482.085483,496
1765877482.085491,497
1765877482.0854988,497
1765877482.085508,497
1765877482.085516,497
1765877482.085524,497
1765877482.085532,497
1765877482.08554,497
1765877482.085549,496
1765877482.085557,496
1765877482.0855649,496
1765877482.0855732,497
1765877482.085581,496
1765877482.085589,496
1765877482.085599,495
1765877482.085608,496
1765877482.085616,495
1765877482.0856252,496
1765877482.085633,495
1765877482.085641,495
1765877482.085649,495
1765877482.0856571,495
1765877482.085665,495
1765877482.085674,495
1765877482.085682,495
1765877482.08569,495
1765877482.0856981,495
1765877482.08571,495
1765877482.085718,495
1765877482.085726,495
1765877482.0857348,495
1765877482.0857432,496
1765877482.085751,495
1765877482.085759,496
1765877482.08584,495
1765877482.085848,496
1765877482.085856,495
1765877482.0858638,495
1765877482.0858722,495
1765877482.085881,496
1765877482.085889,495
1765877482.085899,495
1765877482.085908,495
1765877482.0859158,495
1765877482.085925,495
1765877482.085933,495
1765877482.085941,495
1765877482.085949,495
1765877482.085957,496
1765877482.0859652,495
1765877482.085973,495
1765877482.085981,495
1765877482.0859892,495
1765877482.085997,495
1765877482.086005,495
1765877482.0860128,495
1765877482.0860212,495
1765877482.086029,495
1765877482.086037,495
1765877482.086046,495
1765877482.0860538,495
1765877482.086061,495
1765877482.086069,495
1765877482.086078,496
1765877482.0860858,496
1765877482.0860941,495
1765877482.086102,495
1765877482.0861151,495
1765877482.086124,495
1765877482.086132,495
1765877482.08614,495
1765877482.0861492,495
1765877482.086157,495
1765877482.086165,495
1765877482.0861728,495
1765877482.0861812,495
1765877482.086189,495
1765877482.086197,495
1765877482.086205,495
1765877482.086213,495
1765877482.086221,495
1765877482.086229,495
1765877482.086238,495
1765877482.0862458,495
1765877482.0862541,495
1765877482.086262,495
1765877482.0862699,495
1765877482.086278,496
1765877482.086286,495
1765877482.086294,496
1765877482.086303,495
1765877482.0863109,495
1765877482.0863192,495
1765877482.086329,495
1765877482.086337,496
1765877482.086346,495
1765877482.086354,495
1765877482.0863621,496
1765877482.08637,496
1765877482.086378,496
1765877482.086386,496
1765877482.086394,496
1765877482.0864031,495
1765877482.086411,495
1765877482.0864189,495
1765877482.086428,495
1765877482.086436,495
1765877482.0864441,495
1765877482.086452,495
1765877482.0864599,496
1765877482.086468,495
1765877482.086476,495
1765877482.086485,495
1765877482.086493,495
1765877482.0865011,495
1765877482.086509,494
1765877482.086517,495
1765877482.086525,495
1765877482.086533,495
1765877482.086541,495
1765877482.086557,495
1765877482.086565,495
1765877482.086574,495
1765877482.086582,495
1765877482.08659,495
1765877482.086598,496
1765877482.086606,496
1765877482.0866141,495
1765877482.086622,495
1765877482.0866299,495
1765877482.086638,495
1765877482.086647,496
1765877482.086655,495
1765877482.086663,495
1765877482.086671,495
1765877482.086679,496
1765877482.086687,495
1765877482.086695,495
1765877482.086704,495
1765877482.086716,495
1765877482.086724,495
1765877482.0867321,496
1765877482.08674,495
1765877482.086748,495
1765877482.086756,495
1765877482.086764,495
1765877482.086775,495
1765877482.086784,495
1765877482.086795,495
1765877482.086804,495
1765877482.086812,495
1765877482.0868201,495
1765877482.086828,495
1765877482.0868359,495
1765877482.086844,495
1765877482.086853,496
1765877482.0868611,495
1765877482.08687,494
1765877482.086878,495
1765877482.086886,495
1765877482.086894,496
1765877482.086902,494
1765877482.08691,495
1765877482.0869188,495
1765877482.0869272,496
1765877482.086935,495
1765877482.086943,495
1765877482.086951,495
1765877482.0869591,496
1765877482.086967,496
1765877482.0869749,495
1765877482.086984,495
1765877482.0869918,495
1765877482.0870001,496
1765877482.0870101,496
1765877482.087019,496
1765877482.0870268,496
1765877482.087035,495
1765877482.087043,496
1765877482.087051,495
1765877482.087059,495
1765877482.087067,495
1765877482.087075,495
1765877482.087084,495
1765877482.0870929,495
1765877482.087101,495
1765877482.087109,495
1765877482.087117,495
1765877482.087125,495
1765877482.087133,495
1765877482.087141,495
1765877482.08715,496
1765877482.087158,495
1765877482.087166,495
1765877482.087174,495
1765877482.087182,495
1765877482.08719,495
1765877482.087198,495
1765877482.0872068,495
1765877482.0872152,495
1765877482.0872252,495
1765877482.087234,495
1765877482.087242,496
1765877482.08725,496
1765877482.087258,496
1765877482.087266,495
1765877482.087274,495
1765877482.087282,495
1765877482.08729,495
1765877482.0872982,495
1765877482.087306,495
1765877482.087314,495
1765877482.087322,495
1765877482.08733,496
1765877482.087339,495
1765877482.087347,495
1765877482.087355,495
1765877482.087363,496
1765877482.087371,496
1765877482.087379,495
1765877482.0873868,495
1765877482.0873952,496
1765877482.087403,495
1765877482.0874119,495
1765877482.08742,495
1765877482.087428,496
1765877482.087436,495
1765877482.087447,495
1765877482.087455,496
1765877482.087463,496
1765877482.087471,496
1765877482.087479,496
1765877482.087488,495
1765877482.087496,496
1765877482.087504,495
1765877482.087512,495
1765877482.08752,496
1765877482.087529,495
1765877482.0875368,495
1765877482.0875452,495
1765877482.087553,495
1765877482.087562,495
1765877482.08757,495
1765877482.087578,496
1765877482.0875862,496
1765877482.087598,496
1765877482.087606,495
1765877482.087614,496
1765877482.087622,495
1765877482.08763,496
1765877482.087638,496
1765877482.087646,495
1765877482.0876548,495
1765877482.0876641,495
1765877482.0876741,495
1765877482.087682,496
1765877482.0876899,496
1765877482.087698,496
1765877482.087706,495
1765877482.087714,495
1765877482.087722,496
1765877482.08773,495
1765877482.087738,495
1765877482.0877461,495
1765877482.087755,495
1765877482.0877628,495
1765877482.087771,496
1765877482.087779,495
1765877482.087787,496
1765877482.087795,495
1765877482.0878038,495
1765877482.0878122,495
1765877482.08782,496
1765877482.087828,495
1765877482.0878358,495
1765877482.0878441,495
1765877482.087852,495
1765877482.0878599,496
1765877482.087868,495
1765877482.087877,495
1765877482.0878878,495
1765877482.087896,495
1765877482.087904,495
1765877482.0879118,495
1765877482.0879202,496
1765877482.087928,496
1765877482.087936,496
1765877482.087944,495
1765877482.0879529,495
1765877482.087965,495
1765877482.087973,496
1765877482.0879822,496
1765877482.08799,496
1765877482.087998,496
1765877482.0880058,496
1765877482.0880141,495
1765877482.088022,496
1765877482.0880299,495
1765877482.088038,495
1765877482.088046,495
1765877482.088054,496
1765877482.088062,495
1765877482.08807,495
1765877482.0880792,496
1765877482.088087,496
1765877482.088095,495
1765877482.088107,495
1765877482.088116,495
1765877482.0881238,496
1765877482.088133,495
1765877482.088141,495
1765877482.088149,495
1765877482.088158,495
1765877482.088166,495
1765877482.088174,495
1765877482.088182,496
1765877482.0881898,495
1765877482.088198,495
1765877482.088206,495
1765877482.088215,496
1765877482.088223,495
1765877482.0882308,495
1765877482.0882392,495
1765877482.088247,495
1765877482.088255,495
1765877482.0882628,495
1765877482.088276,495
1765877482.088284,495
1765877482.0882921,496
1765877482.0883,496
1765877482.0883079,496
1765877482.088316,495
1765877482.088332,495
1765877482.088342,496
1765877482.08835,495
1765877482.088358,495
1765877482.088366,496
1765877482.088374,496
1765877482.088382,496
1765877482.0883892,496
1765877482.088397,495
1765877482.0884092,496
1765877482.088417,495
1765877482.088425,495
1765877482.0884328,495
1765877482.0884411,496
1765877482.08845,495
1765877482.088458,495
1765877482.088466,495
1765877482.088474,496
1765877482.0884821,495
1765877482.08849,496
1765877482.0884979,495
1765877482.0885062,495
1765877482.088514,495
1765877482.088522,496
1765877482.0885298,496
1765877482.0885382,496
1765877482.0885499,496
1765877482.08856,497
1765877482.0885692,497
1765877482.088577,497
1765877482.088585,497
1765877482.088594,496
1765877482.088602,496
1765877482.08861,497
1765877482.088619,497
1765877482.0886269,496
1765877482.088635,497
1765877482.088643,497
1765877482.088651,497
1765877482.088659,496
1765877482.088667,497
1765877482.0886788,496
1765877482.0886872,497
1765877482.088695,496
1765877482.088704,496
1765877482.088712,496
1765877482.0887198,496
1765877482.088728,496
1765877482.088737,496
1765877482.0887449,496
1765877482.088753,496
1765877482.088761,496
1765877482.088769,496
1765877482.088777,496
1765877482.088786,496
1765877482.088799,496
1765877482.0888069,496
1765877482.088814,495
1765877482.0888221,496
1765877482.08883,495
1765877482.0888379,496
1765877482.088846,496
1765877482.088853,496
1765877482.088861,496
1765877482.0888681,496
1765877482.088876,495
1765877482.0888839,496
1765877482.0888908,496
1765877482.0888991,495
1765877482.088906,496
1765877482.088914,495
1765877482.088921,496
1765877482.088929,495
1765877482.0889359,495
1765877482.0889442,495
1765877482.088951,495
1765877482.088966,495
1765877482.088974,496
1765877482.088981,495
1765877482.08899,495
1765877482.0889978,496
1765877482.089005,496
1765877482.089013,496
1765877482.089021,496
1765877482.0890281,495
1765877482.089036,496
1765877482.089043,496
1765877482.0890508,495
1765877482.0890582,495
1765877482.089066,496
1765877482.089074,496
1765877482.089081,495
1765877482.089089,496
1765877482.0890958,496
1765877482.089104,496
1765877482.089111,496
1765877482.089119,496
1765877482.0891259,495
1765877482.089134,496
1765877482.089141,496
1765877482.089149,495
1765877482.0891562,495
1765877482.089164,495
1765877482.089172,496
1765877482.0891788,496
1765877482.0891871,496
1765877482.089194,495
1765877482.089202,496
1765877482.089209,495
1765877482.089217,495
1765877482.0892239,495
1765877482.089232,495
1765877482.08924,495
1765877482.089247,495
1765877482.0892549,495
1765877482.089262,495
1765877482.08927,495
1765877482.089277,495
1765877482.0892851,495
1765877482.089292,495
1765877482.0893,495
1765877482.0893068,496
1765877482.0893152,496
1765877482.089322,496
1765877482.08933,496
1765877482.089337,496
1765877482.089345,496
1765877482.0893528,495
1765877482.0893598,495
1765877482.089368,496
1765877482.089375,495
1765877482.089383,496
1765877482.08939,496
1765877482.089398,495
1765877482.0894048,495
1765877482.0894132,496
1765877482.08942,495
1765877482.089428,495
1765877482.0894349,495
1765877482.089443,495
1765877482.08945,496
1765877482.089469,495
1765877482.0894852,496
1765877482.089493,495
1765877482.089501,495
1765877482.089508,496
1765877482.089516,495
1765877482.089524,495
1765877482.089531,495
1765877482.089539,495
1765877482.089546,495
1765877482.0895538,495
1765877482.0895622,496
1765877482.089569,495
1765877482.089577,496
1765877482.0895848,495
1765877482.089592,495
1765877482.0896,496
1765877482.089607,495
1765877482.089615,495
1765877482.089623,495
1765877482.08963,495
1765877482.089638,495
1765877482.089646,495
1765877482.089653,495
1765877482.089661,495
1765877482.089668,495
1765877482.089685,495
1765877482.089696,495
1765877482.089704,495
1765877482.0897112,495
1765877482.089726,495
1765877482.0897338,495
1765877482.0897422,496
1765877482.089749,495
1765877482.089757,495
1765877482.089765,495
1765877482.089772,495
1765877482.0897799,495
1765877482.0897868,495
1765877482.089795,495
1765877482.089803,495
1765877482.08981,495
1765877482.089818,495
1765877482.089826,495
1765877482.089833,495
1765877482.089841,494
1765877482.089848,495
1765877482.089856,495
1765877482.0898628,495
1765877482.0898712,495
1765877482.089879,495
1765877482.089886,495
1765877482.0898938,495
1765877482.089901,495
1765877482.089909,496
1765877482.089917,495
1765877482.089924,495
1765877482.089932,495
1765877482.0899389,495
1765877482.089947,495
1765877482.0899541,495
1765877482.089962,495
1765877482.0899699,495
1765877482.089977,495
1765877482.0899851,495
1765877482.089992,495
1765877482.09,496
1765877482.090008,495
1765877482.090015,495
1765877482.0900228,495
1765877482.0900302,495
1765877482.090042,495
1765877482.090049,495
1765877482.090057,495
1765877482.0900638,494
1765877482.0900722,495
1765877482.090079,495
1765877482.090087,495
1765877482.090094,495
1765877482.090102,495
1765877482.09011,495
1765877482.0901172,495
1765877482.090125,495
1765877482.090132,495
1765877482.0901399,495
1765877482.090147,495
1765877482.090154,495
1765877482.091022,495
1765877482.0920188,495
1765877482.0930471,494
1765877482.09401,495
1765877482.095022,495
1765877482.0960221,494
1765877482.0970292,495
1765877482.098042,494
1765877482.099058,495
1765877482.100075,495
1765877482.1010618,495
1765877482.102056,494
1765877482.1030579,495
1765877482.104088,495
1765877482.105113,495
1765877482.1061099,495
1765877482.1070778,495
1765877482.1081111,495
1765877482.1091368,495
1765877482.110101,495
1765877482.111076,496
1765877482.1120782,495
1765877482.1130712,495
1765877482.114076,495
1765877482.115096,495
1765877482.116096,495
1765877482.1171079,495
1765877482.118129,495
1765877482.119144,495
1765877482.12013,495
1765877482.121158,495
1765877482.1221418,494
1765877482.123116,495
1765877482.124151,495
1765877482.1251688,495
1765877482.126144,495
1765877482.12713,495
1765877482.1281228,495
1765877482.129118,495
1765877482.130131,495
1765877482.131138,495
1765877482.132131,495
1765877482.133138,495
1765877482.134146,495
1765877482.135179,495
1765877482.136139,495
1765877482.137275,495
1765877482.138263,495
1765877482.139266,495
1765877482.140241,495
1765877482.141236,495
1765877482.142271,496
1765877482.1432781,496
1765877482.1442711,495
1765877482.1452758,495
1765877482.146264,496
1765877482.147269,495
1765877482.148264,495
1765877482.149276,495
1765877482.150265,495
1765877482.151263,495
1765877482.152265,495
1765877482.153283,495
1765877482.1542342,495
1765877482.155228,495
1765877482.156276,495
1765877482.1572428,496
1765877482.158284,495
1765877482.1592698,495
1765877482.160269,495
1765877482.161261,495
1765877482.162238,495
1765877482.163278,495
1765877482.1642659,495
1765877482.165237,495
1765877482.166234,495
1765877482.167271,495
1765877482.1682718,495
1765877482.169298,495
1765877482.1702578,495
1765877482.171247,495
1765877482.172238,495
1765877482.173259,495
1765877482.174256,494
1765877482.175265,495
1765877482.1762629,495
1765877482.1772952,495
1765877482.178258,495
1765877482.17926,495
1765877482.1802812,495
1765877482.18128,495
1765877482.182335,495
1765877482.18327,494
1765877482.1843112,495
1765877482.1853068,495
1765877482.1862981,496
1765877482.187331,496
1765877482.18833,495
1765877482.1892962,495
1765877482.190322,496
1765877482.1913018,495
1765877482.192307,495
1765877482.193333,495
1765877482.194323,495
1765877482.19531,495
1765877482.196351,495
1765877482.19737,495
1765877482.198373,494
1765877482.1993432,495
1765877482.200369,495
1765877482.20137,495
1765877482.2024052,495
1765877482.2034152,496
1765877482.204407,495
1765877482.2053802,495
1765877482.206378,495
1765877482.207412,495
1765877482.208382,495
1765877482.2093608,495
1765877482.210351,495
1765877482.2113512,494
1765877482.212387,495
1765877482.213375,495
1765877482.21438,494
1765877482.215395,495
1765877482.2163892,494
1765877482.217371,495
1765877482.2183838,496
1765877482.21937,495
1765877482.2203882,495
1765877482.2213702,495
1765877482.222395,495
1765877482.223371,495
1765877482.224382,495
1765877482.2254038,495
1765877482.226388,495
1765877482.227393,495
1765877482.22841,495
1765877482.229397,495
1765877482.2303958,495
1765877482.231404,495
1765877482.232394,495
1765877482.233415,495
1765877482.234424,495
1765877482.235428,495
1765877482.236501,495
1765877482.23752,495
1765877482.238501,495
1765877482.239444,495
1765877482.240447,495
1765877482.241457,495
1765877482.2424378,495
1765877482.2434711,495
1765877482.244502,495
1765877482.2454882,495
1765877482.246491,495
1765877482.247454,495
1765877482.2484632,495
1765877482.2494872,496
1765877482.2504818,495
1765877482.251471,495
1765877482.252453,495
1765877482.253461,495
1765877482.254473,495
1765877482.255487,495
1765877482.2564778,495
1765877482.2574852,496
1765877482.258476,496
1765877482.259497,496
1765877482.260479,496
1765877482.2614841,496
1765877482.262497,496
1765877482.263495,496
1765877482.2645051,497
1765877482.265494,497
1765877482.266515,496
1765877482.267508,496
1765877482.268498,497
1765877482.2695081,496
1765877482.270507,496
1765877482.271517,496
1765877482.2725172,497
1765877482.2735271,495
1765877482.274526,495
1765877482.275538,496
1765877482.27652,495
1765877482.277526,495
1765877482.278535,496
1765877482.27954,495
1765877482.28054,495
1765877482.2815511,495
1765877482.2825558,495
1765877482.2835672,496
1765877482.284578,495
1765877482.285567,495
1765877482.286606,495
1765877482.287576,495
1765877482.2885718,495
1765877482.2895832,495
1765877482.2905731,495
1765877482.291575,495
1765877482.2925792,495
1765877482.293586,495
1765877482.294592,495
1765877482.295597,495
1765877482.2966158,494
1765877482.297608,495
1765877482.2986088,495
1765877482.299613,495
1765877482.3006258,495
1765877482.3016388,495
1765877482.302641,495
1765877482.303648,495
1765877482.304668,495
1765877482.305619,496
1765877482.3066182,495
1765877482.307623,495
1765877482.308645,495
1765877482.309641,495
1765877482.310645,495
1765877482.311645,495
1765877482.312642,495
1765877482.3136451,495
1765877482.314646,495
1765877482.315655,495
1765877482.316663,495
1765877482.317697,495
1765877482.318666,495
1765877482.31967,495
1765877482.32068,495
1765877482.321676,495
1765877482.322669,495
1765877482.3236852,495
1765877482.324685,495
1765877482.325689,495
1765877482.3266912,495
1765877482.32776,495
1765877482.32878,495
1765877482.329749,495
1765877482.3307168,495
1765877482.331734,495
1765877482.332719,495
1765877482.33373,495
1765877482.334718,496
1765877482.335721,495
1765877482.336729,495
1765877482.337732,495
1765877482.338727,495
1765877482.339767,495
1765877482.340757,495
1765877482.3417442,495
1765877482.342756,495
1765877482.343738,495
1765877482.344776,495
1765877482.34577,495
1765877482.3467488,495
1765877482.3477492,494
1765877482.34874,495
1765877482.349749,495
1765877482.3507571,495
1765877482.3517492,495
1765877482.352764,495
1765877482.353746,495
1765877482.35477,495
1765877482.355773,495
1765877482.3567731,495
1765877482.3577769,495
1765877482.358793,495
1765877482.359788,495
1765877482.360789,495
1765877482.3617961,495
1765877482.362784,495
1765877482.3638039,495
1765877482.364798,495
1765877482.365802,495
1765877482.3668249,495
1765877482.3678432,495
1765877482.3688588,495
1765877482.369834,495
1765877482.3708742,495
1765877482.371905,495
1765877482.372884,495
1765877482.373869,494
1765877482.3748732,495
1765877482.375817,495
1765877482.376821,495
1765877482.377833,495
1765877482.378865,495
1765877482.379835,495
1765877482.3808482,495
1765877482.3818529,495
1765877482.382842,495
1765877482.383855,495
1765877482.3848882,495
1765877482.385872,494
1765877482.3868768,495
1765877482.387864,495
1765877482.3888562,495
1765877482.389878,495
1765877482.3908858,495
1765877482.3919098,494
1765877482.3928692,495
1765877482.393876,495
1765877482.394902,495
1765877482.395905,495
1765877482.396875,495
1765877482.397898,494
1765877482.398891,495
1765877482.399909,495
1765877482.400903,494
1765877482.4018838,495
1765877482.402905,495
1765877482.4039161,495
1765877482.404934,494
1765877482.405951,494
1765877482.406938,495
1765877482.407949,495
1765877482.4089441,495
1765877482.4099772,494
1765877482.41095,495
1765877482.4120169,494
1765877482.412982,495
1765877482.413957,494
1765877482.414955,495
1765877482.4159749,495
1765877482.416966,495
1765877482.417973,495
1765877482.418955,495
1765877482.4199512,495
1765877482.420945,495
1765877482.421953,495
1765877482.422944,495
1765877482.423949,495
1765877482.42497,495
1765877482.425986,495
1765877482.426964,495
1765877482.427992,495
1765877482.4289799,495
1765877482.429982,495
1765877482.430988,495
1765877482.431987,495
1765877482.432998,494
1765877482.434007,495
1765877482.434992,495
1765877482.435998,495
1765877482.437045,494
1765877482.438064,495
1765877482.4390242,495
1765877482.440017,495
1765877482.4410188,495
1765877482.4420102,495
1765877482.443022,495
1765877482.4440188,495
1765877482.445029,494
1765877482.446035,495
1765877482.4470341,495
1765877482.448052,495
1765877482.4490821,495
1765877482.450054,494
1765877482.451075,495
1765877482.452102,495
1765877482.4531388,495
1765877482.454089,494
1765877482.455093,495
1765877482.45608,495
1765877482.457066,495
1765877482.458057,495
1765877482.459049,495
1765877482.460073,495
1765877482.461065,495
1765877482.462093,495
1765877482.463097,495
1765877482.4640708,495
1765877482.465076,495
1765877482.466132,495
1765877482.467125,495
1765877482.468122,495
1765877482.4690912,495
1765877482.4701152,495
1765877482.4711082,495
1765877482.472088,495
1765877482.473105,495
1765877482.474096,496
1765877482.475102,495
1765877482.476105,495
1765877482.477099,495
1765877482.4781508,495
1765877482.479147,495
1765877482.48013,495
1765877482.4811578,495
1765877482.482152,495
1765877482.4831371,495
1765877482.484125,495
1765877482.485137,495
1765877482.486146,495
1765877482.487147,495
1765877482.488153,495
1765877482.489158,495
1765877482.490151,495
1765877482.4912488,495
1765877482.492148,495
1765877482.4932191,495
1765877482.494163,495
1765877482.4952781,495
1765877482.496259,496
1765877482.49725,495
1765877482.498246,496
1765877482.499248,495
1765877482.5003068,495
1765877482.501333,495
1765877482.5022779,495
1765877482.503268,495
1765877482.5043032,495
1765877482.505284,496
1765877482.506239,495
1765877482.5072691,495
1765877482.508242,495
1765877482.5092359,495
1765877482.5102441,495
1765877482.5112362,495
1765877482.5122461,495
1765877482.51325,495
1765877482.514252,496
1765877482.5152462,496
1765877482.516243,495
1765877482.517248,496
1765877482.518244,495
1765877482.519246,495
1765877482.520245,495
1765877482.521256,496
1765877482.522248,495
1765877482.5232399,495
1765877482.524253,495
1765877482.525238,495
1765877482.5262551,495
1765877482.527246,495
1765877482.528254,495
1765877482.5292668,496
1765877482.530258,495
1765877482.531255,496
1765877482.5322502,495
1765877482.533268,495
1765877482.5342798,496
1765877482.5352871,496
1765877482.5363781,496
1765877482.537317,495
1765877482.538332,495
1765877482.539284,496
1765877482.540298,495
1765877482.5412931,495
1765877482.542285,495
1765877482.5432808,495
1765877482.544298,495
1765877482.5453088,495
1765877482.546308,495
1765877482.547312,495
1765877482.548321,496
1765877482.549323,495
1765877482.550349,495
1765877482.551361,495
1765877482.552336,496
1765877482.553329,495
1765877482.5543292,495
1765877482.5553331,495
1765877482.5563462,496
1765877482.557348,495
1765877482.558335,496
1765877482.559346,495
1765877482.560363,496
1765877482.561345,495
1765877482.562358,495
1765877482.563348,495
1765877482.564358,496
1765877482.5653682,495
1765877482.566376,495
1765877482.567369,496
1765877482.5683699,495
1765877482.5693812,495
1765877482.5703921,495
1765877482.5714262,496
1765877482.572414,496
1765877482.5733829,495
1765877482.574408,495
1765877482.575402,496
1765877482.576436,496
1765877482.577421,497
1765877482.5784152,497
1765877482.5794618,499
1765877482.580426,498
1765877482.581418,497
1765877482.582421,497
1765877482.583425,497
1765877482.584428,495
1765877482.585424,494
1765877482.586415,495
1765877482.5876129,495
1765877482.5884302,495
1765877482.589417,495
1765877482.590442,496
1765877482.591448,496
1765877482.5924401,495
1765877482.59343,494
1765877482.594439,495
1765877482.595455,495
1765877482.596438,496
1765877482.5974379,498
1765877482.598468,499
1765877482.599447,498
1765877482.60045,497
1765877482.601464,495
1765877482.602463,495
1765877482.603484,495
1765877482.604482,495
1765877482.605473,494
1765877482.6064692,494
1765877482.607476,496
1765877482.608475,496
1765877482.609479,498
1765877482.610476,498
1765877482.6114979,498
1765877482.612504,500
1765877482.613485,501
1765877482.6144981,499
1765877482.615485,499
1765877482.61651,496
1765877482.617501,495
1765877482.6185012,496
1765877482.619595,496
1765877482.62053,496
1765877482.62153,497
1765877482.6225338,498
1765877482.623529,497
1765877482.624521,496
1765877482.625525,497
1765877482.626513,497
1765877482.6275358,496
1765877482.628544,497
1765877482.629537,497
1765877482.630543,497
1765877482.631538,496
1765877482.63254,497
1765877482.633549,496
1765877482.634561,497
1765877482.635628,497
1765877482.636587,499
1765877482.63764,500
1765877482.638564,500
1765877482.63956,500
1765877482.640589,499
1765877482.6415958,497
1765877482.6425889,498
1765877482.643591,499
1765877482.644584,498
1765877482.6456032,497
1765877482.6465778,494
1765877482.647573,494
1765877482.648609,496
1765877482.649597,497
1765877482.6505978,497
1765877482.651597,498
1765877482.6526148,498
1765877482.653617,497
1765877482.654627,494
1765877482.6556082,494
1765877482.6566029,497
1765877482.657611,496
1765877482.658602,494
1765877482.659615,496
1765877482.660645,495
1765877482.661708,496
1765877482.662658,501
1765877482.6636438,502
1765877482.664649,504
1765877482.665636,505
1765877482.6666582,501
1765877482.6676428,499
1765877482.6686442,500
1765877482.669648,500
1765877482.670659,500
1765877482.671669,497
1765877482.672661,496
1765877482.673655,496
1765877482.674677,496
1765877482.675681,498
1765877482.676688,495
1765877482.677664,495
1765877482.678675,495
1765877482.6796732,498
1765877482.6806872,497
1765877482.681681,496
1765877482.6826901,495
1765877482.683717,494
1765877482.684691,493
1765877482.685685,492
1765877482.686708,493
1765877482.687708,494
1765877482.6886988,493
1765877482.689718,495
1765877482.690722,494
1765877482.691725,495
1765877482.692723,496
1765877482.693749,497
1765877482.694728,498
1765877482.6957362,500
1765877482.696741,503
1765877482.6977432,506
1765877482.698745,507
1765877482.69975,504
1765877482.700727,494
1765877482.701762,494
1765877482.7027578,497
1765877482.703873,497
1765877482.70484,494
1765877482.705811,493
1765877482.706783,494
1765877482.7078001,495
1765877482.7087748,493
1765877482.709771,496
1765877482.7107809,498
1765877482.7117739,499
1765877482.712778,503
1765877482.713771,507
1765877482.714773,507
1765877482.7157729,506
1765877482.7168,505
1765877482.7177951,496
1765877482.718791,494
1765877482.719844,495
1765877482.72086,489
1765877482.721827,490
1765877482.722825,493
1765877482.723849,496
1765877482.7248461,498
1765877482.725847,499
1765877482.7268329,499
1765877482.727849,501
1765877482.728839,505
1765877482.729841,504
1765877482.730846,507
1765877482.731853,508
1765877482.732827,501
1765877482.733839,495
1765877482.734845,490
1765877482.735841,494
1765877482.736869,498
1765877482.73787,498
1765877482.738862,501
1765877482.739867,505
1765877482.740875,506
1765877482.741905,511
1765877482.7428968,510
1765877482.7439098,510
1765877482.744917,508
1765877482.745943,500
1765877482.746992,492
1765877482.7479181,498
1765877482.748904,497
1765877482.749884,497
1765877482.750889,493
1765877482.7518861,487
1765877482.752882,490
1765877482.753912,494
1765877482.7549171,495
1765877482.755905,495
1765877482.756905,493
1765877482.75793,489
1765877482.75893,491
1765877482.759934,491
1765877482.760937,492
1765877482.761921,491
1765877482.762923,494
1765877482.763932,495
1765877482.764916,496
1765877482.7659461,497
1765877482.766935,498
1765877482.7679439,500
1765877482.768967,499
1765877482.7701042,498
1765877482.7710102,493
1765877482.771999,493
1765877482.772993,493
1765877482.7739708,493
1765877482.7749891,494
1765877482.7759628,495
1765877482.7769458,496
1765877482.777952,495
1765877482.778975,496
1765877482.779979,496
1765877482.780969,495
1765877482.781983,494
1765877482.783072,496
1765877482.78403,499
1765877482.785022,501
1765877482.7860138,500
1765877482.787242,496
1765877482.788073,496
1765877482.789037,496
1765877482.790032,496
1765877482.791017,496
1765877482.792007,496
1765877482.793002,496
1765877482.794009,498
1765877482.7950258,500
1765877482.796043,500
1765877482.7970262,499
1765877482.798017,501
1765877482.799024,499
1765877482.8000581,494
1765877482.8010309,492
1765877482.802061,492
1765877482.8030348,498
1765877482.804053,503
1765877482.8050518,506
1765877482.80607,508
1765877482.807039,505
1765877482.808043,499
1765877482.809045,493
1765877482.810049,492
1765877482.8110662,492
1765877482.8120902,489
1765877482.813072,493
1765877482.814066,492
1765877482.815062,492
1765877482.8160698,495
1765877482.817077,496
1765877482.8180962,497
1765877482.819082,497
1765877482.820081,497
1765877482.8211021,496
1765877482.8220859,495
1765877482.823105,493
1765877482.824102,493
1765877482.825109,494
1765877482.826111,496
1765877482.827141,494
1765877482.828139,498
1765877482.829153,497
1765877482.830157,498
1765877482.831129,501
1765877482.832125,505
1765877482.833144,509
1765877482.8341482,507
1765877482.8351622,497
1765877482.836182,490
1765877482.837166,492
1765877482.838146,492
1765877482.839138,491
1765877482.840148,493
1765877482.841246,493
1765877482.842148,494
1765877482.843154,498
1765877482.844157,500
1765877482.845254,502
1765877482.8462489,503
1765877482.84724,500
1765877482.8482409,493
1765877482.8492491,497
1765877482.8502452,501
1765877482.851242,502
1765877482.852235,500
1765877482.8532522,498
1765877482.8542562,495
1765877482.855264,492
1765877482.85624,491
1765877482.857244,491
1765877482.8582468,492
1765877482.8592498,492
1765877482.86024,493
1765877482.861247,493
1765877482.862261,493
1765877482.863254,493
1765877482.864248,496
1765877482.8652449,498
1765877482.8662531,499
1765877482.86727,503
1765877482.868263,500
1765877482.869283,498
1765877482.8702679,498
1765877482.871265,497
1765877482.872246,490
1765877482.873245,492
1765877482.874241,493
1765877482.875251,494
1765877482.876238,494
1765877482.877256,495
1765877482.878262,495
1765877482.879276,495
1765877482.880267,495
1765877482.88126,495
1765877482.882266,495
1765877482.883282,495
1765877482.88429,495
1765877482.885288,496
1765877482.886304,497
1765877482.887299,498
1765877482.888274,498
1765877482.889279,498
1765877482.890283,497
1765877482.891291,495
1765877482.892288,496
1765877482.893285,496
1765877482.8942971,495
1765877482.8953018,493
1765877482.8963048,493
1765877482.897321,494
1765877482.8983371,494
1765877482.899341,496
1765877482.90033,496
1765877482.9013388,497
1765877482.9023209,499
1765877482.9033651,500
1765877482.904398,499
1765877482.905396,499
1765877482.906355,498
1765877482.907368,493
1765877482.90835,495
1765877482.909379,497
1765877482.910369,497
1765877482.911392,496
1765877482.912514,497
1765877482.913416,497
1765877482.914377,496
1765877482.9153721,496
1765877482.9164019,498
1765877482.9173682,496
1765877482.918389,494
1765877482.91937,494
1765877482.920397,495
1765877482.921393,495
1765877482.922388,495
1765877482.923389,496
1765877482.924386,495
1765877482.925389,496
1765877482.926385,499
1765877482.927382,501
1765877482.928403,497
1765877482.929434,491
1765877482.930432,492
1765877482.931421,494
1765877482.932396,496
1765877482.93341,495
1765877482.934419,496
1765877482.935403,498
1765877482.936426,500
1765877482.937424,503
1765877482.9384372,506
1765877482.939508,504
1765877482.940462,498
1765877482.941476,498
1765877482.942505,496
1765877482.9435039,493
1765877482.944488,491
1765877482.945476,492
1765877482.946489,492
1765877482.947521,494
1765877482.948502,497
1765877482.949514,498
1765877482.950485,498
1765877482.9515378,496
1765877482.95249,495
1765877482.9535291,495
1765877482.9545012,494
1765877482.955462,495
1765877482.956506,494
1765877482.957464,494
1765877482.9584908,493
1765877482.959483,494
1765877482.960515,494
1765877482.96151,494
1765877482.962506,495
1765877482.963501,496
1765877482.9645,497
1765877482.965517,497
1765877482.966536,501
1765877482.9675431,501
1765877482.968617,502
1765877482.969537,499
1765877482.970593,499
1765877482.971568,490
1765877482.9725518,492
1765877482.973533,494
1765877482.974528,495
1765877482.975538,495
1765877482.976546,496
1765877482.977553,497
1765877482.9785511,495
1765877482.979569,495
1765877482.980574,495
1765877482.98157,495
1765877482.982613,493
1765877482.9835908,497
1765877482.984608,500
1765877482.985583,503
1765877482.986639,502
1765877482.987584,500
1765877482.988631,498
1765877482.989573,493
1765877482.99057,498
1765877482.9916182,503
1765877482.992621,504
1765877482.993612,505
1765877482.994747,508
1765877482.9956381,508
1765877482.996591,495
1765877482.9976268,489
1765877482.9986,486
1765877482.999627,488
1765877483.000627,490
1765877483.001655,491
1765877483.0026538,492
1765877483.0036569,493
1765877483.0046542,494
1765877483.005645,494
1765877483.0066502,495
1765877483.007765,497
1765877483.008681,500
1765877483.00964,499
1765877483.010627,494
1765877483.011625,497
1765877483.0126321,497
1765877483.013651,491
1765877483.014653,491
1765877483.015643,492
1765877483.0166469,494
1765877483.01766,494
1765877483.018637,494
1765877483.019671,496
1765877483.020687,497
1765877483.021678,497
1765877483.0226681,496
1765877483.023668,494
1765877483.024676,493
1765877483.025675,495
1765877483.0267022,498
1765877483.027682,501
1765877483.0286899,503
1765877483.029717,503
1765877483.030686,507
1765877483.031709,508
1765877483.0326998,502
1765877483.033731,490
1765877483.0347478,482
1765877483.0358431,489
1765877483.03674,492
1765877483.037739,492
1765877483.0387342,493
1765877483.039758,494
1765877483.040826,493
1765877483.0417652,495
1765877483.042783,495
1765877483.043782,495
1765877483.04476,495
1765877483.0457652,495
1765877483.046762,496
1765877483.047743,497
1765877483.048739,495
1765877483.04975,495
1765877483.050752,496
1765877483.0517561,494
1765877483.05275,494
1765877483.053767,493
1765877483.054776,493
1765877483.0557592,494
1765877483.056779,495
1765877483.057763,496
1765877483.0587678,497
1765877483.059784,497
1765877483.0607831,492
1765877483.061773,493
1765877483.0627909,495
1765877483.063783,497
