timestamp,emg_value
1765877529.982099,494
1765877529.982121,494
1765877529.9821372,493
1765877529.9821508,495
1765877529.982164,497
1765877529.982195,495
1765877529.982208,495
1765877529.9822211,495
1765877529.982233,495
1765877529.982246,495
1765877529.982259,494
1765877529.9822779,495
1765877529.982291,495
1765877529.982304,495
1765877529.9823182,497
1765877529.98233,499
1765877529.982343,498
1765877529.982358,500
1765877529.9823701,499
1765877529.982383,500
1765877529.982396,497
1765877529.982409,493
1765877529.982422,489
1765877529.982435,493
1765877529.9824471,494
1765877529.982471,493
1765877529.9824882,493
1765877529.982503,494
1765877529.982518,494
1765877529.9825332,493
1765877529.982548,494
1765877529.9825642,495
1765877529.982579,495
1765877529.982597,495
1765877529.982612,495
1765877529.9826272,494
1765877529.982642,496
1765877529.9826581,498
1765877529.982673,500
1765877529.982688,499
1765877529.9827042,495
1765877529.982721,492
1765877529.9827368,495
1765877529.982752,494
1765877529.982768,493
1765877529.982783,494
1765877529.982799,493
1765877529.982815,494
1765877529.98283,494
1765877529.9828448,494
1765877529.98286,494
1765877529.982878,494
1765877529.982896,495
1765877529.982913,496
1765877529.9829278,496
1765877529.982943,497
1765877529.982959,498
1765877529.982974,496
1765877529.982989,493
1765877529.9830039,494
1765877529.98302,495
1765877529.9830358,494
1765877529.983051,494
1765877529.9830668,495
1765877529.983082,495
1765877529.98316,495
1765877529.9831748,495
1765877529.98319,495
1765877529.9832058,495
1765877529.983221,495
1765877529.983237,496
1765877529.983252,496
1765877529.983267,496
1765877529.983283,495
1765877529.983298,494
1765877529.983316,495
1765877529.983331,495
1765877529.983362,494
1765877529.983382,496
1765877529.983397,499
1765877529.983413,501
1765877529.983428,502
1765877529.983443,502
1765877529.983459,495
1765877529.983474,492
1765877529.983489,494
1765877529.983505,493
1765877529.98352,492
1765877529.983535,492
1765877529.983551,494
1765877529.983566,495
1765877529.9835808,496
1765877529.983597,496
1765877529.983616,495
1765877529.9836318,494
1765877529.9836469,496
1765877529.9836621,495
1765877529.983677,494
1765877529.9836931,494
1765877529.983708,494
1765877529.983723,494
1765877529.983739,495
1765877529.983754,496
1765877529.9837701,497
1765877529.9837902,502
1765877529.983807,504
1765877529.983823,504
1765877529.983839,498
1765877529.983854,495
1765877529.9838982,490
1765877529.983913,491
1765877529.9839292,493
1765877529.983944,493
1765877529.9839602,493
1765877529.983975,494
1765877529.98399,495
1765877529.984006,494
1765877529.984022,494
1765877529.9840372,494
1765877529.984052,495
1765877529.9840682,494
1765877529.984083,495
1765877529.984098,495
1765877529.984114,495
1765877529.9841301,495
1765877529.984145,496
1765877529.9841611,496
1765877529.9841762,497
1765877529.984192,496
1765877529.984229,496
1765877529.984249,496
1765877529.9842649,495
1765877529.98428,496
1765877529.9842958,495
1765877529.984311,494
1765877529.9843268,493
1765877529.984342,493
1765877529.984357,494
1765877529.984372,494
1765877529.984388,495
1765877529.984403,494
1765877529.9844182,494
1765877529.984434,495
1765877529.98445,495
1765877529.9844658,495
1765877529.984482,495
1765877529.9844968,494
1765877529.984513,495
1765877529.9845278,495
1765877529.984544,495
1765877529.98456,495
1765877529.984575,496
1765877529.98459,494
1765877529.984606,494
1765877529.984621,493
1765877529.984637,495
1765877529.9846559,495
1765877529.984673,495
1765877529.984689,495
1765877529.984705,496
1765877529.9847198,495
1765877529.984736,496
1765877529.9847522,495
1765877529.984767,493
1765877529.984782,495
1765877529.984798,494
1765877529.9848142,494
1765877529.984829,494
1765877529.9848452,496
1765877529.984861,497
1765877529.984876,497
1765877529.984891,496
1765877529.984907,493
1765877529.984923,496
1765877529.984939,497
1765877529.9849548,497
1765877529.98497,497
1765877529.984986,495
1765877529.9850008,495
1765877529.985017,495
1765877529.9850318,494
1765877529.985048,494
1765877529.985066,494
1765877529.9850829,495
1765877529.985099,495
1765877529.985114,497
1765877529.98513,496
1765877529.985145,493
1765877529.985161,494
1765877529.985176,494
1765877529.9851918,495
1765877529.985207,495
1765877529.9852228,496
1765877529.985238,497
1765877529.9852538,500
1765877529.98527,502
1765877529.985285,502
1765877529.9853,497
1765877529.985316,492
1765877529.985331,491
1765877529.985347,495
1765877529.9853618,494
1765877529.985378,493
1765877529.9853928,495
1765877529.985409,495
1765877529.985425,496
1765877529.985441,495
1765877529.9854562,495
1765877529.985471,493
1765877529.985494,495
1765877529.9855092,494
1765877529.985524,494
1765877529.985549,496
1765877529.985565,497
1765877529.9855812,497
1765877529.985596,495
1765877529.985612,496
1765877529.985627,496
1765877529.985643,492
1765877529.9856582,495
1765877529.985674,496
1765877529.9856892,495
1765877529.985705,494
1765877529.9857202,495
1765877529.985736,496
1765877529.9857621,497
1765877529.9857779,496
1765877529.9857988,496
1765877529.985815,494
1765877529.985831,495
1765877529.985846,494
1765877529.9858618,494
1765877529.985877,496
1765877529.985893,498
1765877529.985909,498
1765877529.9859278,498
1765877529.985944,497
1765877529.9859571,496
1765877529.98597,497
1765877529.985984,499
1765877529.985997,498
1765877529.98601,495
1765877529.986023,495
1765877529.986036,496
1765877529.986049,497
1765877529.986062,497
1765877529.986075,498
1765877529.986088,497
1765877529.986101,497
1765877529.986115,498
1765877529.9861279,496
1765877529.986141,492
1765877529.986154,495
1765877529.986167,495
1765877529.98618,494
1765877529.986193,493
1765877529.986207,495
1765877529.9862201,494
1765877529.986233,496
1765877529.9862459,497
1765877529.986258,497
1765877529.9862761,496
1765877529.986288,495
1765877529.986301,495
1765877529.986314,493
1765877529.986327,494
1765877529.98634,496
1765877529.986353,497
1765877529.986366,496
1765877529.986378,495
1765877529.986391,494
1765877529.9864042,495
1765877529.9864168,496
1765877529.98643,495
1765877529.986443,493
1765877529.9864562,493
1765877529.986468,494
1765877529.986481,495
1765877529.986494,496
1765877529.986507,495
1765877529.986519,496
1765877529.9865391,498
1765877529.986552,497
1765877529.9865642,497
1765877529.986578,496
1765877529.98659,493
1765877529.986603,494
1765877529.98662,496
1765877529.986633,496
1765877529.986646,495
1765877529.986658,495
1765877529.9866712,495
1765877529.9866838,495
1765877529.986697,493
1765877529.9867148,494
1765877529.986728,496
1765877529.986741,497
1765877529.986754,497
1765877529.986766,498
1765877529.986779,499
1765877529.9867918,498
1765877529.986805,495
1765877529.986818,494
1765877529.98683,493
1765877529.9868429,494
1765877529.986856,497
1765877529.986869,497
1765877529.986888,495
1765877529.986901,494
1765877529.9869142,495
1765877529.986927,494
1765877529.986939,493
1765877529.9869518,495
1765877529.986968,495
1765877529.9869819,494
1765877529.986995,495
1765877529.987008,494
1765877529.9870222,495
1765877529.9870348,495
1765877529.987048,495
1765877529.987062,496
1765877529.9870741,496
1765877529.987087,495
1765877529.9871,497
1765877529.987155,498
1765877529.9871721,498
1765877529.987186,497
1765877529.9872,497
1765877529.9872131,498
1765877529.987228,497
1765877529.987241,499
1765877529.987254,499
1765877529.987267,500
1765877529.98728,496
1765877529.987293,496
1765877529.9873059,493
1765877529.987318,490
1765877529.9873312,493
1765877529.9873438,495
1765877529.987361,496
1765877529.987375,495
1765877529.987421,494
1765877529.987438,494
1765877529.9874518,494
1765877529.987466,494
1765877529.987479,494
1765877529.987492,495
1765877529.987506,495
1765877529.987519,495
1765877529.9875321,496
1765877529.987545,496
1765877529.987558,496
1765877529.987572,494
1765877529.987586,495
1765877529.9875991,495
1765877529.987612,495
1765877529.987625,495
1765877529.987638,494
1765877529.987651,494
1765877529.987665,495
1765877529.987678,496
1765877529.987691,496
1765877529.987704,495
1765877529.9877172,495
1765877529.9877481,495
1765877529.987762,496
1765877529.9877791,497
1765877529.987793,497
1765877529.987807,496
1765877529.9878201,495
1765877529.987833,494
1765877529.9878552,493
1765877529.987869,494
1765877529.987882,496
1765877529.987894,496
1765877529.9879072,498
1765877529.987916,500
1765877529.9879239,498
1765877529.987933,496
1765877529.987942,494
1765877529.987951,494
1765877529.98796,495
1765877529.987969,495
1765877529.987978,494
1765877529.987989,496
1765877529.988003,495
1765877529.988012,494
1765877529.988021,492
1765877529.988031,492
1765877529.988039,494
1765877529.9880488,495
1765877529.9880571,496
1765877529.988075,498
1765877529.988085,498
1765877529.988093,499
1765877529.988102,499
1765877529.988111,495
1765877529.98812,494
1765877529.9881291,497
1765877529.988138,496
1765877529.988152,496
1765877529.988162,497
1765877529.988171,495
1765877529.98818,494
1765877529.988189,494
1765877529.9881978,496
1765877529.988207,495
1765877529.9882162,495
1765877529.988225,495
1765877529.988234,497
1765877529.9882429,498
1765877529.988252,498
1765877529.9882612,498
1765877529.98827,491
1765877529.988279,493
1765877529.988288,495
1765877529.988297,494
1765877529.9883049,494
1765877529.988321,495
1765877529.988331,495
1765877529.98834,495
1765877529.988349,495
1765877529.9883578,495
1765877529.988367,494
1765877529.9883761,497
1765877529.988385,498
1765877529.988396,498
1765877529.988405,498
1765877529.988414,496
1765877529.9884229,495
1765877529.9884312,497
1765877529.98844,497
1765877529.988449,495
1765877529.988458,494
1765877529.988467,494
1765877529.9884758,494
1765877529.988485,494
1765877529.988493,494
1765877529.988502,494
1765877529.988511,495
1765877529.98852,494
1765877529.988529,494
1765877529.988538,495
1765877529.988547,494
1765877529.988641,495
1765877529.9886699,496
1765877529.988689,497
1765877529.988705,498
1765877529.988755,496
1765877529.988769,495
1765877529.988779,497
1765877529.988789,500
1765877529.988798,500
1765877529.988807,500
1765877529.9888158,497
1765877529.988825,494
1765877529.988835,496
1765877529.988845,495
1765877529.988854,493
1765877529.988863,492
1765877529.988872,492
1765877529.9888809,493
1765877529.9888902,493
1765877529.9889002,493
1765877529.988909,493
1765877529.988918,494
1765877529.988927,495
1765877529.988936,495
1765877529.988945,495
1765877529.9889548,495
1765877529.988964,494
1765877529.988978,495
1765877529.988987,496
1765877529.988996,497
1765877529.989005,501
1765877529.989014,505
1765877529.989023,505
1765877529.989032,499
1765877529.9890409,495
1765877529.9890501,492
1765877529.989059,493
1765877529.989068,491
1765877529.989077,491
1765877529.989086,493
1765877529.989095,494
1765877529.989104,495
1765877529.989113,495
1765877529.9891222,495
1765877529.989132,495
1765877529.989141,495
1765877529.98915,495
1765877529.9891598,495
1765877529.989169,495
1765877529.9891782,495
1765877529.989187,495
1765877529.989196,495
1765877529.989206,495
1765877529.989217,495
1765877529.989227,495
1765877529.9892359,495
1765877529.989245,495
1765877529.989254,495
1765877529.989263,495
1765877529.989272,495
1765877529.989281,495
1765877529.98929,495
1765877529.989299,495
1765877529.9893079,495
1765877529.9893172,496
1765877529.989326,495
1765877529.989335,495
1765877529.989344,495
1765877529.989353,495
1765877529.989362,494
1765877529.9893708,494
1765877529.9893801,495
1765877529.9893901,496
1765877529.989399,496
1765877529.989408,496
1765877529.989417,496
1765877529.989426,495
1765877529.989435,496
1765877529.989444,495
1765877529.98946,495
1765877529.989471,496
1765877529.98948,495
1765877529.989496,494
1765877529.989505,495
1765877529.9895139,495
1765877529.989523,497
1765877529.989533,497
1765877529.9895418,494
1765877529.989551,496
1765877529.9895601,495
1765877529.989569,493
1765877529.989578,493
1765877529.9895868,495
1765877529.989596,496
1765877529.989611,496
1765877529.98962,496
1765877529.98963,496
1765877529.9896388,495
1765877529.9896479,495
1765877529.9896572,493
1765877529.989666,494
1765877529.989676,495
1765877529.989685,494
1765877529.9896939,494
1765877529.989703,494
1765877529.9897118,494
1765877529.9897301,495
1765877529.989739,495
1765877529.9897542,494
1765877529.989763,496
1765877529.989772,496
1765877529.989781,496
1765877529.98979,495
1765877529.989799,494
1765877529.989808,495
1765877529.9898171,495
1765877529.989826,495
1765877529.989835,496
1765877529.989844,497
1765877529.989853,498
1765877529.989862,499
1765877529.989871,497
1765877529.98988,494
1765877529.989889,493
1765877529.989898,493
1765877529.989907,493
1765877529.9899158,494
1765877529.9899251,494
1765877529.989934,494
1765877529.989943,493
1765877529.989952,494
1765877529.989961,495
1765877529.9899762,496
1765877529.989988,497
1765877529.9899971,496
1765877529.990006,496
1765877529.990015,496
1765877529.990025,497
1765877529.9900339,499
1765877529.990043,500
1765877529.990051,500
1765877529.99006,496
1765877529.990069,492
1765877529.990078,497
1765877529.9900868,498
1765877529.9900959,496
1765877529.9901052,496
1765877529.9901152,495
1765877529.990124,493
1765877529.990133,495
1765877529.9901419,495
1765877529.990151,495
1765877529.990161,495
1765877529.99017,496
1765877529.990179,495
1765877529.9901881,496
1765877529.9902039,495
1765877529.9902132,496
1765877529.9902349,496
1765877529.990245,496
1765877529.9902542,496
1765877529.990263,496
1765877529.990272,495
1765877529.9902809,494
1765877529.99029,495
1765877529.990299,495
1765877529.990308,495
1765877529.990317,495
1765877529.990326,496
1765877529.990335,495
1765877529.990345,494
1765877529.9903538,495
1765877529.990363,495
1765877529.9903722,495
1765877529.990381,495
1765877529.99039,495
1765877529.990399,494
1765877529.990408,495
1765877529.990417,495
1765877529.9904268,495
1765877529.990436,496
1765877529.9904451,497
1765877529.990454,496
1765877529.990463,494
1765877529.9904718,494
1765877529.990486,495
1765877529.990495,494
1765877529.990504,494
1765877529.9905128,494
1765877529.9905221,494
1765877529.990531,494
1765877529.99054,495
1765877529.99055,495
1765877529.9905589,495
1765877529.990568,495
1765877529.990577,494
1765877529.990586,494
1765877529.990596,495
1765877529.990605,494
1765877529.990614,497
1765877529.990623,497
1765877529.9906318,497
1765877529.9906409,497
1765877529.990651,496
1765877529.9906602,494
1765877529.990669,494
1765877529.990688,494
1765877529.990707,495
1765877529.990726,494
1765877529.990749,494
1765877529.990769,494
1765877529.990795,495
1765877529.990814,495
1765877529.990825,495
1765877529.990834,495
1765877529.990844,495
1765877529.990853,495
1765877529.9908621,494
1765877529.990871,495
1765877529.99088,495
1765877529.990889,495
1765877529.9908988,495
1765877529.990908,496
1765877529.9909172,497
1765877529.990926,496
1765877529.990935,494
1765877529.990944,494
1765877529.990953,494
1765877529.990962,494
1765877529.9909718,494
1765877529.990981,494
1765877529.9909902,494
1765877529.990999,494
1765877529.991008,494
1765877529.9910169,495
1765877529.991026,495
1765877529.991035,495
1765877529.991046,495
1765877529.991057,495
1765877529.9910662,494
1765877529.991075,495
1765877529.991084,495
1765877529.991093,495
1765877529.991102,495
1765877529.9911108,495
1765877529.9911199,493
1765877529.9911292,492
1765877529.991138,491
1765877529.991147,491
1765877529.9911559,493
1765877529.991165,495
1765877529.991174,495
1765877529.991183,496
1765877529.991192,496
1765877529.991201,495
1765877529.99121,496
1765877529.991219,495
1765877529.9912279,495
1765877529.9912372,496
1765877529.991246,495
1765877529.991256,494
1765877529.991265,494
1765877529.9912739,492
1765877529.991282,494
1765877529.9912949,495
1765877529.991304,495
1765877529.991313,494
1765877529.991322,494
1765877529.991331,494
1765877529.991341,495
1765877529.99135,496
1765877529.991359,496
1765877529.9913678,496
1765877529.9913769,496
1765877529.9913862,497
1765877529.9913962,497
1765877529.991405,496
1765877529.991414,497
1765877529.991423,494
1765877529.991432,496
1765877529.991441,497
1765877529.99145,495
1765877529.9914591,494
1765877529.991468,495
1765877529.991478,494
1765877529.991487,494
1765877529.9914958,493
1765877529.991505,494
1765877529.991515,495
1765877529.991524,495
1765877529.9915352,495
1765877529.9915462,495
1765877529.991555,495
1765877529.991564,495
1765877529.991574,494
1765877529.9915829,494
1765877529.991592,493
1765877529.991601,493
1765877529.99161,494
1765877529.991619,494
1765877529.991628,496
1765877529.991637,496
1765877529.991646,496
1765877529.9916549,494
1765877529.991665,494
1765877529.9916742,495
1765877529.991683,496
1765877529.991692,496
1765877529.991701,495
1765877529.99171,495
1765877529.991719,496
1765877529.991728,495
1765877529.9917371,495
1765877529.991746,496
1765877529.991755,495
1765877529.991764,495
1765877529.991776,495
1765877529.991787,495
1765877529.991796,494
1765877529.9918048,494
1765877529.991866,494
1765877529.991894,495
1765877529.991909,494
1765877529.9919229,496
1765877529.991936,495
1765877529.9919481,494
1765877529.991961,495
1765877529.9919739,495
1765877529.991986,495
1765877529.991999,495
1765877529.992011,495
1765877529.992023,495
1765877529.9920352,495
1765877529.992047,495
1765877529.99206,495
1765877529.992073,494
1765877529.992086,495
1765877529.992098,495
1765877529.99211,494
1765877529.992123,495
1765877529.9921348,494
1765877529.992148,494
1765877529.99216,495
1765877529.9921868,495
1765877529.9922,495
1765877529.992212,495
1765877529.992231,495
1765877529.992247,495
1765877529.992259,494
1765877529.992272,495
1765877529.9922838,495
1765877529.992296,496
1765877529.992308,495
1765877529.99232,495
1765877529.992332,495
1765877529.992345,493
1765877529.992357,494
1765877529.992369,494
1765877529.9923809,495
1765877529.992394,495
1765877529.9924061,495
1765877529.992418,494
1765877529.99243,495
1765877529.9924421,494
1765877529.992455,495
1765877529.992467,494
1765877529.99248,495
1765877529.992492,495
1765877529.992506,495
1765877529.992534,494
1765877529.992546,495
1765877529.9925592,495
1765877529.9925718,494
1765877529.992584,494
1765877529.992597,495
1765877529.992609,495
1765877529.992621,494
1765877529.992633,495
1765877529.992645,494
1765877529.992658,494
1765877529.99267,493
1765877529.992686,495
1765877529.992699,495
1765877529.992712,495
1765877529.992724,495
1765877529.992736,494
1765877529.992748,495
1765877529.9927611,494
1765877529.992773,494
1765877529.992785,495
1765877529.992797,495
1765877529.99281,495
1765877529.992822,494
1765877529.992834,495
1765877529.9928489,495
1765877529.992865,495
1765877529.9928782,494
1765877529.9928901,494
1765877529.9929018,494
1765877529.992914,494
1765877529.992927,494
1765877529.992939,495
1765877529.9929512,495
1765877529.992963,494
1765877529.992975,494
1765877529.992987,494
1765877529.993,494
1765877529.9930172,494
1765877529.9930298,495
1765877529.993042,495
1765877529.993054,495
1765877529.993066,494
1765877529.993079,494
1765877529.993091,495
1765877529.993103,495
1765877529.993115,495
1765877529.9931269,495
1765877529.993163,494
1765877529.993175,494
1765877529.9931872,494
1765877529.993203,494
1765877529.993215,494
1765877529.993231,495
1765877529.993243,495
1765877529.9932559,494
1765877529.993268,494
1765877529.99328,494
1765877529.993292,494
1765877529.993304,494
1765877529.9933162,495
1765877529.993328,495
1765877529.99334,495
1765877529.993353,494
1765877529.9933681,495
1765877529.99338,494
1765877529.9933922,495
1765877529.993404,494
1765877529.9934158,494
1765877529.993428,495
1765877529.99344,495
1765877529.993452,494
1765877529.993464,495
1765877529.9934762,495
1765877529.9934888,494
1765877529.993502,495
1765877529.993514,495
1765877529.9935281,495
1765877529.993579,496
1765877529.9935942,495
1765877529.9936068,494
1765877529.993619,494
1765877529.993632,493
1765877529.993644,494
1765877529.993657,493
1765877529.993669,494
1765877529.9936829,494
1765877529.993696,494
1765877529.993711,494
1765877529.993723,494
1765877529.9937348,495
1765877529.993747,494
1765877529.99376,495
1765877529.993772,495
1765877529.9937851,494
1765877529.9937978,494
1765877529.99383,494
1765877529.9938529,494
1765877529.993865,494
1765877529.99388,495
1765877529.9938922,495
1765877529.993904,495
1765877529.9939158,494
1765877529.9939399,494
1765877529.993953,494
1765877529.9939651,494
1765877529.993977,495
1765877529.9939892,495
1765877529.994001,495
1765877529.9940128,495
1765877529.994025,495
1765877529.994037,494
1765877529.994048,494
1765877529.99406,495
1765877529.994072,494
1765877529.9940832,495
1765877529.994095,496
1765877529.9941068,495
1765877529.994118,496
1765877529.99413,497
1765877529.9941409,495
1765877529.994153,496
1765877529.994165,495
1765877529.994176,495
1765877529.994188,496
1765877529.9942,495
1765877529.9942122,495
1765877529.994226,495
1765877529.994241,496
1765877529.9942558,495
1765877529.994271,495
1765877529.994284,496
1765877529.9942951,494
1765877529.994307,495
1765877529.994318,495
1765877529.994331,495
1765877529.994345,495
1765877529.994359,494
1765877529.9943721,494
1765877529.994386,495
1765877529.9944,495
1765877529.9944131,494
1765877529.994425,495
1765877529.9944372,494
1765877529.994449,494
1765877529.9944608,495
1765877529.994473,495
1765877529.994484,496
1765877529.994496,495
1765877529.994507,495
1765877529.994519,494
1765877529.9945312,495
1765877529.9945421,494
1765877529.994554,494
1765877529.994566,494
1765877529.9945788,494
1765877529.994594,494
1765877529.9946072,495
1765877529.994619,494
1765877529.9946308,494
1765877529.994647,495
1765877529.9946592,495
1765877529.9946702,495
1765877529.994682,494
1765877529.994694,494
1765877529.9947069,494
1765877529.994721,494
1765877529.994733,494
1765877529.994745,495
1765877529.9947572,494
1765877529.9947698,494
1765877529.994782,494
1765877529.994795,494
1765877529.994808,495
1765877529.99482,495
1765877529.994834,496
1765877529.994848,495
1765877529.9948611,495
1765877529.994874,495
1765877529.994886,495
1765877529.9948978,495
1765877529.994922,494
1765877529.994935,495
1765877529.994947,495
1765877529.9949608,494
1765877529.994973,494
1765877529.9949849,494
1765877529.994998,495
1765877529.9950101,495
1765877529.995022,495
1765877529.9950342,495
1765877529.995046,494
1765877529.995059,494
1765877529.995071,494
1765877529.995083,494
1765877529.995095,495
1765877529.9951072,495
1765877529.99512,495
1765877529.995132,495
1765877529.995144,495
1765877529.995156,495
1765877529.995169,495
1765877529.995181,495
1765877529.9952042,495
1765877529.9952462,495
1765877529.99526,494
1765877529.9952729,495
1765877529.99529,495
1765877529.995305,494
1765877529.995317,494
1765877529.99533,494
1765877529.9953432,494
1765877529.9953558,496
1765877529.995369,496
1765877529.9953809,494
1765877529.995394,495
1765877529.9954062,494
1765877529.9954188,494
1765877529.995431,495
1765877529.9954429,495
1765877529.995455,495
1765877529.9954681,494
1765877529.99548,495
1765877529.9954948,495
1765877529.995508,495
1765877529.99552,494
1765877529.995533,495
1765877529.9955451,495
1765877529.995557,495
1765877529.995569,495
1765877529.995581,495
1765877529.995593,495
1765877529.995605,495
1765877529.99562,495
1765877529.9956322,495
1765877529.995645,495
1765877529.995657,494
1765877529.995669,495
1765877529.995681,495
1765877529.995701,495
1765877529.995714,495
1765877529.995726,495
1765877529.995738,495
1765877529.99575,495
1765877529.9957619,495
1765877529.995775,495
1765877529.995787,494
1765877529.995838,495
1765877529.995865,495
1765877529.995882,495
1765877529.995897,495
1765877529.995913,495
1765877529.995929,495
1765877529.995944,495
1765877529.995959,494
1765877529.995975,495
1765877529.99599,495
1765877529.9960058,495
1765877529.996021,495
1765877529.996041,496
1765877529.9960582,495
1765877529.996073,495
1765877529.996089,495
1765877529.996105,494
1765877529.99612,495
1765877529.996136,495
1765877529.996151,495
1765877529.996167,495
1765877529.996182,494
1765877529.996198,494
1765877529.996213,494
1765877529.9962292,495
1765877529.996244,495
1765877529.9962602,495
1765877529.996275,496
1765877529.9962912,496
1765877529.996306,496
1765877529.996321,496
1765877529.996337,496
1765877529.996352,495
1765877529.996368,494
1765877529.996383,495
1765877529.9963992,495
1765877529.996415,495
1765877529.9964302,495
1765877529.996448,495
1765877529.996465,495
1765877529.996481,493
1765877529.9964979,495
1765877529.9965131,494
1765877529.9965289,494
1765877529.996545,495
1765877529.9965599,495
1765877529.9965749,494
1765877529.996591,494
1765877529.9966059,494
1765877529.996622,496
1765877529.9966369,495
1765877529.9966521,496
1765877529.9966679,494
1765877529.9966831,494
1765877529.9966989,493
1765877529.9967139,494
1765877529.9967291,495
1765877529.9967449,496
1765877529.9967601,496
1765877529.996775,497
1765877529.9967911,496
1765877529.996806,495
1765877529.996822,495
1765877529.9968371,496
1765877529.996855,495
1765877529.996871,495
1765877529.996887,496
1765877529.996903,495
1765877529.996918,494
1765877529.996934,496
1765877529.996949,495
1765877529.9969652,495
1765877529.99698,495
1765877529.9969962,495
1765877529.997012,495
1765877529.9970272,496
1765877529.997043,496
1765877529.9970582,496
1765877529.997073,495
1765877529.997088,495
1765877529.997142,495
1765877529.997159,495
1765877529.997175,495
1765877529.997191,495
1765877529.997206,495
1765877529.997222,495
1765877529.997237,495
1765877529.9972532,496
1765877529.99727,495
1765877529.9972858,495
1765877529.997304,495
1765877529.997322,496
1765877529.997337,496
1765877529.997353,495
1765877529.997368,495
1765877529.9973829,496
1765877529.997399,495
1765877529.9974139,494
1765877529.997429,495
1765877529.997445,496
1765877529.99746,496
1765877529.997476,496
1765877529.997492,495
1765877529.997507,495
1765877529.9975228,494
1765877529.997538,495
1765877529.9975538,495
1765877529.997569,495
1765877529.9975839,495
1765877529.9976,496
1765877529.997615,495
1765877529.99763,495
1765877529.997646,495
1765877529.9976609,496
1765877529.997677,495
1765877529.9976928,495
1765877529.9977129,495
1765877529.997731,495
1765877529.997746,496
1765877529.997762,495
1765877529.997778,495
1765877529.997793,495
1765877529.997809,495
1765877529.997824,495
1765877529.99784,495
1765877529.997855,495
1765877529.99787,495
1765877529.997886,495
1765877529.997901,494
1765877529.997916,496
1765877529.997932,496
1765877529.997948,496
1765877529.997963,495
1765877529.9979782,495
1765877529.997994,496
1765877529.9980092,495
1765877529.998025,496
1765877529.99804,495
1765877529.998056,495
1765877529.998071,495
1765877529.998087,495
1765877529.998102,495
1765877529.9981198,495
1765877529.998137,496
1765877529.998153,496
1765877529.9981692,495
1765877529.998185,496
1765877529.998197,495
1765877529.998208,495
1765877529.99822,495
1765877529.998231,495
1765877529.9982421,495
1765877529.998253,495
1765877529.998264,495
1765877529.998276,496
1765877529.9982872,495
1765877529.9982982,495
1765877529.9983099,495
1765877529.9983208,495
1765877529.9983318,495
1765877529.998344,495
1765877529.998355,495
1765877529.9983659,496
1765877529.998378,495
1765877529.998389,495
1765877529.9984,496
1765877529.998411,496
1765877529.998422,496
1765877529.9984362,496
1765877529.9984472,495
1765877529.9984589,496
1765877529.9984698,495
1765877529.9984808,495
1765877529.998493,495
1765877529.998504,495
1765877529.998516,495
1765877529.998527,496
1765877529.998539,496
1765877529.99855,496
1765877529.998561,495
1765877529.998572,495
1765877529.998584,496
1765877529.998595,495
1765877529.998606,496
1765877529.9986181,496
1765877529.9986298,496
1765877529.998641,496
1765877529.998652,495
1765877529.99868,495
1765877529.998723,496
1765877529.9987352,495
1765877529.9987462,495
1765877529.9987571,495
1765877529.998768,496
1765877529.998781,496
1765877529.998794,496
1765877529.998806,496
1765877529.998817,496
1765877529.998828,496
1765877529.99884,496
1765877529.998851,495
1765877529.998862,495
1765877529.9988742,496
1765877529.9988852,496
1765877529.9988961,496
1765877529.9989069,496
1765877529.9989178,496
1765877529.99893,496
1765877529.998941,496
1765877529.998952,495
1765877529.9989629,495
1765877529.9989738,495
1765877529.998985,496
1765877529.998996,496
1765877529.999007,495
1765877529.999018,495
1765877529.999029,495
1765877529.99904,496
1765877529.999052,496
1765877529.999063,497
1765877529.999074,497
1765877529.999088,497
1765877529.9990988,497
1765877529.99911,498
1765877529.999121,497
1765877529.999132,496
1765877529.999143,497
1765877529.9991539,497
1765877529.999166,497
1765877529.999177,497
1765877529.999188,496
1765877529.999199,497
1765877529.99921,496
1765877529.999221,496
1765877529.999232,496
1765877529.999243,495
1765877529.999254,495
1765877529.999265,496
1765877529.999276,495
1765877529.9992871,496
1765877529.999298,496
1765877529.999309,496
1765877529.99932,496
1765877529.999331,496
1765877529.999342,496
1765877529.9993532,496
1765877529.9993641,496
1765877529.9993799,496
1765877529.999392,495
1765877529.999404,496
1765877529.999415,496
1765877529.9994261,496
1765877529.9994361,495
1765877529.999447,496
1765877529.999458,495
1765877529.999469,494
1765877529.9994812,493
1765877529.9994922,494
1765877529.9995031,494
1765877529.999514,494
1765877529.999525,494
1765877529.999572,495
1765877529.999677,495
1765877529.9996932,494
1765877529.999706,494
1765877529.999736,496
1765877529.9997509,494
1765877529.999763,495
1765877529.999775,494
1765877529.999786,494
1765877529.999817,494
1765877529.9999201,495
1765877530.000022,495
1765877530.0000792,494
1765877530.000096,494
1765877530.000109,494
1765877530.000122,495
1765877530.000134,494
1765877530.0001578,494
1765877530.000198,494
1765877530.0002098,495
1765877530.000222,494
1765877530.000233,494
1765877530.000244,494
1765877530.0002549,494
1765877530.000267,494
1765877530.000278,494
1765877530.000289,494
1765877530.0003,494
1765877530.000312,494
1765877530.000323,494
1765877530.000334,494
1765877530.000345,494
1765877530.0003572,495
1765877530.000368,495
1765877530.0003788,496
1765877530.000391,495
1765877530.000402,495
1765877530.000413,495
1765877530.000427,496
1765877530.0004401,496
1765877530.000452,495
1765877530.000463,495
1765877530.0004742,496
1765877530.000486,496
1765877530.0004969,495
1765877530.0005078,494
1765877530.0005188,494
1765877530.000531,494
1765877530.000542,494
1765877530.000553,494
1765877530.0005639,494
1765877530.000575,494
1765877530.000586,494
1765877530.000597,494
1765877530.000609,494
1765877530.0006201,495
1765877530.000631,494
1765877530.000642,494
1765877530.000654,495
1765877530.0006652,495
1765877530.0006762,496
1765877530.000688,496
1765877530.0006988,496
1765877530.0007098,496
1765877530.000724,496
1765877530.000737,496
1765877530.000748,496
1765877530.0007591,496
1765877530.00077,496
1765877530.000781,497
1765877530.000792,496
1765877530.000803,496
1765877530.000814,496
1765877530.0008261,496
1765877530.000837,495
1765877530.0008478,495
1765877530.0008588,495
1765877530.00087,495
1765877530.000881,495
1765877530.0008929,496
1765877530.0009038,495
1765877530.000915,496
1765877530.000926,496
1765877530.000937,496
1765877530.000951,495
1765877530.000962,495
1765877530.000973,496
1765877530.000984,495
1765877530.0009952,496
1765877530.0010061,496
1765877530.00102,496
1765877530.0010319,496
1765877530.001044,496
1765877530.001055,495
1765877530.001066,495
1765877530.001077,496
1765877530.001088,496
1765877530.001099,496
1765877530.001111,496
1765877530.001122,496
1765877530.001133,496
1765877530.0011451,496
1765877530.001157,496
1765877530.001169,496
1765877530.00118,495
1765877530.0011919,496
1765877530.001203,496
1765877530.001214,496
1765877530.001226,495
1765877530.001237,496
1765877530.001248,496
1765877530.00126,496
1765877530.001271,496
1765877530.001282,496
1765877530.001293,496
1765877530.0013041,496
1765877530.001316,495
1765877530.00133,496
1765877530.001342,496
1765877530.001353,496
1765877530.001364,496
1765877530.001375,496
1765877530.0013871,496
1765877530.001398,496
1765877530.001436,496
1765877530.001448,496
1765877530.001459,497
1765877530.001471,497
1765877530.001482,496
1765877530.001493,495
1765877530.001504,495
1765877530.001515,495
1765877530.001527,495
1765877530.001538,495
1765877530.001549,496
1765877530.00156,496
1765877530.0015721,496
1765877530.001583,496
1765877530.001594,496
1765877530.001606,496
1765877530.001617,496
1765877530.0016289,496
1765877530.0016398,496
1765877530.001655,496
1765877530.001667,495
1765877530.001678,495
1765877530.0016892,496
1765877530.001701,495
1765877530.001712,496
1765877530.0017228,496
1765877530.001735,495
1765877530.001746,497
1765877530.001757,498
1765877530.0017679,497
1765877530.00178,495
1765877530.001791,495
1765877530.001802,496
1765877530.001813,496
1765877530.001825,496
1765877530.001836,496
1765877530.001848,496
1765877530.0018592,496
1765877530.0018702,496
1765877530.001882,496
1765877530.001893,496
1765877530.001904,497
1765877530.001915,496
1765877530.001926,497
1765877530.0019379,496
1765877530.001951,496
1765877530.001964,496
1765877530.0019882,495
1765877530.0019991,495
1765877530.0020108,495
1765877530.0020218,495
1765877530.002034,495
1765877530.002045,496
1765877530.002056,495
1765877530.0020669,495
1765877530.002078,495
1765877530.00209,495
1765877530.002101,495
1765877530.002112,495
1765877530.002123,495
1765877530.002144,496
1765877530.002155,496
1765877530.002167,498
1765877530.002178,496
1765877530.0021892,497
1765877530.002201,497
1765877530.002218,496
1765877530.00223,496
1765877530.0022411,495
1765877530.002252,494
1765877530.002264,495
1765877530.002275,495
1765877530.002298,496
1765877530.002309,496
1765877530.0023198,496
1765877530.002338,495
1765877530.00235,496
1765877530.002361,496
1765877530.002372,496
1765877530.002383,496
1765877530.0023942,496
1765877530.0024111,496
1765877530.002422,497
1765877530.002434,496
1765877530.002445,496
1765877530.002456,497
1765877530.002468,497
1765877530.002479,496
1765877530.00249,496
1765877530.002502,495
1765877530.002513,494
1765877530.0025249,495
1765877530.0025358,496
1765877530.002547,496
1765877530.002559,496
1765877530.00257,496
1765877530.002581,496
1765877530.002592,495
1765877530.0026062,496
1765877530.002618,496
1765877530.002629,497
1765877530.0026398,497
1765877530.002656,497
1765877530.002667,495
1765877530.002679,495
1765877530.00269,496
1765877530.002701,495
1765877530.002712,495
1765877530.0027242,495
1765877530.0027351,496
1765877530.002746,496
1765877530.0027578,496
1765877530.002769,496
1765877530.00278,496
1765877530.002792,495
1765877530.0028028,495
1765877530.002814,495
1765877530.002826,495
1765877530.002837,494
1765877530.002849,494
1765877530.00286,495
1765877530.002871,495
1765877530.002882,496
1765877530.002893,496
1765877530.0029068,497
1765877530.002919,496
1765877530.00293,496
1765877530.0029418,497
1765877530.002953,497
1765877530.002964,497
1765877530.002976,496
1765877530.002987,495
1765877530.002999,494
1765877530.00301,495
1765877530.0030222,494
1765877530.0030332,495
1765877530.0030441,495
1765877530.003055,495
1765877530.0030668,496
1765877530.003078,496
1765877530.003096,497
1765877530.003107,497
1765877530.003119,496
1765877530.0031302,496
1765877530.0031412,495
1765877530.0031528,495
1765877530.0031638,495
1765877530.003175,494
1765877530.003186,495
1765877530.003198,496
1765877530.0032132,496
1765877530.003225,496
1765877530.003236,496
1765877530.0032482,496
1765877530.0032609,495
1765877530.003274,495
1765877530.003288,496
1765877530.0033011,496
1765877530.003314,497
1765877530.003327,497
1765877530.00334,497
1765877530.0033522,497
1765877530.0033631,496
1765877530.003375,495
1765877530.003387,493
1765877530.003399,494
1765877530.0034099,495
1765877530.003422,495
1765877530.003434,495
1765877530.003445,495
1765877530.003456,496
1765877530.003467,495
1765877530.003479,496
1765877530.00349,496
1765877530.003501,496
1765877530.0035121,496
1765877530.003529,496
1765877530.003542,496
1765877530.003553,496
1765877530.0035641,497
1765877530.003575,497
1765877530.003587,496
1765877530.003598,496
1765877530.0036092,497
1765877530.003621,497
1765877530.003632,498
1765877530.0036428,499
1765877530.003655,500
1765877530.003666,502
1765877530.0036778,501
1765877530.00369,502
1765877530.003701,498
1765877530.003712,493
1765877530.003726,493
1765877530.003755,490
1765877530.00377,493
1765877530.003783,495
1765877530.0037959,495
1765877530.003809,494
1765877530.003822,495
1765877530.003836,496
1765877530.003849,496
1765877530.003862,496
1765877530.0038779,496
1765877530.003891,495
1765877530.003904,496
1765877530.003917,497
1765877530.0039291,499
1765877530.0039418,497
1765877530.003955,496
1765877530.003968,497
1765877530.003981,497
1765877530.0039942,495
1765877530.0040069,493
1765877530.00402,495
1765877530.004032,495
1765877530.004045,495
1765877530.0040581,495
1765877530.004071,495
1765877530.0040839,495
1765877530.004097,496
1765877530.004116,496
1765877530.004129,496
1765877530.004142,496
1765877530.004155,497
1765877530.004168,497
1765877530.004181,498
1765877530.004194,498
1765877530.0042071,498
1765877530.004224,495
1765877530.0042372,494
1765877530.00425,493
1765877530.004262,494
1765877530.0042748,495
1765877530.004288,495
1765877530.004301,496
1765877530.0043142,495
1765877530.0043268,495
1765877530.004339,494
1765877530.004352,495
1765877530.004365,496
1765877530.004378,495
1765877530.004391,497
1765877530.004405,496
1765877530.0044181,496
1765877530.004431,495
1765877530.004444,495
1765877530.004457,495
1765877530.004469,495
1765877530.004482,496
1765877530.0044951,495
1765877530.004508,495
1765877530.004521,495
1765877530.004534,496
1765877530.004547,496
1765877530.004562,496
1765877530.004601,495
1765877530.0046139,495
1765877530.004627,496
1765877530.00464,495
1765877530.004653,495
1765877530.004666,495
1765877530.004719,495
1765877530.004732,496
1765877530.004745,496
1765877530.0047581,496
1765877530.0047722,497
1765877530.0047848,496
1765877530.004798,495
1765877530.004811,496
1765877530.004823,497
1765877530.004836,496
1765877530.004849,495
1765877530.004862,494
1765877530.004875,494
1765877530.004888,496
1765877530.0049,496
1765877530.0049129,495
1765877530.004926,495
1765877530.004939,495
1765877530.004952,495
1765877530.004968,495
1765877530.004982,495
1765877530.004995,495
1765877530.005008,495
1765877530.0050209,495
1765877530.005035,496
1765877530.005048,496
1765877530.0050611,496
1765877530.005074,495
1765877530.005087,496
1765877530.0051,496
1765877530.0051131,497
1765877530.005126,496
1765877530.0051389,496
1765877530.005152,497
1765877530.005165,497
1765877530.005179,496
1765877530.0051908,494
1765877530.005204,493
1765877530.005217,494
1765877530.0052302,495
1765877530.0052428,496
1765877530.005257,495
1765877530.00527,495
1765877530.005288,495
1765877530.005301,495
1765877530.005314,494
1765877530.005331,493
1765877530.005344,494
1765877530.005357,496
1765877530.0053701,497
1765877530.005383,498
1765877530.005396,497
1765877530.005409,498
1765877530.005422,496
1765877530.005441,496
1765877530.005454,496
1765877530.005467,496
1765877530.00548,495
1765877530.005493,495
1765877530.005506,496
1765877530.0055192,495
1765877530.0055318,494
1765877530.005544,494
1765877530.005558,494
1765877530.00557,496
1765877530.005583,496
1765877530.0055969,495
1765877530.00561,495
1765877530.005623,495
1765877530.005635,495
1765877530.005648,495
1765877530.005661,495
1765877530.005677,496
1765877530.0056908,496
1765877530.0057018,495
1765877530.005713,495
1765877530.005724,495
1765877530.0057359,496
1765877530.0057468,495
1765877530.005758,495
1765877530.005769,495
1765877530.00578,496
1765877530.005792,496
1765877530.005804,495
1765877530.005815,495
1765877530.005826,495
1765877530.005837,495
1765877530.0058482,496
1765877530.00586,495
1765877530.005871,495
1765877530.005882,496
1765877530.0058932,496
1765877530.005905,498
1765877530.0059159,498
1765877530.0059268,498
1765877530.005939,496
1765877530.00595,493
1765877530.005962,494
1765877530.005975,494
1765877530.0059872,494
1765877530.005999,494
1765877530.00601,495
1765877530.006021,495
1765877530.006032,495
1765877530.006044,496
1765877530.0060549,495
1765877530.0060658,495
1765877530.0060768,496
1765877530.006089,495
1765877530.0061,496
1765877530.006112,495
1765877530.006123,495
1765877530.006134,496
1765877530.006145,496
1765877530.006156,495
1765877530.0061681,496
1765877530.006179,495
1765877530.00619,495
1765877530.0062022,495
1765877530.0062132,495
1765877530.0062249,496
1765877530.0062358,496
1765877530.0062468,495
1765877530.006259,495
1765877530.006277,495
1765877530.006289,495
1765877530.0063,495
1765877530.006312,496
1765877530.0063229,495
1765877530.006334,495
1765877530.006346,495
1765877530.006357,495
1765877530.006368,496
1765877530.006379,495
1765877530.00639,495
1765877530.006402,496
1765877530.006413,496
1765877530.006424,496
1765877530.0064352,496
1765877530.006447,495
1765877530.006458,495
1765877530.006469,495
1765877530.00648,495
1765877530.006492,495
1765877530.0065029,496
1765877530.0065138,495
1765877530.006525,495
1765877530.006536,495
1765877530.006547,495
1765877530.006559,495
1765877530.006576,495
1765877530.006588,495
1765877530.006599,495
1765877530.0066109,495
1765877530.0066218,495
1765877530.006633,494
1765877530.0066502,495
1765877530.0066612,495
1765877530.0066729,495
1765877530.0066838,495
1765877530.0066948,495
1765877530.006706,495
1765877530.006717,495
1765877530.006729,495
1765877530.0067399,495
1765877530.006751,495
1765877530.0067682,495
1765877530.00678,495
1765877530.0067909,495
1765877530.0068018,495
1765877530.0068128,495
1765877530.006824,495
1765877530.006835,495
1765877530.006847,495
1765877530.0068579,495
1765877530.006869,495
1765877530.006894,495
1765877530.006911,495
1765877530.006923,495
1765877530.006934,495
1765877530.0069451,494
1765877530.006957,494
1765877530.006968,494
1765877530.006979,495
1765877530.0069911,496
1765877530.007002,495
1765877530.007013,495
1765877530.007025,495
1765877530.007036,495
1765877530.007047,495
1765877530.007058,496
1765877530.0070689,495
1765877530.007086,495
1765877530.007097,496
1765877530.0071092,495
1765877530.00712,495
1765877530.0071309,496
1765877530.0071418,495
1765877530.0071528,495
1765877530.007164,495
1765877530.007175,495
1765877530.007187,495
1765877530.007203,495
1765877530.0072188,495
1765877530.007231,495
1765877530.007242,495
1765877530.007253,495
1765877530.007265,495
1765877530.007276,495
1765877530.007287,495
1765877530.007298,495
1765877530.007309,495
1765877530.0073202,495
1765877530.007332,495
1765877530.007343,495
1765877530.007354,495
1765877530.0073652,495
1765877530.007376,495
1765877530.0073879,495
1765877530.0073988,495
1765877530.0074098,495
1765877530.007422,495
1765877530.007433,495
1765877530.007444,495
1765877530.0074549,495
1765877530.007466,495
1765877530.007477,495
1765877530.007489,495
1765877530.0075,495
1765877530.007514,495
1765877530.0075252,495
1765877530.0075362,495
1765877530.007547,495
1765877530.0075579,495
1765877530.0075688,495
1765877530.007581,495
1765877530.007592,495
1765877530.007603,495
1765877530.007615,495
1765877530.007626,495
1765877530.007637,495
1765877530.007648,495
1765877530.007659,495
1765877530.00767,495
1765877530.0076811,495
1765877530.007692,495
1765877530.007703,495
1765877530.007714,495
1765877530.007725,495
1765877530.007736,495
1765877530.0077472,495
1765877530.007759,494
1765877530.0077708,495
1765877530.007782,495
1765877530.007793,496
1765877530.007806,496
1765877530.007817,496
1765877530.007829,496
1765877530.00784,496
1765877530.00785,496
1765877530.007862,496
1765877530.007873,496
1765877530.007884,496
1765877530.007895,496
1765877530.0079072,496
1765877530.0079181,496
1765877530.007929,496
1765877530.00794,496
1765877530.007952,497
1765877530.007963,496
1765877530.007974,496
1765877530.0079849,495
1765877530.0079958,496
1765877530.0080068,496
1765877530.008018,495
1765877530.008029,495
1765877530.00804,495
1765877530.008051,495
1765877530.008062,496
1765877530.0080729,495
1765877530.008085,495
1765877530.0080981,495
1765877530.00811,495
1765877530.0081222,495
1765877530.008134,495
1765877530.0081458,495
1765877530.008157,495
1765877530.008168,495
1765877530.008179,496
1765877530.00819,496
1765877530.008201,495
1765877530.0082119,495
1765877530.008223,495
1765877530.008234,495
1765877530.008245,495
1765877530.008257,495
1765877530.008268,495
1765877530.008279,495
1765877530.00829,495
1765877530.008301,495
1765877530.008312,495
1765877530.008323,494
1765877530.008335,495
1765877530.008346,495
1765877530.008357,495
1765877530.008368,495
1765877530.008379,495
1765877530.008393,495
1765877530.008405,495
1765877530.008416,495
1765877530.008427,495
1765877530.008438,495
1765877530.00845,495
1765877530.008461,495
1765877530.008472,495
1765877530.0084832,495
1765877530.0084941,495
1765877530.008505,495
1765877530.008516,494
1765877530.008527,494
1765877530.008538,495
1765877530.0085492,495
1765877530.008561,495
1765877530.0085719,495
1765877530.0085828,494
1765877530.008594,494
1765877530.008605,495
1765877530.008616,494
1765877530.008627,495
1765877530.0086389,495
1765877530.00865,495
1765877530.008661,495
1765877530.008672,495
1765877530.008683,495
1765877530.0086982,494
1765877530.0087092,494
1765877530.00872,495
1765877530.0087318,494
1765877530.0087428,495
1765877530.008754,495
1765877530.008765,494
1765877530.008777,495
1765877530.0087879,495
1765877530.008798,495
1765877530.00881,495
1765877530.008821,495
1765877530.008832,495
1765877530.008843,495
1765877530.008854,494
1765877530.008865,494
1765877530.008876,495
1765877530.008887,495
1765877530.008898,494
1765877530.0089102,494
1765877530.0089211,494
1765877530.008932,495
1765877530.008943,495
1765877530.008954,495
1765877530.008965,495
1765877530.008977,495
1765877530.008992,495
1765877530.009003,495
1765877530.0090141,496
1765877530.009025,495
1765877530.009036,495
1765877530.00912,495
1765877530.0091321,495
1765877530.009143,495
1765877530.009154,495
1765877530.009166,494
1765877530.009177,494
1765877530.0091882,495
1765877530.009202,495
1765877530.009213,495
1765877530.009225,495
1765877530.0092359,495
1765877530.009248,495
1765877530.009259,494
1765877530.0092711,495
1765877530.009282,494
1765877530.009293,495
1765877530.009305,495
1765877530.0093162,494
1765877530.0093272,495
1765877530.0093389,494
1765877530.0093498,495
1765877530.009364,495
1765877530.009376,495
1765877530.009387,495
1765877530.009399,495
1765877530.0094101,495
1765877530.009421,495
1765877530.009432,495
1765877530.009443,495
1765877530.0094552,495
1765877530.0094662,496
1765877530.0094771,495
1765877530.0094879,495
1765877530.0094988,495
1765877530.0095098,495
1765877530.009521,495
1765877530.009532,494
1765877530.009543,495
1765877530.009554,495
1765877530.0095649,495
1765877530.0095758,495
1765877530.009587,495
1765877530.009598,495
1765877530.009609,495
1765877530.009621,495
1765877530.009632,495
1765877530.009643,495
1765877530.0096571,495
1765877530.009669,494
1765877530.0096798,495
1765877530.0096908,495
1765877530.009702,494
1765877530.009713,495
1765877530.0097249,495
1765877530.0097358,495
1765877530.009747,495
1765877530.009758,495
1765877530.009769,494
1765877530.00978,495
1765877530.009791,495
1765877530.009803,495
1765877530.009814,496
1765877530.009825,495
1765877530.009836,495
1765877530.009847,494
1765877530.009859,495
1765877530.00987,495
1765877530.009881,495
1765877530.009892,494
1765877530.0099041,495
1765877530.0099149,495
1765877530.0099258,495
1765877530.0099368,495
1765877530.009949,495
1765877530.009963,495
1765877530.009975,495
1765877530.009985,495
1765877530.0099971,494
1765877530.010008,495
1765877530.010019,495
1765877530.01003,496
1765877530.010041,495
1765877530.0100522,494
1765877530.0100632,495
1765877530.0100749,495
1765877530.0100858,495
1765877530.0100968,495
1765877530.010109,494
1765877530.01012,494
1765877530.010132,495
1765877530.010143,495
1765877530.010154,495
1765877530.010165,495
1765877530.010176,495
1765877530.010187,495
1765877530.010198,495
1765877530.010209,495
1765877530.01022,495
1765877530.010231,495
1765877530.010242,495
1765877530.0102558,495
1765877530.0102668,495
1765877530.010278,495
1765877530.01029,494
1765877530.0103009,494
1765877530.0103118,495
1765877530.010323,495
1765877530.010334,495
1765877530.010345,495
1765877530.010357,494
1765877530.010368,495
1765877530.010379,496
1765877530.01039,495
1765877530.010401,495
1765877530.010412,495
1765877530.0104241,495
1765877530.010435,495
1765877530.010446,495
1765877530.010457,494
1765877530.010468,495
1765877530.0104792,495
1765877530.0104902,495
1765877530.0105011,495
1765877530.0105119,496
1765877530.0105228,495
1765877530.0105338,495
1765877530.010549,495
1765877530.010562,495
1765877530.0105731,495
1765877530.010584,495
1765877530.010595,495
1765877530.010606,495
1765877530.010617,495
1765877530.010628,495
1765877530.0106392,495
1765877530.0106502,495
1765877530.0106611,495
1765877530.010672,495
1765877530.010684,495
1765877530.010695,495
1765877530.010706,495
1765877530.010717,495
1765877530.010728,494
1765877530.0107388,495
1765877530.01075,495
1765877530.010761,495
1765877530.010772,495
1765877530.010784,495
1765877530.010795,495
1765877530.010806,495
1765877530.010817,495
1765877530.010828,495
1765877530.0108411,495
1765877530.010854,495
1765877530.010865,495
1765877530.010876,495
1765877530.010887,495
1765877530.0108979,495
1765877530.0109088,495
1765877530.01092,495
1765877530.010931,495
1765877530.010942,495
1765877530.010953,494
1765877530.010964,494
1765877530.010975,494
1765877530.010986,495
1765877530.0110028,495
1765877530.011015,495
1765877530.011026,495
1765877530.0110369,496
1765877530.0110478,495
1765877530.011105,495
1765877530.0111191,495
1765877530.01113,495
1765877530.0111418,495
1765877530.011153,495
1765877530.011165,495
1765877530.0111759,494
1765877530.0111868,495
1765877530.011201,495
1765877530.011214,495
1765877530.011225,495
1765877530.0112371,495
1765877530.011248,495
1765877530.0112588,495
1765877530.011271,495
1765877530.011282,495
1765877530.011294,495
1765877530.0113049,495
1765877530.011317,496
1765877530.011328,495
1765877530.011339,495
1765877530.011351,495
1765877530.011362,495
1765877530.011374,495
1765877530.0113852,495
1765877530.0113962,495
1765877530.0114079,495
1765877530.0114582,495
1765877530.01147,495
1765877530.011481,495
1765877530.0114932,495
1765877530.0115042,495
1765877530.0115242,495
1765877530.0115368,496
1765877530.011551,495
1765877530.011564,495
1765877530.011575,495
1765877530.011586,495
1765877530.011598,495
1765877530.011609,495
1765877530.01162,495
1765877530.0116322,495
1765877530.011643,495
1765877530.011654,496
1765877530.0116649,495
1765877530.0117052,495
1765877530.011717,495
1765877530.011727,495
1765877530.011737,495
1765877530.0117471,495
1765877530.0117571,495
1765877530.0117671,496
1765877530.011776,495
1765877530.011786,495
1765877530.011796,495
1765877530.011806,495
1765877530.011816,494
1765877530.0118248,496
1765877530.0118349,495
1765877530.011845,495
1765877530.011859,495
1765877530.011893,496
1765877530.011903,495
1765877530.011913,495
1765877530.0119228,496
1765877530.0119328,495
1765877530.0119429,495
1765877530.0119529,495
1765877530.011963,495
1765877530.0119731,496
1765877530.0119832,496
1765877530.0119932,497
1765877530.0120032,497
1765877530.012013,496
1765877530.012023,497
1765877530.012033,496
1765877530.012043,496
1765877530.012053,497
1765877530.012063,497
1765877530.012073,497
1765877530.012083,496
1765877530.0120928,496
1765877530.0121028,497
1765877530.0121129,496
1765877530.0121229,496
1765877530.0121331,496
1765877530.0121448,495
1765877530.012156,496
1765877530.0121658,496
1765877530.0121758,496
1765877530.012186,496
1765877530.012196,496
1765877530.012206,495
1765877530.012216,496
1765877530.012226,496
1765877530.012236,496
1765877530.0122461,496
1765877530.012256,495
1765877530.012266,495
1765877530.012276,495
1765877530.012286,496
1765877530.012296,495
1765877530.012306,495
1765877530.012316,495
1765877530.012328,496
1765877530.012338,496
1765877530.012348,495
1765877530.012358,496
1765877530.012368,495
1765877530.0123782,495
1765877530.012388,496
1765877530.012398,495
1765877530.012409,495
1765877530.0124211,496
1765877530.0124319,495
1765877530.012442,496
1765877530.0124521,496
1765877530.012463,495
1765877530.012473,495
1765877530.012484,495
1765877530.012494,495
1765877530.012504,495
1765877530.012515,495
1765877530.012526,495
1765877530.012536,495
1765877530.012546,495
1765877530.012557,495
1765877530.012567,495
1765877530.012577,495
1765877530.012587,495
1765877530.012597,495
1765877530.0126069,496
1765877530.0126169,495
1765877530.012627,495
1765877530.012637,495
1765877530.0126479,495
1765877530.0126579,495
1765877530.012668,496
1765877530.012678,495
1765877530.0126898,495
1765877530.012703,495
1765877530.012713,495
1765877530.012723,495
1765877530.012733,495
1765877530.012743,495
1765877530.012753,495
1765877530.0127628,495
1765877530.012773,495
1765877530.012783,495
1765877530.012793,495
1765877530.012803,495
1765877530.012813,495
1765877530.012823,495
1765877530.012833,495
1765877530.012843,496
1765877530.012853,495
1765877530.012863,495
1765877530.012874,496
1765877530.012884,496
1765877530.012894,495
1765877530.012904,495
1765877530.012914,495
1765877530.012924,495
1765877530.012934,494
1765877530.012944,494
1765877530.012954,495
1765877530.0129669,495
1765877530.012979,495
1765877530.012989,495
1765877530.0129988,495
1765877530.0130088,495
1765877530.0130188,496
1765877530.013029,495
1765877530.013039,496
1765877530.0130491,496
1765877530.0130591,495
1765877530.0130692,494
1765877530.013079,495
1765877530.013089,495
1765877530.013099,495
1765877530.013109,496
1765877530.013119,496
1765877530.013129,496
1765877530.013139,495
1765877530.013149,495
1765877530.0131588,495
1765877530.0131688,495
1765877530.0131788,496
1765877530.013189,496
1765877530.0131998,496
1765877530.01321,495
1765877530.01322,495
1765877530.01323,496
1765877530.013242,495
1765877530.013254,495
1765877530.013264,495
1765877530.0132742,496
1765877530.0132842,495
1765877530.013294,495
1765877530.0133052,495
1765877530.013315,495
1765877530.013325,495
1765877530.013335,495
1765877530.013345,495
1765877530.013355,495
1765877530.013365,495
1765877530.013375,495
1765877530.013385,494
1765877530.0133948,495
1765877530.0134048,496
1765877530.0134149,496
1765877530.0134249,496
1765877530.013435,496
1765877530.0134451,495
1765877530.0134552,495
1765877530.0134661,495
1765877530.0134761,495
1765877530.0134861,495
1765877530.013495,494
1765877530.013505,495
1765877530.013515,495
1765877530.013525,495
1765877530.013535,495
1765877530.013545,495
1765877530.013555,496
1765877530.0135648,495
1765877530.0135748,496
1765877530.0135849,495
1765877530.0135949,495
1765877530.013605,495
1765877530.0136142,495
1765877530.013624,495
1765877530.013634,495
1765877530.013644,495
1765877530.013654,496
1765877530.013664,495
1765877530.013674,495
1765877530.013684,495
1765877530.013694,495
1765877530.0137038,496
1765877530.0137138,495
1765877530.0137239,495
1765877530.0137339,496
1765877530.013744,495
1765877530.0137541,496
1765877530.0137641,496
1765877530.0137742,495
1765877530.0137842,496
1765877530.013794,495
1765877530.0138052,496
1765877530.013815,495
1765877530.013825,496
1765877530.013835,495
1765877530.013845,495
1765877530.013855,496
1765877530.013865,495
1765877530.013875,495
1765877530.013885,495
1765877530.0138948,495
1765877530.013906,495
1765877530.013916,496
1765877530.0139258,495
1765877530.013936,495
1765877530.013946,495
1765877530.013956,496
1765877530.013966,495
1765877530.013976,495
1765877530.013986,495
1765877530.0139961,495
1765877530.014006,495
1765877530.014016,495
1765877530.014026,495
1765877530.014036,495
1765877530.014046,495
1765877530.014056,495
1765877530.014066,496
1765877530.014076,495
1765877530.0140858,495
1765877530.014097,495
1765877530.014107,495
1765877530.014116,496
1765877530.014127,496
1765877530.014137,494
1765877530.014147,495
1765877530.014157,495
1765877530.014167,495
1765877530.014177,495
1765877530.014187,495
1765877530.014197,495
1765877530.014207,495
1765877530.014217,495
1765877530.014227,495
1765877530.014236,496
1765877530.014246,496
1765877530.0142562,495
1765877530.014266,495
1765877530.014276,495
1765877530.014286,495
1765877530.014296,495
1765877530.014306,495
1765877530.014316,495
1765877530.014326,496
1765877530.014336,495
1765877530.014346,495
1765877530.014356,495
1765877530.014366,494
1765877530.014376,495
1765877530.014386,495
1765877530.014396,496
1765877530.0144231,495
1765877530.014435,495
1765877530.014445,495
1765877530.014455,495
1765877530.014465,495
1765877530.014475,495
1765877530.0144918,495
1765877530.014503,495
1765877530.0145128,495
1765877530.014524,495
1765877530.014534,495
1765877530.014543,495
1765877530.014554,495
1765877530.014564,495
1765877530.014574,496
1765877530.014583,495
1765877530.014594,494
1765877530.014604,495
1765877530.014614,495
1765877530.014624,495
1765877530.014634,495
1765877530.014644,495
1765877530.014654,495
1765877530.014664,495
1765877530.014674,495
1765877530.014684,494
1765877530.014694,494
1765877530.0147042,495
1765877530.014714,495
1765877530.014724,495
1765877530.0147352,495
1765877530.014745,495
1765877530.014755,495
1765877530.014765,495
1765877530.014775,495
1765877530.014785,495
1765877530.014795,494
1765877530.014805,494
1765877530.014816,494
1765877530.014826,494
1765877530.014837,495
1765877530.014847,495
1765877530.014858,495
1765877530.014869,495
1765877530.014879,495
1765877530.014889,495
1765877530.014899,496
1765877530.014909,496
1765877530.014923,495
1765877530.014933,496
1765877530.014943,495
1765877530.014952,495
1765877530.014963,495
1765877530.014972,495
1765877530.014982,495
1765877530.014993,495
1765877530.015003,496
1765877530.015012,495
1765877530.015022,495
1765877530.015032,495
1765877530.015042,495
1765877530.015053,494
1765877530.015063,495
1765877530.015073,495
1765877530.015083,495
1765877530.015093,495
1765877530.0151029,495
1765877530.0151129,495
1765877530.015123,495
1765877530.015133,495
1765877530.015143,494
1765877530.015153,494
1765877530.015163,495
1765877530.0151732,495
1765877530.0151832,495
1765877530.015193,495
1765877530.015203,495
1765877530.015218,495
1765877530.015348,495
1765877530.016351,495
1765877530.017343,494
1765877530.018344,494
1765877530.0193431,494
1765877530.0203352,495
1765877530.021339,495
1765877530.02237,495
1765877530.02336,495
1765877530.0243468,495
1765877530.025347,495
1765877530.0264032,495
1765877530.0273721,495
1765877530.028385,495
1765877530.0293639,495
1765877530.03039,495
1765877530.031403,494
1765877530.0323899,495
1765877530.033374,495
1765877530.034388,495
1765877530.0353851,494
1765877530.0363781,495
1765877530.0373828,495
1765877530.038431,495
1765877530.039381,495
1765877530.040416,495
1765877530.0414348,495
1765877530.0424042,495
1765877530.043508,495
1765877530.0444229,495
1765877530.0454452,494
1765877530.046442,495
1765877530.04747,495
1765877530.048446,495
1765877530.0494232,495
1765877530.050428,495
1765877530.0514188,496
1765877530.052421,496
1765877530.053455,497
1765877530.054504,497
1765877530.055454,496
1765877530.0564559,496
1765877530.057461,496
1765877530.0584571,497
1765877530.0594509,496
1765877530.060459,496
1765877530.061462,496
1765877530.062477,496
1765877530.0634959,496
1765877530.0644858,496
1765877530.065459,495
1765877530.066474,497
1765877530.067483,495
1765877530.068491,496
1765877530.069484,496
1765877530.070507,495
1765877530.071522,495
1765877530.072524,495
1765877530.0735202,495
1765877530.074599,496
1765877530.075587,496
1765877530.07667,496
1765877530.077586,495
1765877530.078583,494
1765877530.079587,495
1765877530.080608,495
1765877530.0816011,495
1765877530.082609,496
1765877530.083607,495
1765877530.084602,496
1765877530.0855901,495
1765877530.086624,495
1765877530.0876029,495
1765877530.0886002,495
1765877530.089609,495
1765877530.0905821,495
1765877530.0915892,495
1765877530.092591,495
1765877530.093653,495
1765877530.094642,495
1765877530.095712,495
1765877530.096698,495
1765877530.097617,495
1765877530.0985758,495
1765877530.099605,495
1765877530.100586,495
1765877530.1016371,496
1765877530.102622,496
1765877530.1036491,495
1765877530.1046011,495
1765877530.105578,495
1765877530.106626,496
1765877530.10764,495
1765877530.108641,495
1765877530.1095948,495
1765877530.110664,495
1765877530.111661,495
1765877530.1126132,495
1765877530.113614,495
1765877530.1146922,495
1765877530.115665,495
1765877530.116655,495
1765877530.11761,495
1765877530.1186838,495
1765877530.119696,495
1765877530.12063,495
1765877530.121662,495
1765877530.122656,495
1765877530.123678,495
1765877530.1247091,495
1765877530.125706,495
1765877530.12677,495
1765877530.127698,495
1765877530.128719,495
1765877530.129689,495
1765877530.130715,495
1765877530.131715,494
1765877530.132651,495
1765877530.133711,495
1765877530.134721,496
1765877530.1357079,495
1765877530.136684,495
1765877530.137687,495
1765877530.13871,495
1765877530.1397781,495
1765877530.1407812,495
1765877530.141736,495
1765877530.142715,495
1765877530.1437209,495
1765877530.144758,495
1765877530.145696,495
1765877530.146707,495
1765877530.147739,495
1765877530.148761,495
1765877530.149761,495
1765877530.150749,495
1765877530.1517901,495
1765877530.152782,495
1765877530.1537669,495
1765877530.154777,495
1765877530.155772,495
1765877530.1567879,496
1765877530.1577852,495
1765877530.158782,495
1765877530.159822,495
1765877530.160836,495
1765877530.161843,495
1765877530.162848,495
1765877530.1638532,495
1765877530.1648169,495
1765877530.165948,496
1765877530.166913,495
1765877530.167844,495
1765877530.168828,496
1765877530.169842,495
1765877530.170841,495
1765877530.171871,495
1765877530.1728508,495
1765877530.173836,495
1765877530.174867,495
1765877530.1758568,495
1765877530.176884,495
1765877530.177867,495
1765877530.178859,496
1765877530.1799,495
1765877530.180893,496
1765877530.181845,495
1765877530.182899,495
1765877530.183875,495
1765877530.184865,495
1765877530.185892,496
1765877530.186856,495
1765877530.187916,495
1765877530.18888,496
1765877530.1898801,495
1765877530.1908748,495
1765877530.191893,495
1765877530.192904,495
1765877530.1939158,495
1765877530.194925,495
1765877530.195957,495
1765877530.196939,495
1765877530.197933,495
1765877530.198931,495
1765877530.1999419,495
1765877530.200937,495
1765877530.201932,495
1765877530.2029068,494
1765877530.203954,495
1765877530.204962,495
1765877530.2059379,495
1765877530.2070389,495
1765877530.207954,495
1765877530.208939,495
1765877530.209976,496
1765877530.210958,496
1765877530.211942,496
1765877530.212966,496
1765877530.213932,496
1765877530.214946,496
1765877530.215955,496
1765877530.216958,495
1765877530.217948,495
1765877530.218938,495
1765877530.21997,495
1765877530.2209752,495
1765877530.222005,495
1765877530.2229939,495
1765877530.2239869,495
1765877530.224997,496
1765877530.226003,495
1765877530.2270222,495
1765877530.228,495
1765877530.229046,496
1765877530.2300138,495
1765877530.231008,495
1765877530.2320168,495
1765877530.233021,495
1765877530.234026,495
1765877530.235017,495
1765877530.2360451,495
1765877530.23701,496
1765877530.2380521,496
1765877530.2390249,495
1765877530.240006,495
1765877530.2410398,495
1765877530.242005,495
1765877530.2430341,495
1765877530.2440362,495
1765877530.2450361,495
1765877530.246051,495
1765877530.247052,495
1765877530.248093,495
1765877530.249102,495
1765877530.250092,495
1765877530.251105,495
1765877530.25213,495
1765877530.253078,495
1765877530.25405,496
1765877530.255081,496
1765877530.256052,495
1765877530.257088,495
1765877530.258107,495
1765877530.259097,495
1765877530.2600892,496
1765877530.261086,496
1765877530.2621272,495
1765877530.263092,496
1765877530.264103,496
1765877530.265089,496
1765877530.2661152,496
1765877530.267107,496
1765877530.2681549,497
1765877530.2691252,496
1765877530.270141,496
1765877530.271107,496
1765877530.272135,495
1765877530.273101,495
1765877530.274152,496
1765877530.275129,496
1765877530.2761312,496
1765877530.2771451,497
1765877530.278142,497
1765877530.2791512,496
1765877530.280143,496
1765877530.281149,494
1765877530.282145,493
1765877530.283176,495
1765877530.284182,495
1765877530.2851782,494
1765877530.286166,494
1765877530.287158,496
1765877530.2881742,498
1765877530.289195,500
1765877530.29019,500
1765877530.291195,501
1765877530.2921941,502
1765877530.293298,501
1765877530.294196,500
1765877530.2952151,493
1765877530.296275,489
1765877530.2972102,491
1765877530.2981849,493
1765877530.2992089,493
1765877530.300225,494
1765877530.3012228,494
1765877530.3022132,496
1765877530.303215,495
1765877530.304223,494
1765877530.305225,494
1765877530.306257,496
1765877530.307233,498
1765877530.3082628,498
1765877530.309272,497
1765877530.31031,496
1765877530.311282,497
1765877530.312271,496
1765877530.3132899,494
1765877530.314261,495
1765877530.315246,497
1765877530.316237,503
1765877530.317236,503
1765877530.318243,503
1765877530.3192582,503
1765877530.32026,502
1765877530.321281,501
1765877530.322261,498
1765877530.323252,493
1765877530.32428,492
1765877530.3252711,492
1765877530.326271,492
1765877530.327279,493
1765877530.328306,492
1765877530.329282,491
1765877530.330291,492
1765877530.3312871,494
1765877530.332313,493
1765877530.333309,493
1765877530.334311,493
1765877530.3352718,493
1765877530.336288,494
1765877530.3372889,493
1765877530.338298,494
1765877530.339288,495
1765877530.3403,495
1765877530.3413079,496
1765877530.3423371,496
1765877530.343321,496
1765877530.344325,496
1765877530.345299,499
1765877530.346338,501
1765877530.347311,503
1765877530.3483012,503
1765877530.3493068,502
1765877530.350328,503
1765877530.3512902,497
1765877530.35231,494
1765877530.3533251,489
1765877530.354341,489
1765877530.355307,490
1765877530.356322,492
1765877530.357312,494
1765877530.3583639,496
1765877530.359352,496
1765877530.360339,498
1765877530.3613539,500
1765877530.3624141,500
1765877530.3633611,501
1765877530.364394,500
1765877530.3653362,500
1765877530.366373,495
1765877530.367369,493
1765877530.368417,495
1765877530.369379,497
1765877530.370378,495
1765877530.371428,495
1765877530.3724349,500
1765877530.373429,502
1765877530.374539,503
1765877530.375444,501
1765877530.376398,494
1765877530.3773901,493
1765877530.378446,495
1765877530.3794482,496
1765877530.38045,497
1765877530.381393,499
1765877530.382463,499
1765877530.38345,499
1765877530.384413,494
1765877530.385476,493
1765877530.3865001,495
1765877530.3874612,496
1765877530.388468,494
1765877530.389493,492
1765877530.390476,493
1765877530.391467,494
1765877530.392472,495
1765877530.393474,497
1765877530.394497,496
1765877530.395502,496
1765877530.396522,496
1765877530.397516,492
1765877530.398491,494
1765877530.399497,495
1765877530.4004931,495
1765877530.401529,495
1765877530.402514,494
1765877530.403498,494
1765877530.4045131,495
1765877530.405515,496
1765877530.406517,497
1765877530.407517,498
1765877530.4085171,500
1765877530.409548,503
1765877530.410541,504
1765877530.41152,504
1765877530.412621,505
1765877530.4136262,503
1765877530.414634,500
1765877530.4155672,499
1765877530.41663,499
1765877530.4176,490
1765877530.418578,490
1765877530.419627,493
1765877530.420644,492
1765877530.421652,493
1765877530.422671,496
1765877530.423668,499
1765877530.424675,501
1765877530.4255822,500
1765877530.426674,497
1765877530.427657,493
1765877530.4287202,499
1765877530.429756,503
1765877530.43072,505
1765877530.431606,505
1765877530.432606,502
1765877530.4336362,497
1765877530.434625,491
1765877530.435601,489
1765877530.4366,489
1765877530.4376042,489
1765877530.438624,493
1765877530.439591,495
1765877530.4405818,495
1765877530.441581,496
1765877530.442593,495
1765877530.443603,495
1765877530.444586,493
1765877530.445577,493
1765877530.4466372,497
1765877530.447649,503
1765877530.448645,508
1765877530.449671,513
1765877530.4506319,513
1765877530.451746,509
1765877530.4526699,498
1765877530.4536672,496
1765877530.454679,491
1765877530.455654,488
1765877530.456683,492
1765877530.457713,495
1765877530.45877,490
1765877530.45972,491
1765877530.460695,492
1765877530.461677,492
1765877530.4627352,491
1765877530.463708,492
1765877530.464683,493
1765877530.4656909,494
1765877530.466697,494
1765877530.4676921,493
1765877530.4686909,494
1765877530.469762,494
1765877530.4707341,494
1765877530.471814,495
1765877530.472826,495
1765877530.473786,495
1765877530.47471,495
1765877530.475693,496
1765877530.4767091,496
1765877530.477684,496
1765877530.478713,497
1765877530.4797142,497
1765877530.4807181,493
1765877530.481722,494
1765877530.482743,495
1765877530.483728,495
1765877530.484742,497
1765877530.486039,497
1765877530.486787,497
1765877530.487741,496
1765877530.488771,495
1765877530.489752,493
1765877530.4907799,493
1765877530.492161,493
1765877530.492766,494
1765877530.493788,495
1765877530.4947798,496
1765877530.495801,496
1765877530.4968052,497
1765877530.49774,497
1765877530.498755,497
1765877530.4997919,496
1765877530.5007591,495
1765877530.501748,496
1765877530.502818,495
1765877530.503794,492
1765877530.504787,496
1765877530.505755,495
1765877530.5067751,495
1765877530.507765,495
1765877530.5087528,495
1765877530.509745,496
1765877530.510814,495
1765877530.511856,495
1765877530.512905,495
1765877530.5138829,496
1765877530.514845,497
1765877530.51585,497
1765877530.5168471,498
1765877530.517838,497
1765877530.518837,497
1765877530.519815,495
1765877530.5208588,495
1765877530.5218408,495
1765877530.5228422,495
1765877530.5238411,496
1765877530.524842,497
1765877530.525837,496
1765877530.526827,494
1765877530.527824,492
1765877530.528857,494
1765877530.5298638,494
1765877530.530841,496
1765877530.531845,497
1765877530.5328388,498
1765877530.533845,497
1765877530.534924,496
1765877530.535851,495
1765877530.53686,496
1765877530.5378911,499
1765877530.53892,500
1765877530.539893,502
1765877530.540926,504
1765877530.541929,499
1765877530.542922,491
1765877530.543909,494
1765877530.5449228,496
1765877530.5459359,495
1765877530.546932,495
1765877530.547915,495
1765877530.5488799,493
1765877530.54988,494
1765877530.550894,493
1765877530.551908,492
1765877530.552923,495
1765877530.553947,496
1765877530.554965,497
1765877530.5559208,498
1765877530.5569532,497
1765877530.557955,498
1765877530.55895,497
1765877530.559943,494
1765877530.560939,494
1765877530.561942,496
1765877530.562952,497
1765877530.563978,497
1765877530.564977,498
1765877530.56595,493
1765877530.566993,493
1765877530.567979,496
1765877530.568974,497
1765877530.5699599,498
1765877530.570994,498
1765877530.5719879,496
1765877530.572984,496
1765877530.573985,493
1765877530.574955,491
1765877530.576013,492
1765877530.577015,494
1765877530.5780082,495
1765877530.579037,494
1765877530.579982,494
1765877530.58103,495
1765877530.582007,495
1765877530.583018,495
1765877530.5839849,494
1765877530.584985,495
1765877530.585979,495
1765877530.58697,496
1765877530.588001,496
1765877530.588974,495
1765877530.589975,495
1765877530.59098,496
1765877530.591976,496
1765877530.592997,495
1765877530.593995,497
1765877530.595007,497
1765877530.595998,499
1765877530.597045,499
1765877530.598013,498
1765877530.599,500
1765877530.600037,500
1765877530.601075,495
1765877530.6020339,491
1765877530.6030169,494
1765877530.604033,496
1765877530.605053,496
1765877530.60604,496
1765877530.607054,495
1765877530.6080499,492
1765877530.609042,493
1765877530.610058,494
1765877530.6110442,493
1765877530.612054,493
1765877530.61307,495
1765877530.6140668,495
1765877530.615059,496
1765877530.6160588,496
1765877530.6170728,497
1765877530.618077,498
1765877530.619064,498
1765877530.620106,496
1765877530.621096,494
1765877530.622109,494
1765877530.623117,495
1765877530.6241071,496
1765877530.625105,495
1765877530.626087,496
1765877530.627093,498
1765877530.6281118,497
1765877530.629168,495
1765877530.630154,496
1765877530.631202,496
1765877530.632179,495
1765877530.6331131,496
1765877530.63411,496
1765877530.635123,495
1765877530.636118,496
1765877530.637123,495
1765877530.638168,495
1765877530.6391418,498
1765877530.640171,497
1765877530.641129,496
1765877530.642139,496
1765877530.643144,498
1765877530.644133,500
1765877530.645134,506
1765877530.6461859,507
1765877530.647163,501
1765877530.6481621,489
1765877530.649177,491
1765877530.6501791,494
1765877530.651168,495
1765877530.652174,497
1765877530.6531699,494
1765877530.6541781,493
1765877530.655218,494
1765877530.656213,492
1765877530.657185,492
1765877530.658188,493
1765877530.659202,494
1765877530.660204,496
1765877530.661199,496
1765877530.6622121,496
1765877530.663263,496
1765877530.6642199,494
1765877530.6652732,493
1765877530.6662679,495
1765877530.667256,496
1765877530.668283,494
1765877530.66928,495
1765877530.6702201,495
1765877530.671225,494
1765877530.672257,495
1765877530.673273,495
1765877530.674288,495
1765877530.6752791,495
1765877530.67627,494
1765877530.67726,494
1765877530.678242,495
1765877530.6792388,495
1765877530.680297,496
1765877530.6813009,497
1765877530.682265,498
1765877530.68327,498
1765877530.684288,495
1765877530.685316,494
1765877530.686272,494
1765877530.687283,495
1765877530.68833,494
1765877530.689327,494
1765877530.690345,494
1765877530.691345,495
1765877530.692321,495
1765877530.693303,495
1765877530.694311,495
1765877530.695337,495
1765877530.6963332,495
1765877530.697332,495
1765877530.6983192,496
1765877530.6993139,494
1765877530.700319,495
1765877530.701329,495
1765877530.702335,495
1765877530.7033331,496
1765877530.704344,496
1765877530.7054,495
1765877530.70637,494
1765877530.7073889,496
1765877530.70837,496
1765877530.709381,496
1765877530.710343,495
1765877530.71137,496
1765877530.712378,497
1765877530.7133849,497
1765877530.7143621,497
1765877530.715383,500
1765877530.7164009,502
1765877530.717407,503
1765877530.718401,505
1765877530.719424,499
1765877530.720403,498
1765877530.721407,496
1765877530.722399,494
1765877530.7233741,492
1765877530.724407,490
1765877530.725415,492
1765877530.726423,494
1765877530.7274308,492
1765877530.728458,493
1765877530.729428,494
1765877530.730413,495
1765877530.731431,495
1765877530.7324438,495
1765877530.733461,496
1765877530.734454,497
1765877530.7354722,497
1765877530.736465,496
1765877530.7374668,496
1765877530.738473,496
1765877530.739466,495
1765877530.740465,495
1765877530.74149,496
1765877530.74252,496
1765877530.743511,496
1765877530.7444868,495
1765877530.745516,497
1765877530.7465038,497
1765877530.7475321,497
1765877530.7485282,500
1765877530.7494988,499
1765877530.7505121,499
1765877530.751519,496
1765877530.752512,494
1765877530.753508,494
1765877530.754516,495
1765877530.755517,494
1765877530.756516,493
1765877530.757608,494
1765877530.758615,496
1765877530.759517,499
1765877530.760614,499
1765877530.761607,497
1765877530.762613,498
1765877530.7636049,494
1765877530.764609,494
1765877530.765609,495
1765877530.766609,497
1765877530.767605,497
1765877530.7686038,494
1765877530.76964,494
1765877530.770648,494
1765877530.771627,494
1765877530.77262,494
1765877530.7736478,495
1765877530.774616,495
1765877530.775618,496
1765877530.7766201,495
1765877530.777608,496
1765877530.77862,496
1765877530.7796621,495
1765877530.780618,495
1765877530.7816288,495
1765877530.7826188,495
1765877530.7836218,495
1765877530.784631,495
1765877530.785665,495
1765877530.786616,495
1765877530.787651,494
1765877530.788648,495
1765877530.789622,494
1765877530.790635,496
1765877530.79167,497
1765877530.7926211,497
1765877530.793605,496
1765877530.794604,494
1765877530.795614,495
1765877530.796602,498
1765877530.797617,498
1765877530.7985978,497
1765877530.7996109,498
1765877530.800609,497
1765877530.801631,495
1765877530.802608,494
1765877530.803616,493
1765877530.804619,494
1765877530.8056178,495
1765877530.806626,494
1765877530.807622,493
1765877530.808637,493
1765877530.80965,494
1765877530.810648,495
1765877530.811658,496
1765877530.812635,497
1765877530.813648,498
1765877530.8146482,499
1765877530.815656,497
1765877530.816663,496
1765877530.8176699,495
1765877530.818678,494
1765877530.819674,495
1765877530.820661,494
1765877530.821685,494
1765877530.822677,494
1765877530.823671,494
1765877530.824685,494
1765877530.8256881,495
1765877530.826686,495
1765877530.827689,495
1765877530.828686,495
1765877530.829686,495
1765877530.830705,495
1765877530.831742,494
1765877530.8327239,495
1765877530.8337102,495
1765877530.8347058,495
1765877530.835698,495
1765877530.8366988,496
1765877530.837725,496
1765877530.83872,497
1765877530.839714,495
1765877530.840717,495
1765877530.841729,496
1765877530.8427331,495
1765877530.843741,495
1765877530.8447518,495
1765877530.845759,496
1765877530.846742,496
1765877530.84774,495
1765877530.8487659,495
1765877530.849772,494
1765877530.8507469,493
1765877530.851763,496
1765877530.852766,497
1765877530.853773,497
1765877530.8547719,498
1765877530.855787,498
1765877530.85678,495
1765877530.857787,496
1765877530.8588061,496
1765877530.85979,496
1765877530.860811,493
1765877530.8617868,495
1765877530.8628,495
1765877530.863799,495
1765877530.8648078,495
1765877530.865839,496
1765877530.8668349,497
1765877530.8678489,497
1765877530.868829,496
1765877530.8698199,498
1765877530.8708348,492
1765877530.871827,492
1765877530.872841,493
1765877530.8738408,493
1765877530.8748622,494
1765877530.8758552,494
1765877530.8768451,493
1765877530.8778439,494
1765877530.878859,495
1765877530.879839,495
1765877530.880843,495
1765877530.881842,495
1765877530.882859,495
1765877530.88385,495
1765877530.884871,496
1765877530.885875,495
1765877530.8868961,496
1765877530.887881,496
1765877530.88888,496
1765877530.8898811,495
1765877530.8908942,494
1765877530.891884,494
1765877530.892877,495
1765877530.893883,496
1765877530.8948889,496
1765877530.8959098,496
1765877530.896904,495
1765877530.8979049,494
1765877530.898886,494
1765877530.899909,495
1765877530.9009018,494
1765877530.901907,495
1765877530.90292,496
1765877530.903917,497
1765877530.9049149,497
1765877530.905921,495
1765877530.906927,497
1765877530.907926,495
1765877530.908931,496
1765877530.909942,496
1765877530.910943,494
1765877530.911932,493
1765877530.9129338,495
1765877530.913944,495
1765877530.914964,493
1765877530.915968,494
1765877530.916977,494
1765877530.917952,495
1765877530.9189692,497
1765877530.919957,496
1765877530.920979,495
1765877530.9219708,495
1765877530.922973,494
1765877530.923979,496
1765877530.9249809,495
1765877530.925982,495
1765877530.926998,494
1765877530.927995,494
1765877530.92904,494
1765877530.930016,494
1765877530.931008,495
1765877530.931998,495
1765877530.933006,496
1765877530.934023,497
1765877530.935013,497
1765877530.9360352,498
1765877530.9370298,498
1765877530.938016,494
1765877530.9390259,494
1765877530.940025,495
1765877530.941042,495
1765877530.942034,495
1765877530.9430258,494
1765877530.94403,496
1765877530.945027,497
1765877530.946055,495
1765877530.947048,495
1765877530.9480278,492
1765877530.949038,493
1765877530.950094,493
1765877530.951085,494
1765877530.952076,495
1765877530.953078,495
1765877530.9540749,495
1765877530.955072,494
1765877530.9560902,496
1765877530.957084,497
1765877530.958108,497
1765877530.959101,496
1765877530.9601102,496
1765877530.96108,499
1765877530.962084,498
1765877530.963093,492
1765877530.96409,495
1765877530.9650948,496
1765877530.966105,492
1765877530.9671109,493
1765877530.968105,493
1765877530.969113,493
1765877530.9701178,494
1765877530.971126,496
1765877530.97214,494
1765877530.9731169,495
1765877530.974136,495
1765877530.975134,495
1765877530.976147,494
1765877530.977142,494
1765877530.9781382,495
1765877530.979139,495
1765877530.980128,495
1765877530.981133,495
1765877530.982155,494
