timestamp,emg_value
1765877492.285675,496
1765877492.286022,496
1765877492.286308,494
1765877492.286325,495
1765877492.286335,496
1765877492.286423,495
1765877492.286434,498
1765877492.286443,502
1765877492.286453,501
1765877492.286463,502
1765877492.286473,499
1765877492.286483,493
1765877492.2864928,491
1765877492.2865028,494
1765877492.2865121,492
1765877492.2865222,491
1765877492.2865322,491
1765877492.286623,492
1765877492.286633,495
1765877492.286643,498
1765877492.286653,499
1765877492.2866628,498
1765877492.2866728,498
1765877492.2866828,493
1765877492.2866921,492
1765877492.28672,495
1765877492.286735,496
1765877492.286744,496
1765877492.286997,495
1765877492.287012,493
1765877492.287022,494
1765877492.2870321,492
1765877492.287043,492
1765877492.287105,493
1765877492.287115,493
1765877492.287125,494
1765877492.287134,493
1765877492.287144,493
1765877492.287154,494
1765877492.287164,493
1765877492.287256,494
1765877492.2872949,494
1765877492.2873092,494
1765877492.287321,494
1765877492.287334,495
1765877492.287346,494
1765877492.287358,494
1765877492.287371,494
1765877492.287383,494
1765877492.287395,494
1765877492.2874072,495
1765877492.2874188,495
1765877492.287471,494
1765877492.287489,494
1765877492.287499,495
1765877492.287508,495
1765877492.287518,496
1765877492.2875268,496
1765877492.2875369,495
1765877492.2875469,494
1765877492.2875571,495
1765877492.2875671,495
1765877492.2875772,495
1765877492.287586,491
1765877492.287596,494
1765877492.2880452,494
1765877492.28806,494
1765877492.288073,494
1765877492.288085,495
1765877492.288098,497
1765877492.28811,498
1765877492.2881222,499
1765877492.2881339,498
1765877492.288158,497
1765877492.28817,492
1765877492.288183,496
1765877492.288196,497
1765877492.288327,493
1765877492.288699,492
1765877492.288722,492
1765877492.288736,493
1765877492.2887502,493
1765877492.2887628,494
1765877492.288776,494
1765877492.288789,495
1765877492.288803,496
1765877492.288867,495
1765877492.2888849,494
1765877492.2889001,495
1765877492.2889159,496
1765877492.2889512,494
1765877492.288973,494
1765877492.2889879,494
1765877492.2890089,494
1765877492.2890491,494
1765877492.289064,496
1765877492.289103,495
1765877492.289119,493
1765877492.289145,495
1765877492.289173,498
1765877492.2891898,498
1765877492.289206,497
1765877492.289221,494
1765877492.289237,491
1765877492.289259,492
1765877492.2892852,492
1765877492.289301,492
1765877492.2893171,494
1765877492.289333,495
1765877492.289414,494
1765877492.28943,494
1765877492.2894452,494
1765877492.28946,495
1765877492.2894762,494
1765877492.289491,494
1765877492.289521,495
1765877492.2895381,494
1765877492.289699,495
1765877492.289715,494
1765877492.289731,495
1765877492.2897458,495
1765877492.289762,495
1765877492.2897768,494
1765877492.289793,495
1765877492.2898078,495
1765877492.289824,495
1765877492.289839,496
1765877492.289854,497
1765877492.28987,498
1765877492.289943,499
1765877492.2899652,500
1765877492.289983,505
1765877492.289999,512
1765877492.290012,513
1765877492.290024,507
1765877492.290037,495
1765877492.29005,486
1765877492.2900631,488
1765877492.290076,488
1765877492.290089,486
1765877492.290101,489
1765877492.2901142,491
1765877492.290127,492
1765877492.290139,493
1765877492.290159,494
1765877492.290179,493
1765877492.290197,495
1765877492.290208,494
1765877492.2902179,494
1765877492.290229,495
1765877492.290238,495
1765877492.290248,494
1765877492.290258,495
1765877492.290268,495
1765877492.290277,495
1765877492.290287,495
1765877492.290297,494
1765877492.2903109,495
1765877492.2903218,495
1765877492.2903318,495
1765877492.2903419,495
1765877492.290352,495
1765877492.2903621,495
1765877492.2903721,495
1765877492.2903821,495
1765877492.2903922,495
1765877492.290402,494
1765877492.290412,495
1765877492.290422,494
1765877492.290432,494
1765877492.290442,494
1765877492.290452,495
1765877492.290462,495
1765877492.290484,494
1765877492.290494,495
1765877492.290504,495
1765877492.290514,496
1765877492.290524,497
1765877492.2905338,498
1765877492.290544,498
1765877492.290554,495
1765877492.290564,494
1765877492.2905731,497
1765877492.2905831,495
1765877492.2905972,494
1765877492.2906072,492
1765877492.290617,492
1765877492.290627,493
1765877492.290637,493
1765877492.290647,495
1765877492.290657,495
1765877492.2906659,496
1765877492.290679,495
1765877492.290692,494
1765877492.290705,493
1765877492.290717,493
1765877492.29073,494
1765877492.290743,493
1765877492.290756,494
1765877492.2907689,496
1765877492.290782,497
1765877492.290795,498
1765877492.290808,497
1765877492.290821,495
1765877492.290834,495
1765877492.290847,493
1765877492.29086,494
1765877492.290873,495
1765877492.290886,494
1765877492.290899,494
1765877492.290915,494
1765877492.29093,493
1765877492.290943,493
1765877492.290956,494
1765877492.2909691,494
1765877492.2909818,494
1765877492.290995,495
1765877492.291007,494
1765877492.29102,494
1765877492.2910342,494
1765877492.2910469,495
1765877492.291059,494
1765877492.291072,495
1765877492.291085,494
1765877492.291098,494
1765877492.2911098,495
1765877492.291123,494
1765877492.291136,495
1765877492.2911491,499
1765877492.291162,502
1765877492.291175,506
1765877492.291188,507
1765877492.291201,502
1765877492.291214,492
1765877492.2912261,493
1765877492.291239,493
1765877492.291252,495
1765877492.291272,498
1765877492.291285,496
1765877492.2912982,492
1765877492.291311,495
1765877492.291324,495
1765877492.291337,490
1765877492.2913501,489
1765877492.291362,492
1765877492.2913752,493
1765877492.2913878,492
1765877492.291401,493
1765877492.291414,493
1765877492.291426,493
1765877492.291439,493
1765877492.291452,493
1765877492.291465,493
1765877492.291478,494
1765877492.291491,494
1765877492.2915032,494
1765877492.291517,494
1765877492.291529,495
1765877492.2915509,495
1765877492.2915719,494
1765877492.291596,494
1765877492.291617,494
1765877492.29163,495
1765877492.291646,495
1765877492.291661,494
1765877492.2916732,493
1765877492.2916858,495
1765877492.291699,494
1765877492.291712,494
1765877492.2917252,494
1765877492.291738,494
1765877492.291751,495
1765877492.291764,494
1765877492.291776,494
1765877492.291789,494
1765877492.2918022,494
1765877492.2918148,494
1765877492.291828,494
1765877492.29184,495
1765877492.291853,495
1765877492.291866,494
1765877492.291879,495
1765877492.2918909,494
1765877492.291904,494
1765877492.2919161,494
1765877492.291929,495
1765877492.291942,495
1765877492.291955,496
1765877492.291968,496
1765877492.2919831,495
1765877492.291997,497
1765877492.29201,498
1765877492.292023,498
1765877492.292036,501
1765877492.292049,501
1765877492.2920609,494
1765877492.292074,495
1765877492.292087,498
1765877492.2921002,497
1765877492.2921128,496
1765877492.292125,498
1765877492.292138,496
1765877492.292151,498
1765877492.292164,497
1765877492.292177,498
1765877492.292189,495
1765877492.292202,492
1765877492.292215,489
1765877492.292227,488
1765877492.29224,491
1765877492.292253,492
1765877492.292266,493
1765877492.292279,492
1765877492.2922912,493
1765877492.2923038,493
1765877492.292317,494
1765877492.292335,493
1765877492.292348,493
1765877492.2923598,493
1765877492.292373,494
1765877492.292386,494
1765877492.2923992,494
1765877492.2924118,494
1765877492.292424,495
1765877492.292437,496
1765877492.29245,496
1765877492.292462,498
1765877492.292475,496
1765877492.2924879,491
1765877492.292501,493
1765877492.292514,494
1765877492.292526,495
1765877492.292539,493
1765877492.292552,493
1765877492.292568,494
1765877492.2925801,495
1765877492.292594,496
1765877492.292607,496
1765877492.292619,494
1765877492.292632,494
1765877492.2926452,493
1765877492.2926579,494
1765877492.292675,494
1765877492.292688,495
1765877492.292701,496
1765877492.2927139,496
1765877492.292727,495
1765877492.2927392,495
1765877492.2927518,494
1765877492.292765,494
1765877492.292778,495
1765877492.29279,494
1765877492.292803,494
1765877492.292816,495
1765877492.292829,495
1765877492.292842,495
1765877492.292854,495
1765877492.2928672,495
1765877492.2928798,496
1765877492.292893,497
1765877492.292906,499
1765877492.2929192,498
1765877492.292931,500
1765877492.292944,496
1765877492.2929568,492
1765877492.292969,495
1765877492.292982,495
1765877492.292995,493
1765877492.293011,494
1765877492.293024,495
1765877492.293037,495
1765877492.29305,495
1765877492.293063,494
1765877492.2930748,494
1765877492.293088,494
1765877492.293101,494
1765877492.2931142,493
1765877492.2931259,494
1765877492.293139,494
1765877492.293152,495
1765877492.293165,495
1765877492.2931771,495
1765877492.29319,496
1765877492.2932029,497
1765877492.293216,495
1765877492.293229,494
1765877492.2932422,495
1765877492.2932549,495
1765877492.293267,495
1765877492.29328,494
1765877492.293293,493
1765877492.293306,496
1765877492.293319,498
1765877492.2933319,498
1765877492.293348,498
1765877492.2933629,497
1765877492.293376,492
1765877492.293389,492
1765877492.2934022,493
1765877492.2934148,494
1765877492.293428,494
1765877492.293441,494
1765877492.293453,495
1765877492.293466,495
1765877492.293479,496
1765877492.293492,496
1765877492.293505,497
1765877492.293518,496
1765877492.293531,495
1765877492.293544,495
1765877492.293557,494
1765877492.29357,494
1765877492.293582,494
1765877492.2935948,494
1765877492.293608,494
1765877492.293621,493
1765877492.293633,494
1765877492.293646,494
1765877492.293659,495
1765877492.2936718,496
1765877492.293688,497
1765877492.293704,498
1765877492.293716,497
1765877492.293729,496
1765877492.2937422,496
1765877492.293752,497
1765877492.293762,500
1765877492.293772,498
1765877492.293781,497
1765877492.293791,498
1765877492.293801,492
1765877492.2938108,492
1765877492.2938209,494
1765877492.2938309,493
1765877492.293841,491
1765877492.2938502,492
1765877492.2938602,493
1765877492.29387,494
1765877492.29388,494
1765877492.29389,493
1765877492.2939,493
1765877492.29391,494
1765877492.29392,494
1765877492.294065,493
1765877492.294116,495
1765877492.294142,495
1765877492.2941859,495
1765877492.294354,495
1765877492.294365,495
1765877492.294376,495
1765877492.294386,495
1765877492.294396,495
1765877492.294407,494
1765877492.2944572,494
1765877492.294474,495
1765877492.294518,495
1765877492.294535,495
1765877492.294602,495
1765877492.294614,494
1765877492.294624,494
1765877492.2946339,494
1765877492.2946439,495
1765877492.294654,494
1765877492.294664,496
1765877492.294701,496
1765877492.294724,495
1765877492.294752,497
1765877492.294762,497
1765877492.294772,496
1765877492.294782,497
1765877492.294792,498
1765877492.294803,498
1765877492.294816,496
1765877492.2948291,496
1765877492.2948391,497
1765877492.294849,495
1765877492.294859,494
1765877492.294869,493
1765877492.294879,492
1765877492.294889,492
1765877492.294898,492
1765877492.2949078,492
1765877492.2949178,495
1765877492.2949278,496
1765877492.294938,496
1765877492.294948,495
1765877492.294958,494
1765877492.294967,494
1765877492.294977,494
1765877492.294987,494
1765877492.294997,493
1765877492.295007,494
1765877492.295017,494
1765877492.295027,494
1765877492.295037,494
1765877492.2950468,494
1765877492.2950568,495
1765877492.2950668,496
1765877492.295079,496
1765877492.2950962,497
1765877492.295109,497
1765877492.295122,498
1765877492.295135,496
1765877492.2951481,496
1765877492.295161,495
1765877492.295174,496
1765877492.295187,498
1765877492.2952,498
1765877492.295213,498
1765877492.2952251,494
1765877492.295239,494
1765877492.295263,495
1765877492.295276,494
1765877492.295289,494
1765877492.2953012,495
1765877492.295315,498
1765877492.295328,498
1765877492.295341,497
1765877492.2953532,497
1765877492.295367,492
1765877492.2953799,494
1765877492.295394,493
1765877492.295407,493
1765877492.29542,495
1765877492.295433,495
1765877492.295449,495
1765877492.295464,494
1765877492.295477,493
1765877492.29549,494
1765877492.2955022,495
1765877492.2955148,495
1765877492.295528,494
1765877492.2955399,495
1765877492.295553,495
1765877492.295566,495
1765877492.295579,495
1765877492.2955918,495
1765877492.295605,495
1765877492.295618,495
1765877492.2956312,495
1765877492.2956438,496
1765877492.295657,494
1765877492.295669,494
1765877492.295682,495
1765877492.295695,495
1765877492.295708,495
1765877492.295721,495
1765877492.295734,494
1765877492.295747,495
1765877492.295792,496
1765877492.2958279,495
1765877492.29585,495
1765877492.295867,495
1765877492.2958798,494
1765877492.295894,493
1765877492.295907,493
1765877492.295955,494
1765877492.295969,494
1765877492.2959812,494
1765877492.2959921,496
1765877492.296003,496
1765877492.296014,496
1765877492.296078,495
1765877492.2960908,495
1765877492.296103,495
1765877492.296114,495
1765877492.296126,494
1765877492.296138,494
1765877492.296149,494
1765877492.296161,493
1765877492.2961721,494
1765877492.296183,494
1765877492.296195,495
1765877492.296206,496
1765877492.2962172,498
1765877492.2962291,500
1765877492.29624,501
1765877492.296252,499
1765877492.296268,493
1765877492.296279,494
1765877492.296291,496
1765877492.296302,497
1765877492.296314,499
1765877492.2963252,499
1765877492.296337,490
1765877492.2963479,491
1765877492.2963588,494
1765877492.296371,493
1765877492.296382,493
1765877492.2963939,493
1765877492.296405,493
1765877492.296417,494
1765877492.296428,495
1765877492.296441,494
1765877492.2964532,494
1765877492.296464,493
1765877492.296475,494
1765877492.296486,494
1765877492.2964978,494
1765877492.296509,494
1765877492.29652,493
1765877492.296531,495
1765877492.296542,495
1765877492.296553,496
1765877492.296567,495
1765877492.29658,495
1765877492.296591,493
1765877492.296602,493
1765877492.296614,494
1765877492.296625,494
1765877492.2966359,494
1765877492.296648,495
1765877492.296659,494
1765877492.29667,494
1765877492.296682,494
1765877492.296693,495
1765877492.296704,495
1765877492.296716,493
1765877492.296727,494
1765877492.2967381,496
1765877492.296749,494
1765877492.296761,494
1765877492.296772,495
1765877492.2967832,495
1765877492.296795,494
1765877492.2968059,494
1765877492.2968168,495
1765877492.2968278,495
1765877492.29684,493
1765877492.296851,494
1765877492.296865,495
1765877492.296878,495
1765877492.296889,495
1765877492.2969012,495
1765877492.296912,494
1765877492.296923,494
1765877492.2969348,496
1765877492.2969449,495
1765877492.2969549,496
1765877492.2969651,495
1765877492.2969751,493
1765877492.2969851,493
1765877492.2969952,494
1765877492.297005,494
1765877492.297015,494
1765877492.297025,495
1765877492.297035,495
1765877492.297045,495
1765877492.297055,495
1765877492.297065,495
1765877492.297075,496
1765877492.297086,497
1765877492.297096,494
1765877492.2971551,495
1765877492.297175,494
1765877492.2972102,493
1765877492.2972229,494
1765877492.297235,494
1765877492.297245,494
1765877492.2972548,494
1765877492.2972648,495
1765877492.2972748,495
1765877492.297285,495
1765877492.297295,495
1765877492.297306,496
1765877492.297316,495
1765877492.297326,494
1765877492.297337,493
1765877492.297347,494
1765877492.297357,493
1765877492.297367,494
1765877492.297378,494
1765877492.297388,495
1765877492.297399,495
1765877492.297409,494
1765877492.297419,495
1765877492.29743,494
1765877492.29744,494
1765877492.29745,494
1765877492.29746,494
1765877492.2974699,494
1765877492.2974799,494
1765877492.29749,495
1765877492.297503,495
1765877492.297514,495
1765877492.297524,494
1765877492.297534,495
1765877492.297544,494
1765877492.297554,494
1765877492.2975638,496
1765877492.2975738,495
1765877492.297584,495
1765877492.297594,495
1765877492.297604,494
1765877492.297615,494
1765877492.297625,495
1765877492.297635,495
1765877492.297645,496
1765877492.297655,495
1765877492.297665,495
1765877492.297676,494
1765877492.297686,494
1765877492.297696,495
1765877492.297706,495
1765877492.297716,494
1765877492.297726,494
1765877492.297736,494
1765877492.297746,493
1765877492.297757,494
1765877492.297769,494
1765877492.29778,492
1765877492.29779,494
1765877492.2977998,494
1765877492.297811,494
1765877492.297821,495
1765877492.2978308,494
1765877492.2978408,495
1765877492.2978508,495
1765877492.297861,495
1765877492.297871,495
1765877492.2978811,495
1765877492.297892,495
1765877492.297903,494
1765877492.297915,494
1765877492.297926,494
1765877492.297937,494
1765877492.2979488,494
1765877492.29796,494
1765877492.297971,495
1765877492.297983,495
1765877492.297994,494
1765877492.298006,495
1765877492.298017,494
1765877492.298028,495
1765877492.2980402,494
1765877492.298051,494
1765877492.298066,494
1765877492.298078,494
1765877492.298089,495
1765877492.298101,494
1765877492.298112,495
1765877492.2981231,495
1765877492.298135,495
1765877492.298146,495
1765877492.2981582,495
1765877492.2981691,494
1765877492.29818,494
1765877492.2981918,495
1765877492.298203,494
1765877492.298215,494
1765877492.2982259,495
1765877492.2982368,494
1765877492.298249,495
1765877492.29826,495
1765877492.298272,495
1765877492.298283,495
1765877492.298294,495
1765877492.298306,496
1765877492.298317,497
1765877492.298329,497
1765877492.29834,493
1765877492.298368,494
1765877492.298383,493
1765877492.298402,493
1765877492.298421,493
1765877492.298432,494
1765877492.298444,494
1765877492.298455,494
1765877492.298466,494
1765877492.2984772,494
1765877492.298487,494
1765877492.2984982,494
1765877492.298508,494
1765877492.298518,495
1765877492.298528,494
1765877492.298538,495
1765877492.298548,495
1765877492.298558,494
1765877492.298568,495
1765877492.298578,494
1765877492.2985878,494
1765877492.2985978,494
1765877492.298608,494
1765877492.298618,494
1765877492.2986398,495
1765877492.29865,495
1765877492.2986612,494
1765877492.298671,494
1765877492.298684,495
1765877492.2986948,494
1765877492.2987049,493
1765877492.2987142,494
1765877492.2987242,494
1765877492.2987342,495
1765877492.298744,494
1765877492.298753,494
1765877492.298763,494
1765877492.298773,494
1765877492.298783,493
1765877492.298793,495
1765877492.298802,494
1765877492.298812,495
1765877492.298822,495
1765877492.298832,495
1765877492.2988422,495
1765877492.2988522,495
1765877492.298861,495
1765877492.298871,495
1765877492.298883,495
1765877492.298893,495
1765877492.298903,495
1765877492.298912,494
1765877492.298922,495
1765877492.298932,495
1765877492.2989419,494
1765877492.298954,494
1765877492.298965,494
1765877492.298975,495
1765877492.298984,495
1765877492.2989938,495
1765877492.2990038,494
1765877492.2990139,495
1765877492.2990239,496
1765877492.299034,495
1765877492.2990441,495
1765877492.2990541,495
1765877492.299063,495
1765877492.299073,494
1765877492.299083,495
1765877492.299093,494
1765877492.299102,494
1765877492.2991118,495
1765877492.2991219,495
1765877492.2991319,495
1765877492.299142,494
1765877492.299152,494
1765877492.2991621,494
1765877492.299171,495
1765877492.299181,495
1765877492.299191,495
1765877492.299201,495
1765877492.299212,495
1765877492.299223,495
1765877492.299233,495
1765877492.299243,495
1765877492.299253,495
1765877492.299263,496
1765877492.299273,495
1765877492.2992818,495
1765877492.2992918,495
1765877492.2993019,494
1765877492.2993112,494
1765877492.2993212,494
1765877492.2993312,494
1765877492.29934,495
1765877492.29935,496
1765877492.29936,495
1765877492.29937,495
1765877492.29938,495
1765877492.299389,495
1765877492.299399,496
1765877492.299412,497
1765877492.299422,496
1765877492.2994308,497
1765877492.2994409,496
1765877492.2994509,496
1765877492.2994611,495
1765877492.2994711,496
1765877492.299482,496
1765877492.299493,496
1765877492.299503,496
1765877492.2995121,496
1765877492.2995222,495
1765877492.299532,496
1765877492.299542,495
1765877492.299552,495
1765877492.299562,497
1765877492.299571,496
1765877492.2995808,495
1765877492.2995908,496
1765877492.2996008,495
1765877492.2996109,495
1765877492.299621,494
1765877492.2996302,494
1765877492.2996402,495
1765877492.2996569,495
1765877492.299666,495
1765877492.299676,496
1765877492.299686,497
1765877492.2996962,495
1765877492.2997062,494
1765877492.299716,494
1765877492.299725,493
1765877492.299735,495
1765877492.299754,495
1765877492.299765,495
1765877492.299775,495
1765877492.299785,495
1765877492.299794,495
1765877492.299804,495
1765877492.299841,495
1765877492.299851,494
1765877492.299861,495
1765877492.29987,495
1765877492.29988,495
1765877492.2998898,496
1765877492.2998998,495
1765877492.299963,496
1765877492.299973,495
1765877492.299983,494
1765877492.299993,494
1765877492.300002,494
1765877492.300012,494
1765877492.3000221,494
1765877492.300032,495
1765877492.300042,495
1765877492.300052,495
1765877492.300062,494
1765877492.300072,494
1765877492.300081,494
1765877492.300093,494
1765877492.300104,494
1765877492.300114,495
1765877492.300124,495
1765877492.300134,494
1765877492.300143,494
1765877492.300153,495
1765877492.300163,495
1765877492.300173,495
1765877492.300183,494
1765877492.300192,494
1765877492.300202,494
1765877492.300212,495
1765877492.300222,495
1765877492.300232,495
1765877492.300241,495
1765877492.3002508,495
1765877492.300261,495
1765877492.300271,495
1765877492.30028,495
1765877492.30029,494
1765877492.3003001,494
1765877492.300309,495
1765877492.300319,495
1765877492.300329,495
1765877492.300339,495
1765877492.300349,495
1765877492.300361,495
1765877492.300371,494
1765877492.300381,495
1765877492.300391,496
1765877492.300401,495
1765877492.30041,495
1765877492.30042,495
1765877492.30043,495
1765877492.30044,495
1765877492.3004491,494
1765877492.300459,494
1765877492.300469,495
1765877492.300479,495
1765877492.300488,494
1765877492.300498,495
1765877492.300508,495
1765877492.3005178,495
1765877492.300527,495
1765877492.300537,494
1765877492.3005471,493
1765877492.3005571,494
1765877492.3005672,494
1765877492.300577,495
1765877492.3005922,495
1765877492.3006022,495
1765877492.3006122,495
1765877492.3006248,496
1765877492.3006358,495
1765877492.300645,495
1765877492.3006551,495
1765877492.3006651,495
1765877492.3006752,496
1765877492.300684,496
1765877492.300694,495
1765877492.300704,495
1765877492.300714,494
1765877492.300724,495
1765877492.300734,495
1765877492.3007438,495
1765877492.3007529,494
1765877492.300763,494
1765877492.3007731,494
1765877492.3007832,495
1765877492.300792,494
1765877492.300802,495
1765877492.300812,495
1765877492.300822,495
1765877492.300832,495
1765877492.300842,494
1765877492.300852,495
1765877492.3008618,495
1765877492.300871,495
1765877492.300883,495
1765877492.300894,495
1765877492.300904,495
1765877492.3009138,495
1765877492.3009238,495
1765877492.3009338,494
1765877492.3009439,494
1765877492.3009531,495
1765877492.3009632,495
1765877492.300973,495
1765877492.300983,496
1765877492.300993,496
1765877492.301002,495
1765877492.301012,495
1765877492.301022,495
1765877492.3010318,495
1765877492.301041,495
1765877492.301051,495
1765877492.3010612,495
1765877492.301076,495
1765877492.301086,495
1765877492.301096,495
1765877492.301106,495
1765877492.301116,495
1765877492.301125,494
1765877492.301135,495
1765877492.301145,495
1765877492.301158,495
1765877492.3011682,495
1765877492.3011782,495
1765877492.301188,496
1765877492.301198,495
1765877492.301208,494
1765877492.301217,495
1765877492.301227,495
1765877492.301237,495
1765877492.301247,495
1765877492.301257,495
1765877492.301266,495
1765877492.301276,495
1765877492.301286,495
1765877492.3012962,495
1765877492.301306,495
1765877492.301315,495
1765877492.301325,495
1765877492.301335,495
1765877492.301345,495
1765877492.3013551,495
1765877492.301364,495
1765877492.301374,495
1765877492.301384,495
1765877492.301394,494
1765877492.301404,495
1765877492.301431,495
1765877492.301441,495
1765877492.301451,496
1765877492.301461,496
1765877492.301471,496
1765877492.301481,495
1765877492.3014898,495
1765877492.3014998,493
1765877492.3015099,494
1765877492.3015199,494
1765877492.3015301,494
1765877492.3015401,495
1765877492.301549,496
1765877492.301559,495
1765877492.301569,496
1765877492.301579,495
1765877492.301589,495
1765877492.301599,495
1765877492.301609,496
1765877492.301619,495
1765877492.3016288,496
1765877492.301638,495
1765877492.301648,495
1765877492.3016582,495
1765877492.3016682,494
1765877492.301677,494
1765877492.3016891,493
1765877492.3017,494
1765877492.3017101,495
1765877492.301719,495
1765877492.301729,496
1765877492.301739,496
1765877492.301749,495
1765877492.301759,495
1765877492.3017678,494
1765877492.3017778,495
1765877492.3017879,495
1765877492.3017979,495
1765877492.3018072,496
1765877492.3018172,495
1765877492.301827,495
1765877492.301837,496
1765877492.301847,495
1765877492.301857,495
1765877492.301866,495
1765877492.301876,495
1765877492.3018858,495
1765877492.3018959,495
1765877492.3019059,495
1765877492.301916,496
1765877492.3019252,495
1765877492.3019352,495
1765877492.3019469,496
1765877492.3019588,495
1765877492.3019679,496
1765877492.301978,495
1765877492.3019881,495
1765877492.3019981,495
1765877492.3020082,495
1765877492.3020182,495
1765877492.302027,495
1765877492.302038,495
1765877492.302047,496
1765877492.302057,495
1765877492.302067,495
1765877492.3020768,495
1765877492.3020868,495
1765877492.302096,496
1765877492.3021061,495
1765877492.3021162,496
1765877492.3021262,496
1765877492.3021362,496
1765877492.302145,496
1765877492.302155,495
1765877492.302166,495
1765877492.302175,495
1765877492.302185,495
1765877492.3021948,496
1765877492.3022048,496
1765877492.302217,495
1765877492.302227,496
1765877492.302237,495
1765877492.3022468,496
1765877492.3022568,496
1765877492.3022661,495
1765877492.3022761,495
1765877492.302287,496
1765877492.302301,495
1765877492.302311,496
1765877492.302321,496
1765877492.302331,496
1765877492.3023412,495
1765877492.30235,496
1765877492.3023648,495
1765877492.3023748,496
1765877492.3023849,496
1765877492.3023942,496
1765877492.3024042,496
1765877492.3024142,496
1765877492.302424,495
1765877492.302434,495
1765877492.302443,495
1765877492.302453,495
1765877492.302463,495
1765877492.302473,495
1765877492.302485,496
1765877492.302495,497
1765877492.302505,496
1765877492.302515,495
1765877492.302525,495
1765877492.3025348,495
1765877492.3025439,495
1765877492.3025541,496
1765877492.3025641,496
1765877492.3025742,496
1765877492.302583,496
1765877492.302593,495
1765877492.302603,496
1765877492.302613,497
1765877492.302623,496
1765877492.302633,495
1765877492.3026419,495
1765877492.302652,495
1765877492.302662,496
1765877492.302672,496
1765877492.3026822,496
1765877492.302691,496
1765877492.302701,496
1765877492.302711,496
1765877492.302721,495
1765877492.302731,496
1765877492.3027399,496
1765877492.302753,496
1765877492.302763,496
1765877492.302773,496
1765877492.302782,496
1765877492.3027918,495
1765877492.3028018,495
1765877492.302811,496
1765877492.3028212,496
1765877492.3028312,497
1765877492.3028412,497
1765877492.302851,497
1765877492.302861,496
1765877492.302871,496
1765877492.30288,496
1765877492.30289,496
1765877492.3029,496
1765877492.3029099,496
1765877492.302919,496
1765877492.302929,496
1765877492.302939,497
1765877492.3029492,496
1765877492.3029592,496
1765877492.302969,495
1765877492.302979,495
1765877492.302988,495
1765877492.302998,496
1765877492.30301,495
1765877492.303021,495
1765877492.303102,495
1765877492.303114,495
1765877492.303124,494
1765877492.303133,494
1765877492.303143,495
1765877492.3031528,496
1765877492.3031628,496
1765877492.303173,497
1765877492.303183,498
1765877492.303193,499
1765877492.3032022,498
1765877492.303212,498
1765877492.303222,498
1765877492.303232,497
1765877492.303242,497
1765877492.303252,497
1765877492.303262,497
1765877492.303272,497
1765877492.3032808,497
1765877492.3032908,497
1765877492.303301,497
1765877492.303311,496
1765877492.3033228,496
1765877492.30339,496
1765877492.303466,497
1765877492.303513,496
1765877492.303584,497
1765877492.303599,496
1765877492.303615,497
1765877492.303628,495
1765877492.303644,495
1765877492.3037481,496
1765877492.303881,496
1765877492.30392,496
1765877492.30393,496
1765877492.30394,496
1765877492.30395,496
1765877492.30396,496
1765877492.30397,496
1765877492.30398,496
1765877492.3039901,497
1765877492.304,497
1765877492.30401,496
1765877492.30402,496
1765877492.304029,495
1765877492.304039,496
1765877492.304049,496
1765877492.3040588,496
1765877492.304069,495
1765877492.304079,495
1765877492.3040938,496
1765877492.3041039,495
1765877492.3041139,495
1765877492.3041239,496
1765877492.304134,496
1765877492.304144,495
1765877492.304161,496
1765877492.304178,496
1765877492.304193,496
1765877492.304203,495
1765877492.304213,496
1765877492.304223,496
1765877492.304233,496
1765877492.3042428,495
1765877492.304252,496
1765877492.304262,496
1765877492.304272,495
1765877492.3042822,496
1765877492.3042922,495
1765877492.304302,496
1765877492.304311,496
1765877492.304321,496
1765877492.304331,496
1765877492.304341,496
1765877492.304351,497
1765877492.30436,496
1765877492.304372,496
1765877492.304384,497
1765877492.304394,496
1765877492.3044028,496
1765877492.3044128,496
1765877492.3044229,496
1765877492.3044329,496
1765877492.304443,496
1765877492.3044531,495
1765877492.3044631,496
1765877492.3044732,496
1765877492.304482,496
1765877492.304492,495
1765877492.304502,496
1765877492.304512,496
1765877492.304522,497
1765877492.304532,497
1765877492.304542,496
1765877492.3045518,497
1765877492.304567,496
1765877492.304577,495
1765877492.3045871,495
1765877492.304597,495
1765877492.304606,495
1765877492.304616,496
1765877492.304626,496
1765877492.304638,497
1765877492.3046489,497
1765877492.304659,496
1765877492.304669,497
1765877492.304679,496
1765877492.304689,496
1765877492.3046982,496
1765877492.304708,496
1765877492.304718,495
1765877492.304728,496
1765877492.304738,496
1765877492.304748,496
1765877492.3047569,496
1765877492.304767,497
1765877492.304777,497
1765877492.304787,497
1765877492.304797,497
1765877492.304807,496
1765877492.304817,496
1765877492.304827,496
1765877492.3048372,496
1765877492.304847,497
1765877492.304856,496
1765877492.304866,496
1765877492.304876,495
1765877492.304886,496
1765877492.304896,496
1765877492.3049102,496
1765877492.30492,496
1765877492.30493,497
1765877492.304939,498
1765877492.304949,498
1765877492.304959,497
1765877492.304969,498
1765877492.304978,498
1765877492.3049889,497
1765877492.3049989,496
1765877492.3050082,495
1765877492.3050182,495
1765877492.3050282,494
1765877492.305038,494
1765877492.305048,495
1765877492.305058,496
1765877492.305068,497
1765877492.305078,495
1765877492.305087,495
1765877492.3050969,495
1765877492.3051069,495
1765877492.305117,495
1765877492.305127,495
1765877492.305137,495
1765877492.3051462,496
1765877492.305156,496
1765877492.3051689,497
1765877492.3051798,497
1765877492.3051898,497
1765877492.3052,497
1765877492.3052092,497
1765877492.3052192,497
1765877492.305229,496
1765877492.305239,495
1765877492.305249,495
1765877492.305259,495
1765877492.305269,496
1765877492.305278,497
1765877492.3052878,496
1765877492.3052979,496
1765877492.3053079,497
1765877492.3053179,496
1765877492.3053281,495
1765877492.3053372,494
1765877492.305347,496
1765877492.305357,496
1765877492.305367,495
1765877492.305377,496
1765877492.305387,496
1765877492.305396,496
1765877492.3054059,495
1765877492.3054159,494
1765877492.305428,494
1765877492.305439,495
1765877492.305449,496
1765877492.305459,496
1765877492.305469,499
1765877492.3054779,499
1765877492.3054879,498
1765877492.3054981,496
1765877492.3055081,495
1765877492.3055182,495
1765877492.3055282,496
1765877492.305538,496
1765877492.3055491,496
1765877492.3055592,498
1765877492.305569,497
1765877492.305579,498
1765877492.305589,498
1765877492.305599,498
1765877492.305609,497
1765877492.3056178,496
1765877492.3056278,494
1765877492.3056378,493
1765877492.305648,493
1765877492.305658,494
1765877492.305668,496
1765877492.305677,495
1765877492.305687,496
1765877492.305701,497
1765877492.305711,496
1765877492.305721,496
1765877492.305731,496
1765877492.30574,496
1765877492.3057501,495
1765877492.30576,495
1765877492.30577,496
1765877492.305779,495
1765877492.305789,496
1765877492.305799,497
1765877492.3058088,497
1765877492.305818,497
1765877492.305828,497
1765877492.305838,497
1765877492.3058481,497
1765877492.3058581,496
1765877492.3058681,496
1765877492.305877,496
1765877492.305887,495
1765877492.305897,495
1765877492.305907,495
1765877492.305917,496
1765877492.3059268,495
1765877492.3059359,495
1765877492.305946,496
1765877492.3059578,496
1765877492.305969,496
1765877492.3059788,497
1765877492.305989,498
1765877492.305999,498
1765877492.306008,499
1765877492.306018,498
1765877492.3060281,499
1765877492.306038,497
1765877492.306048,495
1765877492.306057,494
1765877492.306067,495
1765877492.306077,495
1765877492.306087,496
1765877492.3060968,496
1765877492.3061068,496
1765877492.306116,496
1765877492.306126,495
1765877492.3061361,496
1765877492.3061461,497
1765877492.306156,497
1765877492.306166,496
1765877492.306176,496
1765877492.306185,496
1765877492.306195,496
1765877492.306205,496
1765877492.3062148,495
1765877492.306227,496
1765877492.306237,496
1765877492.306247,496
1765877492.306257,496
1765877492.3062668,496
1765877492.306277,496
1765877492.306287,496
1765877492.306296,496
1765877492.3063061,496
1765877492.3063161,495
1765877492.306326,496
1765877492.306336,496
1765877492.306346,496
1765877492.306355,496
1765877492.306365,496
1765877492.306375,496
1765877492.3063848,496
1765877492.3063948,495
1765877492.306405,495
1765877492.3064141,496
1765877492.3064241,495
1765877492.3064342,496
1765877492.306444,497
1765877492.306454,497
1765877492.306463,496
1765877492.306473,496
1765877492.3064861,497
1765877492.306497,496
1765877492.306507,496
1765877492.306516,496
1765877492.306526,496
1765877492.306536,496
1765877492.306546,496
1765877492.306556,496
1765877492.306565,496
1765877492.306575,496
1765877492.306585,496
1765877492.3065999,496
1765877492.3066099,496
1765877492.30662,495
1765877492.30663,495
1765877492.30664,495
1765877492.3066502,495
1765877492.306659,497
1765877492.306674,496
1765877492.306684,497
1765877492.3066938,497
1765877492.3067038,497
1765877492.306714,496
1765877492.306723,496
1765877492.3067331,496
1765877492.306748,496
1765877492.3067589,496
1765877492.3067698,496
1765877492.3067799,496
1765877492.3067899,496
1765877492.3068001,495
1765877492.3068101,496
1765877492.3068202,496
1765877492.3068302,497
1765877492.306839,496
1765877492.306849,496
1765877492.306859,496
1765877492.306869,496
1765877492.306879,496
1765877492.306889,496
1765877492.3068988,496
1765877492.3069088,497
1765877492.306918,496
1765877492.3069282,496
1765877492.3069382,496
1765877492.3069482,496
1765877492.3069582,496
1765877492.306967,496
1765877492.306977,495
1765877492.306987,496
1765877492.306997,496
1765877492.307007,496
1765877492.3070168,496
1765877492.307029,496
1765877492.307039,496
1765877492.307049,496
1765877492.307059,496
1765877492.3070688,496
1765877492.307078,496
1765877492.307088,497
1765877492.3070982,496
1765877492.3071082,496
1765877492.3071182,496
1765877492.307136,496
1765877492.307146,496
1765877492.307155,495
1765877492.307165,496
1765877492.307175,496
1765877492.307185,496
1765877492.307195,496
1765877492.307204,495
1765877492.307214,495
1765877492.307224,496
1765877492.307234,497
1765877492.307244,496
1765877492.307253,497
1765877492.307263,497
1765877492.307274,497
1765877492.307283,497
1765877492.307295,497
1765877492.307306,497
1765877492.307316,497
1765877492.3073258,498
1765877492.3073359,497
1765877492.3073459,497
1765877492.3073559,497
1765877492.307366,496
1765877492.3073761,497
1765877492.3073862,496
1765877492.3073962,497
1765877492.3074062,496
1765877492.307415,496
1765877492.307425,496
1765877492.307435,497
1765877492.307445,496
1765877492.307455,496
1765877492.307465,496
1765877492.307474,496
1765877492.307484,497
1765877492.307494,497
1765877492.307503,496
1765877492.307513,496
1765877492.307523,496
1765877492.307533,496
1765877492.307543,496
1765877492.307554,496
1765877492.3075662,496
1765877492.307575,496
1765877492.307585,496
1765877492.307595,495
1765877492.307605,496
1765877492.3076138,496
1765877492.3076239,496
1765877492.3076339,496
1765877492.307644,495
1765877492.3076532,496
1765877492.3076632,496
1765877492.307673,496
1765877492.307683,497
1765877492.307693,496
1765877492.307703,496
1765877492.307712,496
1765877492.307722,496
1765877492.3077319,495
1765877492.3077419,496
1765877492.307752,497
1765877492.307762,496
1765877492.307771,496
1765877492.307783,496
1765877492.307793,496
1765877492.307803,496
1765877492.3078122,496
1765877492.3078249,496
1765877492.3078349,496
1765877492.3078442,495
1765877492.307853,496
1765877492.307862,496
1765877492.3078709,496
1765877492.30788,496
1765877492.307888,495
1765877492.307897,496
1765877492.3079062,496
1765877492.307915,496
1765877492.307924,496
1765877492.3079329,496
1765877492.3079412,496
1765877492.30795,496
1765877492.307959,496
1765877492.307968,495
1765877492.307977,495
1765877492.307986,495
1765877492.3079948,496
1765877492.3080041,496
1765877492.308012,496
1765877492.308021,496
1765877492.30803,496
1765877492.308039,496
1765877492.3080478,496
1765877492.308059,496
1765877492.3080692,496
1765877492.308077,496
1765877492.308086,495
1765877492.308095,496
1765877492.308104,496
1765877492.3081129,496
1765877492.3081222,496
1765877492.30813,496
1765877492.308139,495
1765877492.308148,495
1765877492.308157,496
1765877492.3081658,495
1765877492.3081741,495
1765877492.308183,496
1765877492.308193,496
1765877492.308201,496
1765877492.30821,496
1765877492.308219,496
1765877492.308228,496
1765877492.308237,496
1765877492.308246,495
1765877492.308255,496
1765877492.3082628,495
1765877492.3082721,495
1765877492.3082812,495
1765877492.30829,495
1765877492.3083022,495
1765877492.308311,495
1765877492.308319,495
1765877492.308328,496
1765877492.308337,495
1765877492.308346,495
1765877492.308355,496
1765877492.308364,495
1765877492.308373,495
1765877492.308382,496
1765877492.30839,495
1765877492.3083992,496
1765877492.308408,496
1765877492.308417,496
1765877492.308426,495
1765877492.308435,495
1765877492.3084428,495
1765877492.3084521,495
1765877492.308461,495
1765877492.30847,495
1765877492.308479,495
1765877492.308488,496
1765877492.308497,495
1765877492.308505,495
1765877492.308514,496
1765877492.308523,496
1765877492.308534,496
1765877492.308544,496
1765877492.308553,495
1765877492.3085608,495
1765877492.3085701,496
1765877492.308579,496
1765877492.308588,496
1765877492.308596,495
1765877492.308605,496
1765877492.3086138,496
1765877492.308623,496
1765877492.3086321,495
1765877492.308641,496
1765877492.30865,495
1765877492.308658,495
1765877492.308667,495
1765877492.308676,496
1765877492.308685,496
1765877492.308693,496
1765877492.308702,495
1765877492.3087108,495
1765877492.30872,496
1765877492.3087292,496
1765877492.308738,495
1765877492.308746,495
1765877492.308755,495
1765877492.308766,495
1765877492.308776,495
1765877492.308785,496
1765877492.308794,496
1765877492.308803,496
1765877492.308811,495
1765877492.30882,495
1765877492.3088288,495
1765877492.308838,495
1765877492.3088472,495
1765877492.308856,495
1765877492.308865,495
1765877492.308873,495
1765877492.308883,495
1765877492.3088908,495
1765877492.308903,495
1765877492.308912,496
1765877492.308921,494
1765877492.3089302,495
1765877492.308939,495
1765877492.308948,495
1765877492.3089569,495
1765877492.308966,495
1765877492.3089752,495
1765877492.308983,495
1765877492.308992,495
1765877492.309001,495
1765877492.309012,495
1765877492.309022,495
1765877492.309031,496
1765877492.30904,495
1765877492.3090491,496
1765877492.309058,495
1765877492.309067,495
1765877492.309076,495
1765877492.309085,495
1765877492.3090932,495
1765877492.309102,495
1765877492.3091168,495
1765877492.309129,495
1765877492.3091378,495
1765877492.309147,495
1765877492.309155,495
1765877492.309164,495
1765877492.309173,495
1765877492.309182,495
1765877492.309191,495
1765877492.309199,494
1765877492.3092082,495
1765877492.309217,496
1765877492.309226,495
1765877492.3092349,494
1765877492.309243,495
1765877492.309255,495
1765877492.309264,495
1765877492.309273,495
1765877492.309282,496
1765877492.3092911,495
1765877492.309299,495
1765877492.3093078,495
1765877492.309317,495
1765877492.3093262,495
1765877492.309335,495
1765877492.309344,495
1765877492.3093529,495
1765877492.309362,495
1765877492.309371,495
1765877492.309379,495
1765877492.309388,495
1765877492.309397,495
1765877492.309406,495
1765877492.3094149,495
1765877492.3094242,495
1765877492.309432,495
1765877492.309441,495
1765877492.30945,496
1765877492.309459,496
1765877492.3094678,495
1765877492.309477,496
1765877492.3094862,495
1765877492.309498,495
1765877492.3095129,495
1765877492.309522,495
1765877492.309531,495
1765877492.30954,496
1765877492.3095481,496
1765877492.309557,496
1765877492.309566,495
1765877492.3095748,495
1765877492.3095832,495
1765877492.309592,495
1765877492.309601,495
1765877492.30961,495
1765877492.309619,495
1765877492.309628,495
1765877492.309637,496
1765877492.3096461,495
1765877492.309654,495
1765877492.309663,495
1765877492.3096719,495
1765877492.309681,495
1765877492.30969,495
1765877492.309699,495
1765877492.309708,495
1765877492.309717,496
1765877492.309725,495
1765877492.309739,495
1765877492.309748,495
1765877492.309757,496
1765877492.3097658,495
1765877492.309775,495
1765877492.3097842,496
1765877492.309792,496
1765877492.3098009,496
1765877492.30981,495
1765877492.30982,495
1765877492.3098292,495
1765877492.309837,496
1765877492.309846,495
1765877492.309855,495
1765877492.309864,495
1765877492.3098729,496
1765877492.3098822,496
1765877492.309891,495
1765877492.309899,495
1765877492.309908,496
1765877492.309917,496
1765877492.3099258,495
1765877492.309935,495
1765877492.309943,496
1765877492.309952,495
1765877492.3099608,496
1765877492.3099709,496
1765877492.3099809,496
1765877492.30999,496
1765877492.309999,496
1765877492.310008,495
1765877492.310017,495
1765877492.310025,495
1765877492.310034,496
1765877492.3100429,495
1765877492.3100522,495
1765877492.310061,495
1765877492.31007,495
1765877492.3100789,495
1765877492.310087,495
1765877492.3100958,496
1765877492.310105,496
1765877492.3101141,496
1765877492.310123,495
1765877492.310132,496
1765877492.3101408,495
1765877492.3101492,495
1765877492.310158,495
1765877492.310167,495
1765877492.310176,495
1765877492.310185,495
1765877492.310194,496
1765877492.3102028,495
1765877492.310213,495
1765877492.3102238,496
1765877492.310233,495
1765877492.310242,495
1765877492.31025,496
1765877492.3102589,495
1765877492.310268,496
1765877492.3102772,495
1765877492.310286,495
1765877492.310295,494
1765877492.310304,496
1765877492.310313,496
1765877492.3103218,495
1765877492.3103309,496
1765877492.3103402,496
1765877492.310348,496
1765877492.310357,496
1765877492.310366,496
1765877492.310375,496
1765877492.310384,495
1765877492.310393,496
1765877492.3104022,495
1765877492.310411,495
1765877492.3104188,496
1765877492.310428,496
1765877492.3104372,496
1765877492.3104482,496
1765877492.3104582,496
1765877492.310467,496
1765877492.310476,496
1765877492.310485,496
1765877492.310494,496
1765877492.310503,496
1765877492.310512,497
1765877492.3105211,497
1765877492.310529,497
1765877492.310538,497
1765877492.3105469,497
1765877492.310556,497
1765877492.3105652,497
1765877492.310574,497
1765877492.310583,496
1765877492.310592,497
1765877492.310601,497
1765877492.3106098,497
1765877492.3106189,497
1765877492.3106282,496
1765877492.310637,496
1765877492.310645,496
1765877492.310654,496
1765877492.310663,495
1765877492.3106718,496
1765877492.310681,496
1765877492.310693,496
1765877492.310702,496
1765877492.31071,496
1765877492.310719,496
1765877492.3107278,496
1765877492.310737,496
1765877492.3107462,496
1765877492.310755,495
1765877492.310764,495
1765877492.310773,496
1765877492.310781,496
1765877492.3107898,495
1765877492.3107991,495
1765877492.3108082,496
1765877492.310817,496
1765877492.310826,496
1765877492.310835,496
1765877492.310843,496
1765877492.310852,496
1765877492.310861,495
1765877492.31087,496
1765877492.310879,495
1765877492.310888,496
1765877492.3108969,496
1765877492.310905,495
1765877492.310963,496
1765877492.310983,495
1765877492.310993,495
1765877492.311002,496
1765877492.311011,495
1765877492.3110201,496
1765877492.311029,496
1765877492.3110368,496
1765877492.311046,496
1765877492.3110552,496
1765877492.311064,495
1765877492.311073,496
1765877492.311082,496
1765877492.311091,496
1765877492.3111,495
1765877492.311109,495
1765877492.3111181,496
1765877492.3111339,495
1765877492.311143,495
1765877492.3111522,496
1765877492.311161,495
1765877492.31117,496
1765877492.311179,495
1765877492.311188,496
1765877492.311197,496
1765877492.3112059,496
1765877492.3112152,496
1765877492.3112252,496
1765877492.3112352,496
1765877492.311244,496
1765877492.3112519,496
1765877492.311261,496
1765877492.31127,496
1765877492.311279,496
1765877492.311288,496
1765877492.311297,496
1765877492.311306,496
1765877492.311315,496
1765877492.311324,496
1765877492.311332,496
1765877492.311341,496
1765877492.31135,495
1765877492.311359,495
1765877492.311368,496
1765877492.311378,496
1765877492.3113868,496
1765877492.3113952,495
1765877492.311404,495
1765877492.311413,495
1765877492.3114219,496
1765877492.311431,496
1765877492.31144,496
1765877492.311449,496
1765877492.311458,495
1765877492.31147,496
1765877492.311479,496
1765877492.3114932,496
1765877492.311502,496
1765877492.311511,496
1765877492.31152,496
1765877492.311529,496
1765877492.311538,496
1765877492.3115468,496
1765877492.311556,496
1765877492.311564,495
1765877492.311573,496
1765877492.3115819,496
1765877492.311591,496
1765877492.3116002,496
1765877492.311609,496
1765877492.311618,496
1765877492.311627,495
1765877492.311636,495
1765877492.311645,496
1765877492.3116539,495
1765877492.3116632,496
1765877492.311671,496
1765877492.31168,496
1765877492.311689,497
1765877492.311698,496
1765877492.311709,495
1765877492.311718,496
1765877492.311727,495
1765877492.311736,495
1765877492.311745,496
1765877492.311754,496
1765877492.3117619,496
1765877492.311771,496
1765877492.3117802,496
1765877492.311789,496
1765877492.311798,496
1765877492.311807,496
1765877492.311816,496
1765877492.3118248,496
1765877492.311834,496
1765877492.3118432,496
1765877492.311852,496
1765877492.311861,496
1765877492.3118699,495
1765877492.311978,496
1765877492.3119879,495
1765877492.311997,496
1765877492.312005,496
1765877492.312014,496
1765877492.312023,495
1765877492.312032,496
1765877492.312043,496
1765877492.312053,495
1765877492.312062,496
1765877492.3120708,496
1765877492.31208,495
1765877492.3120902,496
1765877492.312099,496
1765877492.312107,496
1765877492.312117,496
1765877492.312126,496
1765877492.312135,495
1765877492.312143,495
1765877492.3121521,496
1765877492.312161,495
1765877492.31217,496
1765877492.3121789,496
1765877492.312187,496
1765877492.312196,496
1765877492.312206,496
1765877492.312214,496
1765877492.312223,495
1765877492.312232,496
1765877492.3122408,496
1765877492.3122492,496
1765877492.312258,496
1765877492.312267,496
1765877492.312276,496
1765877492.312287,496
1765877492.312296,496
1765877492.312305,496
1765877492.312314,496
1765877492.312323,496
1765877492.312332,496
1765877492.312341,496
1765877492.31235,497
1765877492.3123589,497
1765877492.3123672,496
1765877492.312376,496
1765877492.312385,496
1765877492.312393,496
1765877492.312402,496
1765877492.3124108,496
1765877492.3124201,496
1765877492.312429,496
1765877492.312438,495
1765877492.312447,495
1765877492.312456,496
1765877492.312495,495
1765877492.312505,496
1765877492.312515,496
1765877492.312524,496
1765877492.312533,496
1765877492.312542,496
1765877492.312551,496
1765877492.312564,496
1765877492.312573,496
1765877492.3125818,495
1765877492.312591,496
1765877492.3126001,495
1765877492.312609,496
1765877492.312618,496
1765877492.3126268,497
1765877492.312636,496
1765877492.3126452,496
1765877492.312654,495
1765877492.312663,495
1765877492.312673,496
1765877492.312682,496
1765877492.312691,496
1765877492.3126998,497
1765877492.3127098,497
1765877492.3127198,497
1765877492.3127291,496
1765877492.312738,497
1765877492.312747,496
1765877492.312756,496
1765877492.312765,496
1765877492.312774,496
1765877492.312783,496
1765877492.312792,497
1765877492.312803,496
1765877492.312814,496
1765877492.312823,496
1765877492.312832,496
1765877492.312841,496
1765877492.312851,496
1765877492.31286,496
1765877492.312868,496
1765877492.3128781,496
1765877492.312887,496
1765877492.312896,496
1765877492.312905,496
1765877492.312914,495
1765877492.312923,496
1765877492.312932,496
1765877492.312942,495
1765877492.312951,496
1765877492.312959,496
1765877492.312969,496
1765877492.312978,496
1765877492.3129869,496
1765877492.3129961,496
1765877492.313005,496
1765877492.313014,496
1765877492.313023,496
1765877492.313032,496
1765877492.313041,496
1765877492.313053,496
1765877492.313062,496
1765877492.313071,496
1765877492.313081,496
1765877492.31309,496
1765877492.313099,496
1765877492.313108,496
1765877492.313117,496
1765877492.3131258,496
1765877492.3131351,496
1765877492.313144,496
1765877492.313153,496
1765877492.313162,496
1765877492.313171,496
1765877492.31318,496
1765877492.313189,496
1765877492.313198,496
1765877492.3132071,496
1765877492.313216,496
1765877492.313225,496
1765877492.3132339,496
1765877492.313243,496
1765877492.3132522,496
1765877492.313262,496
1765877492.313271,496
1765877492.31328,496
1765877492.313289,495
1765877492.313298,496
1765877492.3133068,495
1765877492.313316,495
1765877492.3133252,496
1765877492.313334,496
1765877492.313343,496
1765877492.3133519,496
1765877492.313361,496
1765877492.3133702,495
1765877492.313379,495
1765877492.313388,496
1765877492.313397,496
1765877492.313406,496
1765877492.3134148,496
1765877492.3134239,496
1765877492.3134332,496
1765877492.313442,496
1765877492.313451,496
1765877492.3134599,496
1765877492.313469,496
1765877492.313479,496
1765877492.3134878,496
1765877492.313497,496
1765877492.3135061,495
1765877492.313515,496
1765877492.313524,495
1765877492.3135328,496
1765877492.313542,496
1765877492.3135512,496
1765877492.31356,496
1765877492.313569,495
1765877492.313578,496
1765877492.313587,496
1765877492.313596,496
1765877492.3136058,496
1765877492.313615,495
1765877492.3136241,495
1765877492.313633,496
1765877492.313642,496
1765877492.3136508,496
1765877492.31366,496
1765877492.3136692,496
1765877492.313678,495
1765877492.313688,497
1765877492.313697,495
1765877492.313706,496
1765877492.313714,496
1765877492.3137228,495
1765877492.313733,496
1765877492.3137422,496
1765877492.313751,496
1765877492.31376,496
1765877492.3137689,496
1765877492.313778,496
1765877492.313786,496
1765877492.3137941,495
1765877492.313803,496
1765877492.3138108,496
1765877492.313819,496
1765877492.313827,495
1765877492.313837,496
1765877492.313846,496
1765877492.313854,495
1765877492.3138618,496
1765877492.3138711,496
1765877492.313879,496
1765877492.313896,496
1765877492.313904,496
1765877492.313913,496
1765877492.313921,496
1765877492.3139288,496
1765877492.313937,496
1765877492.313946,497
1765877492.313954,497
1765877492.313962,497
1765877492.313971,497
1765877492.313979,496
1765877492.313987,496
1765877492.3139951,497
1765877492.314004,497
1765877492.3140118,497
1765877492.3140202,497
1765877492.314028,497
1765877492.314037,497
1765877492.314045,497
1765877492.314053,497
1765877492.3140612,497
1765877492.31407,498
1765877492.3140779,497
1765877492.314086,497
1765877492.314094,496
1765877492.3141031,496
1765877492.314111,495
1765877492.3141189,496
1765877492.314128,497
1765877492.314136,496
1765877492.314144,496
1765877492.314152,496
1765877492.31416,495
1765877492.3141692,496
1765877492.314177,496
1765877492.314185,496
1765877492.314193,496
1765877492.314202,496
1765877492.31421,496
1765877492.314218,496
1765877492.314226,496
1765877492.314235,495
1765877492.314243,496
1765877492.314251,496
1765877492.314259,495
1765877492.314267,496
1765877492.314276,496
1765877492.314284,495
1765877492.314306,495
1765877492.314314,495
1765877492.314323,495
1765877492.3143308,496
1765877492.3143392,496
1765877492.314347,495
1765877492.3143559,495
1765877492.314364,495
1765877492.314372,496
1765877492.3143811,495
1765877492.314389,495
1765877492.3143969,495
1765877492.314406,496
1765877492.314414,495
1765877492.3144221,495
1765877492.314431,495
1765877492.3144388,495
1765877492.3144472,495
1765877492.314455,496
1765877492.314464,495
1765877492.314472,495
1765877492.31448,495
1765877492.3144882,495
1765877492.314497,495
1765877492.3145049,496
1765877492.314513,496
1765877492.314522,496
1765877492.3145301,496
1765877492.314538,495
1765877492.314547,496
1765877492.314555,495
1765877492.314563,495
1765877492.314571,495
1765877492.31458,496
1765877492.3145878,495
1765877492.3145962,495
1765877492.314605,495
1765877492.314613,495
1765877492.314621,496
1765877492.3146298,495
1765877492.3146381,495
1765877492.314646,495
1765877492.3146539,496
1765877492.314663,495
1765877492.314904,496
1765877492.315927,496
1765877492.316928,495
1765877492.317965,495
1765877492.318971,495
1765877492.319978,495
1765877492.320958,495
1765877492.3219688,495
1765877492.322979,495
1765877492.323957,495
1765877492.324994,495
1765877492.325975,495
1765877492.3269708,495
1765877492.32796,495
1765877492.328974,495
1765877492.329959,495
1765877492.330988,495
1765877492.3319979,495
1765877492.3329878,495
1765877492.333979,495
1765877492.3349812,495
1765877492.335976,495
1765877492.33697,496
1765877492.3379729,496
1765877492.338971,495
1765877492.339998,495
1765877492.340992,495
1765877492.341986,495
1765877492.343009,495
1765877492.343988,495
1765877492.345004,495
1765877492.3460102,495
1765877492.347023,496
1765877492.348017,495
1765877492.349066,495
1765877492.3500538,495
1765877492.351079,495
1765877492.3520808,495
1765877492.3530319,496
1765877492.3540611,495
1765877492.355072,495
1765877492.356069,495
1765877492.3570392,495
1765877492.358079,495
1765877492.359087,496
1765877492.360084,496
1765877492.361079,496
1765877492.3620439,496
1765877492.363115,495
1765877492.364102,495
1765877492.365105,495
1765877492.366129,496
1765877492.367094,495
1765877492.3681211,496
1765877492.3691149,496
1765877492.370142,495
1765877492.371124,495
1765877492.372118,495
1765877492.373121,496
1765877492.374101,496
1765877492.375104,495
1765877492.376083,496
1765877492.377101,496
1765877492.3781052,495
1765877492.379115,496
1765877492.380109,496
1765877492.3811479,496
1765877492.382108,495
1765877492.383113,495
1765877492.384107,495
1765877492.385107,495
1765877492.386118,495
1765877492.387124,496
1765877492.388177,495
1765877492.389148,495
1765877492.3901608,496
1765877492.391179,496
1765877492.3921542,495
1765877492.3931892,495
1765877492.39419,496
1765877492.395194,496
1765877492.396182,496
1765877492.397187,495
1765877492.398189,496
1765877492.399167,496
1765877492.4001899,495
1765877492.401203,495
1765877492.4022121,496
1765877492.4032059,495
1765877492.40419,495
1765877492.405196,496
1765877492.4062238,496
1765877492.4071958,495
1765877492.408208,496
1765877492.4092171,496
1765877492.4102259,495
1765877492.4111931,495
1765877492.412218,496
1765877492.413223,496
1765877492.414283,495
1765877492.415348,495
1765877492.416255,495
1765877492.417221,496
1765877492.418224,495
1765877492.419216,496
1765877492.4202628,496
1765877492.4212348,496
1765877492.422324,496
1765877492.423319,496
1765877492.424317,495
1765877492.425308,495
1765877492.426307,495
1765877492.4273112,496
1765877492.428304,496
1765877492.429322,496
1765877492.430321,496
1765877492.43132,495
1765877492.4323468,496
1765877492.433334,495
1765877492.434317,496
1765877492.435308,496
1765877492.436311,495
1765877492.437309,495
1765877492.438306,495
1765877492.439313,496
1765877492.4403121,496
1765877492.441317,495
1765877492.4423091,495
1765877492.443313,496
1765877492.444306,496
1765877492.445306,495
1765877492.4463098,496
1765877492.4473112,496
1765877492.448307,495
1765877492.449305,495
1765877492.450308,496
1765877492.451307,495
1765877492.4523141,496
1765877492.4533288,495
1765877492.45435,496
1765877492.4553401,495
1765877492.456353,496
1765877492.457385,496
1765877492.458339,496
1765877492.459328,496
1765877492.460333,495
1765877492.461339,495
1765877492.462344,496
1765877492.463326,496
1765877492.464353,495
1765877492.4653618,496
1765877492.466357,496
1765877492.4673762,495
1765877492.468384,495
1765877492.469375,495
1765877492.4703622,496
1765877492.471376,496
1765877492.4723709,495
1765877492.473381,495
1765877492.474381,496
1765877492.475368,496
1765877492.476377,495
1765877492.477411,495
1765877492.478385,496
1765877492.47939,496
1765877492.480384,495
1765877492.481388,496
1765877492.4823859,495
1765877492.4833899,495
1765877492.484406,495
1765877492.485409,495
1765877492.486428,496
1765877492.487416,496
1765877492.4884229,495
1765877492.489411,496
1765877492.490426,496
1765877492.4914172,496
1765877492.492419,496
1765877492.493428,496
1765877492.494436,496
1765877492.495432,495
1765877492.496463,496
1765877492.497476,495
1765877492.4984782,496
1765877492.4995232,496
1765877492.500469,495
1765877492.501481,496
1765877492.502453,495
1765877492.5034618,496
1765877492.504468,495
1765877492.5054688,495
1765877492.506451,496
1765877492.507493,496
1765877492.50848,496
1765877492.5094788,495
1765877492.510488,495
1765877492.511476,495
1765877492.51249,495
1765877492.513479,496
1765877492.514483,496
1765877492.515497,495
1765877492.5165062,496
1765877492.517511,496
1765877492.518517,495
1765877492.519522,496
1765877492.520499,495
1765877492.52151,495
1765877492.522518,496
1765877492.523524,496
1765877492.524537,495
1765877492.525551,496
1765877492.5265238,496
1765877492.527529,496
1765877492.528537,495
1765877492.529556,496
1765877492.5305321,495
1765877492.531533,496
1765877492.532539,496
1765877492.53354,495
1765877492.534548,496
1765877492.535552,495
1765877492.536576,495
1765877492.537581,495
1765877492.538584,495
1765877492.539605,495
1765877492.5406022,496
1765877492.541596,496
1765877492.5426,495
1765877492.543581,495
1765877492.544578,495
1765877492.545592,495
1765877492.546583,496
1765877492.547574,495
1765877492.548598,496
1765877492.549598,495
1765877492.550851,496
1765877492.551633,495
1765877492.552629,496
1765877492.553612,495
1765877492.5546181,495
1765877492.5556061,495
1765877492.5566049,495
1765877492.55762,495
1765877492.558614,495
1765877492.559617,495
1765877492.560631,495
1765877492.56164,495
1765877492.562623,495
1765877492.563655,495
1765877492.564678,496
1765877492.565695,495
1765877492.566688,495
1765877492.56766,495
1765877492.568654,495
1765877492.569651,495
1765877492.5706398,495
1765877492.571657,495
1765877492.5726578,495
1765877492.573662,496
1765877492.574661,496
1765877492.575666,495
1765877492.576671,495
1765877492.577688,495
1765877492.578687,496
1765877492.5797179,496
1765877492.580715,496
1765877492.581719,496
1765877492.5828302,497
1765877492.5837598,497
1765877492.5847218,497
1765877492.585695,497
1765877492.586713,496
1765877492.587719,496
1765877492.5887291,497
1765877492.5897222,497
1765877492.59073,497
1765877492.591742,497
1765877492.592726,497
1765877492.593756,496
1765877492.5947578,497
1765877492.595743,497
1765877492.596719,496
1765877492.597742,496
1765877492.598739,496
1765877492.599756,497
1765877492.6007419,496
1765877492.601741,496
1765877492.6027641,495
1765877492.60378,496
1765877492.604765,495
1765877492.605775,495
1765877492.6071649,496
1765877492.6077828,496
1765877492.608791,496
1765877492.6102579,496
1765877492.610834,496
1765877492.611804,495
1765877492.6128142,496
1765877492.6138072,495
1765877492.614796,495
1765877492.615797,496
1765877492.616802,496
1765877492.617795,495
1765877492.6188002,495
1765877492.619812,496
1765877492.6207979,495
1765877492.621828,496
1765877492.622818,496
1765877492.6238139,495
1765877492.624862,495
1765877492.625839,496
1765877492.6268191,496
1765877492.627831,496
1765877492.628868,496
1765877492.629863,497
1765877492.630835,495
1765877492.631878,495
1765877492.632952,496
1765877492.633884,496
1765877492.6348522,497
1765877492.63588,497
1765877492.636864,496
1765877492.637871,495
1765877492.6388721,495
1765877492.6398668,495
1765877492.640874,495
1765877492.641855,495
1765877492.642858,495
1765877492.643865,495
1765877492.644877,496
1765877492.6458921,495
1765877492.6468952,495
1765877492.647893,495
1765877492.648903,496
1765877492.649898,495
1765877492.650889,495
1765877492.651891,495
1765877492.652909,495
1765877492.65392,495
1765877492.6549,495
1765877492.6559129,495
1765877492.6569128,496
1765877492.65794,496
1765877492.658933,496
1765877492.659932,496
1765877492.660942,496
1765877492.661936,497
1765877492.662945,496
1765877492.6639712,494
1765877492.6649668,495
1765877492.666018,496
1765877492.667019,495
1765877492.668023,495
1765877492.6689558,496
1765877492.669973,496
1765877492.670969,496
1765877492.671974,497
1765877492.672968,498
1765877492.6739972,495
1765877492.674989,495
1765877492.675992,496
1765877492.676987,496
1765877492.678032,496
1765877492.67898,496
1765877492.680022,498
1765877492.6810062,497
1765877492.682007,496
1765877492.683093,495
1765877492.6840801,496
1765877492.6850328,496
1765877492.686039,497
1765877492.687028,496
1765877492.688023,497
1765877492.689033,496
1765877492.690016,497
1765877492.691029,496
1765877492.692039,497
1765877492.6930282,499
1765877492.694004,498
1765877492.6950002,496
1765877492.696021,494
1765877492.6970088,494
1765877492.698028,493
1765877492.69904,494
1765877492.700053,496
1765877492.7010849,495
1765877492.7020822,496
1765877492.7030668,497
1765877492.7040792,498
1765877492.705106,498
1765877492.706134,498
1765877492.707166,498
1765877492.708161,498
1765877492.709125,498
1765877492.710093,498
1765877492.711083,496
1765877492.71209,494
1765877492.713079,494
1765877492.714061,493
1765877492.71507,493
1765877492.71606,495
1765877492.717088,496
1765877492.718108,498
1765877492.719106,497
1765877492.720109,497
1765877492.721133,498
1765877492.7221088,499
1765877492.723079,499
1765877492.724111,498
1765877492.72511,495
1765877492.726109,493
1765877492.727106,493
1765877492.728096,493
1765877492.7291331,493
1765877492.730108,493
1765877492.731118,495
1765877492.732138,495
1765877492.733139,496
1765877492.734127,498
1765877492.7351282,500
1765877492.736108,502
1765877492.737132,502
1765877492.738122,503
1765877492.739115,500
1765877492.740122,495
1765877492.741151,489
1765877492.742164,491
1765877492.743148,494
1765877492.744144,495
1765877492.745147,495
1765877492.746156,495
1765877492.74718,496
1765877492.7481642,495
1765877492.7492712,496
1765877492.7501981,499
1765877492.751206,500
1765877492.752206,500
1765877492.7532,499
1765877492.7541828,497
1765877492.7551758,497
1765877492.756175,498
1765877492.7571788,498
1765877492.758189,495
1765877492.759186,491
1765877492.760191,494
1765877492.7611961,493
1765877492.7621891,494
1765877492.7632,497
1765877492.7642298,500
1765877492.765226,501
1765877492.766335,502
1765877492.767263,503
1765877492.768223,501
1765877492.769223,497
1765877492.77024,498
1765877492.771229,498
1765877492.7722292,499
1765877492.773236,497
1765877492.774291,495
1765877492.7753348,491
1765877492.776233,491
1765877492.7773209,490
1765877492.778356,492
1765877492.77932,496
1765877492.780319,501
1765877492.781347,506
1765877492.7826922,508
1765877492.783673,512
1765877492.785397,512
1765877492.78555,505
1765877492.786749,503
1765877492.7873962,502
1765877492.789268,492
1765877492.789336,490
1765877492.790329,493
1765877492.791334,493
1765877492.792338,492
1765877492.793403,494
1765877492.7943769,494
1765877492.795349,492
1765877492.7963352,495
1765877492.7974012,498
1765877492.7983549,502
1765877492.7997062,502
1765877492.8004868,499
1765877492.801483,493
1765877492.802369,495
1765877492.8037739,493
1765877492.80435,492
1765877492.805342,494
1765877492.806329,492
1765877492.807329,492
1765877492.808341,494
1765877492.8093288,494
1765877492.810334,494
1765877492.8113549,495
1765877492.812363,496
1765877492.813343,495
1765877492.814364,495
1765877492.815344,494
1765877492.816383,494
1765877492.8173609,495
1765877492.8183732,496
1765877492.819395,496
1765877492.8203871,495
1765877492.821395,496
1765877492.822376,498
1765877492.823374,500
1765877492.824352,502
1765877492.8253598,503
1765877492.8263838,501
1765877492.8273768,498
1765877492.828396,502
1765877492.8293939,509
1765877492.830407,518
1765877492.831393,518
1765877492.832418,522
1765877492.8334231,520
1765877492.834462,506
1765877492.835433,486
1765877492.836481,483
1765877492.837423,494
1765877492.838432,495
1765877492.8394492,490
1765877492.840425,488
1765877492.841433,486
1765877492.8424242,489
1765877492.8434198,493
1765877492.844471,497
1765877492.845475,498
1765877492.8464608,498
1765877492.84746,498
1765877492.84847,499
1765877492.8494568,492
1765877492.8504791,491
1765877492.85148,493
1765877492.8524768,495
1765877492.853475,493
1765877492.8544772,493
1765877492.85548,494
1765877492.8564868,494
1765877492.857486,495
1765877492.8585012,494
1765877492.859506,494
1765877492.860523,494
1765877492.8614998,495
1765877492.862494,495
1765877492.863497,496
1765877492.864506,495
1765877492.865487,496
1765877492.8665159,497
1765877492.867507,499
1765877492.8685818,501
1765877492.869546,500
1765877492.870534,495
1765877492.871516,494
1765877492.872545,495
1765877492.873538,494
1765877492.8746471,494
1765877492.875639,494
1765877492.876568,496
1765877492.8775492,496
1765877492.878595,496
1765877492.8795469,496
1765877492.880546,495
1765877492.8815548,496
1765877492.882545,495
1765877492.883548,496
1765877492.884562,495
1765877492.885557,496
1765877492.886574,495
1765877492.887586,497
1765877492.888554,496
1765877492.889559,496
1765877492.8905652,499
1765877492.8915892,504
1765877492.892587,510
1765877492.893595,513
1765877492.89456,513
1765877492.895584,507
1765877492.8965828,499
1765877492.8975859,488
1765877492.898651,491
1765877492.89965,490
1765877492.9006221,490
1765877492.90159,490
1765877492.902643,491
1765877492.903597,493
1765877492.904617,495
1765877492.90561,494
1765877492.906605,495
1765877492.9076412,493
1765877492.9086971,494
1765877492.909635,495
1765877492.9106581,494
1765877492.911639,495
1765877492.912648,495
1765877492.9136481,495
1765877492.9146628,496
1765877492.91572,496
1765877492.916736,495
1765877492.917685,495
1765877492.918661,494
1765877492.91965,495
1765877492.92065,496
1765877492.921634,495
1765877492.922657,496
1765877492.923687,497
1765877492.92469,500
1765877492.9256809,502
1765877492.92668,502
1765877492.927677,501
1765877492.928689,497
1765877492.9296849,493
1765877492.930675,492
1765877492.9316978,492
1765877492.932697,495
1765877492.9337401,495
1765877492.9347122,499
1765877492.935745,501
1765877492.9367008,495
1765877492.9377222,494
1765877492.9387121,495
1765877492.9397178,495
1765877492.940743,495
1765877492.9417338,496
1765877492.942743,496
1765877492.943753,496
1765877492.944766,496
1765877492.945735,497
1765877492.946723,497
1765877492.9477482,497
1765877492.949064,497
1765877492.9497778,498
1765877492.950845,499
1765877492.951778,493
1765877492.95277,495
1765877492.953759,498
1765877492.954759,498
1765877492.955783,497
1765877492.956936,499
1765877492.9578109,497
1765877492.958844,493
1765877492.95989,494
1765877492.960812,496
1765877492.961792,497
1765877492.9628,496
1765877492.963805,495
1765877492.964799,494
1765877492.965885,495
1765877492.966877,495
1765877492.9678552,494
1765877492.968888,493
1765877492.969835,493
1765877492.9708211,494
1765877492.971819,495
1765877492.972811,495
1765877492.973823,496
1765877492.974841,497
1765877492.9758599,498
1765877492.976887,499
1765877492.9778738,498
1765877492.9789178,498
1765877492.979852,498
1765877492.9808671,494
1765877492.981934,492
1765877492.982898,495
1765877492.983886,497
1765877492.984895,494
1765877492.986115,494
1765877492.986919,494
1765877492.987905,494
1765877492.9888792,494
1765877492.989878,494
1765877492.990906,494
1765877492.9918861,494
1765877492.992974,495
1765877492.9939032,495
1765877492.994897,495
1765877492.995894,495
1765877492.996889,495
1765877492.997893,495
1765877492.998966,496
1765877492.9999108,495
1765877493.000957,496
1765877493.00192,495
1765877493.00292,496
1765877493.0039139,497
1765877493.004898,497
1765877493.005889,498
1765877493.006897,499
1765877493.007929,498
1765877493.0089421,496
1765877493.009928,495
1765877493.010952,493
1765877493.011947,492
1765877493.0129302,493
1765877493.013962,493
1765877493.0149481,493
1765877493.016006,493
1765877493.016971,495
1765877493.017961,495
1765877493.0190332,495
1765877493.020046,494
1765877493.020975,494
1765877493.0219789,495
1765877493.022978,494
1765877493.024106,493
1765877493.025027,495
1765877493.026069,496
1765877493.027013,497
1765877493.028003,498
1765877493.0290098,499
1765877493.02999,495
1765877493.03102,495
1765877493.032042,493
1765877493.033025,493
1765877493.034005,495
1765877493.034993,496
1765877493.035989,497
1765877493.036994,499
1765877493.0380092,498
1765877493.03915,496
1765877493.0400221,495
1765877493.041026,492
1765877493.042014,492
1765877493.0430248,493
1765877493.044047,492
1765877493.045082,494
1765877493.046048,494
1765877493.0470269,493
1765877493.048005,494
1765877493.049015,494
1765877493.050024,495
1765877493.051022,494
1765877493.05206,495
1765877493.053036,495
1765877493.054039,494
1765877493.055058,494
1765877493.0560288,495
1765877493.057039,495
1765877493.0580668,495
1765877493.059071,496
1765877493.060072,495
1765877493.061056,494
1765877493.062077,494
1765877493.063072,495
1765877493.0640562,494
1765877493.065053,495
1765877493.0660732,495
1765877493.067085,494
1765877493.068091,494
1765877493.069085,495
1765877493.0700731,495
1765877493.071081,494
1765877493.0720682,495
1765877493.073069,495
1765877493.074095,496
1765877493.075113,495
1765877493.076085,496
1765877493.077117,495
1765877493.0781069,496
1765877493.079112,495
1765877493.080121,498
1765877493.081113,499
1765877493.082103,501
1765877493.08312,503
1765877493.084126,499
1765877493.085137,492
1765877493.0861492,491
1765877493.087134,492
1765877493.0881448,490
1765877493.089142,493
1765877493.090144,496
1765877493.091158,496
1765877493.092142,496
1765877493.093148,494
1765877493.09429,492
1765877493.095166,493
1765877493.096173,494
1765877493.097242,494
1765877493.09818,494
1765877493.099233,493
1765877493.100186,493
1765877493.101177,494
1765877493.102186,494
1765877493.103183,494
1765877493.1041942,495
1765877493.105186,495
1765877493.106157,496
1765877493.1072488,495
1765877493.108225,496
1765877493.109201,497
1765877493.110189,498
1765877493.1111941,499
1765877493.112202,499
1765877493.1132128,495
1765877493.1141949,491
1765877493.115181,494
1765877493.116214,497
1765877493.117193,498
1765877493.118227,499
1765877493.119213,496
1765877493.120204,491
1765877493.121307,493
1765877493.122236,493
1765877493.123231,494
1765877493.1242208,494
1765877493.125233,494
1765877493.126265,494
1765877493.127264,493
1765877493.1283689,493
1765877493.1292522,494
1765877493.13025,494
1765877493.131239,495
1765877493.1323361,495
1765877493.13324,495
1765877493.134339,495
1765877493.135236,494
1765877493.136384,495
1765877493.137346,495
1765877493.138349,494
1765877493.13936,495
1765877493.1403599,495
1765877493.1413429,495
1765877493.1423428,495
1765877493.1433222,495
1765877493.144329,495
1765877493.1453261,495
1765877493.146336,495
1765877493.1473339,494
1765877493.148319,494
1765877493.149333,497
1765877493.1503308,498
1765877493.151326,497
1765877493.152374,499
1765877493.153399,498
1765877493.154343,496
1765877493.155353,495
1765877493.156375,490
1765877493.157433,492
1765877493.1583529,494
1765877493.159334,494
1765877493.160327,494
1765877493.161512,494
1765877493.162354,494
1765877493.1633651,494
1765877493.1644008,494
1765877493.165334,494
1765877493.166328,495
1765877493.167326,495
1765877493.168315,495
1765877493.169336,496
1765877493.170341,496
1765877493.171337,497
1765877493.172317,496
1765877493.173324,494
1765877493.174369,493
1765877493.175373,494
1765877493.17638,494
1765877493.1773481,494
1765877493.178391,495
1765877493.179359,495
1765877493.180372,494
1765877493.181366,495
1765877493.182378,495
1765877493.1833951,496
1765877493.184387,495
1765877493.1853728,497
1765877493.186381,496
1765877493.18738,495
1765877493.188412,495
1765877493.1893811,495
1765877493.190401,494
1765877493.1914,495
1765877493.1924071,497
1765877493.193377,499
1765877493.194387,500
1765877493.195382,498
1765877493.1963892,492
1765877493.197392,491
1765877493.1983979,494
1765877493.199404,494
1765877493.200414,494
1765877493.201429,493
1765877493.202398,495
1765877493.2034078,494
1765877493.2044039,494
1765877493.2054331,494
1765877493.206422,493
1765877493.207426,495
1765877493.208435,494
1765877493.209434,494
1765877493.2104461,495
1765877493.211452,495
1765877493.212466,495
1765877493.213451,495
1765877493.214454,494
1765877493.215449,494
1765877493.216455,494
1765877493.2174761,496
1765877493.2184541,496
1765877493.21946,496
1765877493.2205398,496
1765877493.221539,496
1765877493.222529,493
1765877493.223495,494
1765877493.224503,494
1765877493.225503,494
1765877493.2264802,494
1765877493.227484,494
1765877493.2284958,495
1765877493.229494,495
1765877493.2305,495
1765877493.231504,495
1765877493.232507,496
1765877493.233512,496
1765877493.234532,495
1765877493.2355242,495
1765877493.236562,496
1765877493.2375538,496
1765877493.238533,494
1765877493.23956,494
1765877493.240531,495
1765877493.2415419,497
1765877493.2425442,499
1765877493.243546,500
1765877493.2445529,500
1765877493.2455528,497
1765877493.246561,497
1765877493.2475991,494
1765877493.248557,492
1765877493.249554,489
1765877493.2505522,491
1765877493.2515469,492
1765877493.252564,493
1765877493.2535849,494
1765877493.254575,495
1765877493.255583,495
1765877493.256563,495
1765877493.257567,495
1765877493.2585752,494
1765877493.259583,494
1765877493.260582,494
1765877493.2615921,495
1765877493.2625961,494
1765877493.2635882,496
1765877493.264597,497
1765877493.265588,497
1765877493.266575,497
1765877493.267606,496
1765877493.26859,492
1765877493.2696059,494
1765877493.2706492,494
1765877493.271626,494
1765877493.2726212,494
1765877493.273602,495
1765877493.274605,495
1765877493.27564,495
1765877493.276629,495
1765877493.277642,494
1765877493.278649,495
1765877493.279663,495
1765877493.280651,495
1765877493.281656,495
