timestamp,emg_value
1765877523.255426,492
1765877523.255449,494
1765877523.255465,494
1765877523.255479,496
1765877523.2554922,495
1765877523.2555048,494
1765877523.255518,496
1765877523.255531,496
1765877523.255544,499
1765877523.255557,500
1765877523.255569,497
1765877523.2555819,496
1765877523.255595,497
1765877523.255608,495
1765877523.25562,492
1765877523.2556329,491
1765877523.255646,490
1765877523.255662,493
1765877523.2556748,493
1765877523.255688,493
1765877523.2556999,494
1765877523.25572,494
1765877523.255733,495
1765877523.255745,495
1765877523.255758,495
1765877523.255778,495
1765877523.2557938,493
1765877523.255806,494
1765877523.255819,495
1765877523.255831,494
1765877523.255844,495
1765877523.255857,496
1765877523.2558699,496
1765877523.2558851,498
1765877523.255897,500
1765877523.25591,500
1765877523.2559218,502
1765877523.255935,498
1765877523.255948,491
1765877523.2559612,489
1765877523.255973,492
1765877523.255994,492
1765877523.256007,492
1765877523.25602,492
1765877523.256041,494
1765877523.256054,494
1765877523.256067,495
1765877523.25608,495
1765877523.2560918,495
1765877523.256105,494
1765877523.256118,493
1765877523.256137,493
1765877523.2561548,494
1765877523.2561688,494
1765877523.256188,494
1765877523.2561998,495
1765877523.256213,496
1765877523.256226,495
1765877523.256238,495
1765877523.2562509,494
1765877523.2562702,492
1765877523.2562828,494
1765877523.256296,494
1765877523.256308,495
1765877523.256321,495
1765877523.256372,497
1765877523.256385,498
1765877523.256397,498
1765877523.2564101,500
1765877523.256423,499
1765877523.256435,498
1765877523.256448,498
1765877523.2564611,496
1765877523.256473,488
1765877523.256486,491
1765877523.256499,493
1765877523.256511,494
1765877523.256547,494
1765877523.256565,493
1765877523.256578,493
1765877523.256597,492
1765877523.2566102,492
1765877523.256623,493
1765877523.256636,494
1765877523.256654,494
1765877523.256669,493
1765877523.256682,493
1765877523.2567239,494
1765877523.256741,496
1765877523.256754,497
1765877523.256768,497
1765877523.256781,496
1765877523.2567942,495
1765877523.2568371,493
1765877523.256852,494
1765877523.256865,494
1765877523.2568781,494
1765877523.2568908,495
1765877523.256904,494
1765877523.256917,492
1765877523.25693,493
1765877523.256943,494
1765877523.2569559,495
1765877523.256969,495
1765877523.2569852,495
1765877523.257001,495
1765877523.257014,492
1765877523.257026,493
1765877523.2570398,494
1765877523.257088,494
1765877523.257101,494
1765877523.2571142,495
1765877523.2571259,494
1765877523.257139,495
1765877523.257152,495
1765877523.257165,496
1765877523.257177,497
1765877523.25719,500
1765877523.2572029,500
1765877523.257216,499
1765877523.257229,496
1765877523.257241,494
1765877523.257254,493
1765877523.257268,494
1765877523.257281,495
1765877523.2572942,495
1765877523.2573068,491
1765877523.25732,492
1765877523.257333,493
1765877523.257356,493
1765877523.2573729,494
1765877523.257386,495
1765877523.257399,496
1765877523.2574122,497
1765877523.2574248,496
1765877523.257438,493
1765877523.2574499,494
1765877523.257463,493
1765877523.257476,493
1765877523.257489,494
1765877523.2575018,492
1765877523.257515,493
1765877523.257527,493
1765877523.2575412,493
1765877523.2575538,493
1765877523.257566,494
1765877523.257579,494
1765877523.257592,494
1765877523.257605,494
1765877523.257618,495
1765877523.257631,495
1765877523.257643,495
1765877523.257656,497
1765877523.2576692,498
1765877523.2576818,497
1765877523.257695,495
1765877523.257708,492
1765877523.257726,496
1765877523.257739,495
1765877523.2577522,495
1765877523.257765,494
1765877523.257778,494
1765877523.257791,492
1765877523.257804,493
1765877523.257817,493
1765877523.25783,493
1765877523.257843,493
1765877523.257856,494
1765877523.257869,495
1765877523.2578828,494
1765877523.257896,494
1765877523.2579079,494
1765877523.257921,494
1765877523.2579489,493
1765877523.257962,494
1765877523.257974,494
1765877523.257987,494
1765877523.258,494
1765877523.258013,494
1765877523.258026,493
1765877523.258038,494
1765877523.2580512,496
1765877523.2580638,495
1765877523.258092,495
1765877523.258108,495
1765877523.2581198,495
1765877523.258136,496
1765877523.2581508,496
1765877523.258166,494
1765877523.2581818,492
1765877523.258195,493
1765877523.258208,493
1765877523.2582211,493
1765877523.258234,494
1765877523.258247,495
1765877523.25826,496
1765877523.2582731,498
1765877523.258286,499
1765877523.2582989,496
1765877523.258312,495
1765877523.258325,493
1765877523.258338,497
1765877523.2583501,495
1765877523.2583628,493
1765877523.258376,494
1765877523.258389,495
1765877523.258403,492
1765877523.2584162,493
1765877523.2584288,492
1765877523.258445,492
1765877523.2584598,492
1765877523.258473,493
1765877523.258486,493
1765877523.2584991,494
1765877523.2585118,494
1765877523.258525,494
1765877523.258538,494
1765877523.2585511,492
1765877523.258564,494
1765877523.258576,494
1765877523.258589,495
1765877523.258602,495
1765877523.258615,494
1765877523.2586281,495
1765877523.2586398,495
1765877523.258653,494
1765877523.258666,494
1765877523.258678,493
1765877523.258691,492
1765877523.258705,493
1765877523.258718,493
1765877523.2587311,495
1765877523.258744,495
1765877523.258757,495
1765877523.25877,497
1765877523.2587829,498
1765877523.258801,500
1765877523.2588139,499
1765877523.258829,498
1765877523.2588422,492
1765877523.2588549,493
1765877523.258868,491
1765877523.25888,493
1765877523.258893,493
1765877523.2589061,493
1765877523.25892,493
1765877523.258933,493
1765877523.258946,493
1765877523.258959,492
1765877523.258972,493
1765877523.258985,494
1765877523.258998,494
1765877523.259012,493
1765877523.2590249,494
1765877523.259037,495
1765877523.25905,495
1765877523.259063,494
1765877523.259076,494
1765877523.259089,493
1765877523.2591019,494
1765877523.259115,495
1765877523.259128,495
1765877523.2591438,498
1765877523.2591581,500
1765877523.259171,499
1765877523.2591841,499
1765877523.259197,495
1765877523.259211,490
1765877523.259223,490
1765877523.259236,492
1765877523.259249,495
1765877523.2592618,495
1765877523.259275,496
1765877523.259288,495
1765877523.2593,490
1765877523.2593138,493
1765877523.259326,493
1765877523.259339,492
1765877523.259352,493
1765877523.259365,493
1765877523.259378,494
1765877523.259391,493
1765877523.259404,493
1765877523.259417,494
1765877523.25943,494
1765877523.259443,494
1765877523.259456,494
1765877523.259469,494
1765877523.259485,495
1765877523.2595,495
1765877523.2595131,495
1765877523.2595258,496
1765877523.259538,498
1765877523.259551,499
1765877523.259564,498
1765877523.259577,493
1765877523.25959,493
1765877523.259603,494
1765877523.259616,494
1765877523.259629,495
1765877523.2596421,494
1765877523.259655,494
1765877523.259667,495
1765877523.25968,495
1765877523.2596931,495
1765877523.259706,496
1765877523.259719,497
1765877523.259732,498
1765877523.2597451,499
1765877523.2597592,500
1765877523.2597718,499
1765877523.259785,494
1765877523.259797,491
1765877523.25981,494
1765877523.259823,491
1765877523.259841,490
1765877523.259854,492
1765877523.259866,493
1765877523.2598798,493
1765877523.259893,493
1765877523.259906,494
1765877523.259917,493
1765877523.259927,493
1765877523.259936,493
1765877523.2599459,494
1765877523.259956,494
1765877523.259966,494
1765877523.259976,494
1765877523.259985,494
1765877523.259995,494
1765877523.2600052,494
1765877523.260015,494
1765877523.260025,494
1765877523.260035,494
1765877523.260045,494
1765877523.260055,495
1765877523.260065,495
1765877523.260075,496
1765877523.260084,500
1765877523.260094,498
1765877523.260104,503
1765877523.2601159,499
1765877523.260128,494
1765877523.2601368,492
1765877523.2601469,491
1765877523.2601569,491
1765877523.260166,493
1765877523.260176,492
1765877523.2601862,492
1765877523.260195,492
1765877523.260205,493
1765877523.260215,493
1765877523.260225,495
1765877523.260235,495
1765877523.260245,496
1765877523.260254,496
1765877523.260264,497
1765877523.260274,493
1765877523.260284,492
1765877523.260294,494
1765877523.260304,492
1765877523.2603142,492
1765877523.260324,493
1765877523.260334,493
1765877523.260343,493
1765877523.260353,494
1765877523.260363,494
1765877523.260375,495
1765877523.2603872,495
1765877523.260396,496
1765877523.260406,498
1765877523.260416,499
1765877523.260426,496
1765877523.260436,493
1765877523.2604458,493
1765877523.2604558,493
1765877523.2604659,493
1765877523.2604759,493
1765877523.260486,493
1765877523.260496,493
1765877523.2605062,493
1765877523.2605162,494
1765877523.260525,493
1765877523.260535,494
1765877523.260545,493
1765877523.260561,493
1765877523.2605708,494
1765877523.260581,494
1765877523.260591,494
1765877523.260601,494
1765877523.260611,493
1765877523.260621,496
1765877523.260631,496
1765877523.260641,497
1765877523.2606552,496
1765877523.2606652,494
1765877523.260675,492
1765877523.260685,493
1765877523.260695,494
1765877523.260704,494
1765877523.260714,493
1765877523.260724,494
1765877523.2607338,495
1765877523.2607439,494
1765877523.2607539,494
1765877523.260764,494
1765877523.260774,495
1765877523.2607841,493
1765877523.2607942,494
1765877523.2608042,495
1765877523.2608142,495
1765877523.260823,496
1765877523.260833,498
1765877523.260843,497
1765877523.260853,496
1765877523.2608619,498
1765877523.260872,498
1765877523.260882,495
1765877523.260892,494
1765877523.2609012,497
1765877523.2609138,498
1765877523.2609239,497
1765877523.2609339,494
1765877523.260944,492
1765877523.2609541,492
1765877523.260963,492
1765877523.260973,493
1765877523.260983,491
1765877523.260992,492
1765877523.261002,494
1765877523.261012,494
1765877523.2610219,492
1765877523.2610319,493
1765877523.2610419,493
1765877523.261052,493
1765877523.261062,494
1765877523.261072,495
1765877523.2610822,494
1765877523.2610922,493
1765877523.2611032,493
1765877523.2611132,493
1765877523.2611232,494
1765877523.261132,494
1765877523.261142,496
1765877523.261152,494
1765877523.261162,494
1765877523.2611709,494
1765877523.261185,493
1765877523.261195,494
1765877523.261204,494
1765877523.261214,494
1765877523.261224,494
1765877523.2612338,494
1765877523.2612438,494
1765877523.2612538,493
1765877523.2612638,494
1765877523.261274,494
1765877523.261284,494
1765877523.2612941,494
1765877523.2613041,494
1765877523.2613142,495
1765877523.261324,496
1765877523.261334,497
1765877523.261344,501
1765877523.261354,503
1765877523.261364,499
1765877523.261374,502
1765877523.261384,504
1765877523.261394,495
1765877523.2614038,489
1765877523.2614138,488
1765877523.261424,488
1765877523.261434,490
1765877523.261447,492
1765877523.261457,492
1765877523.261467,492
1765877523.2614772,493
1765877523.261486,493
1765877523.261496,494
1765877523.261506,494
1765877523.261516,494
1765877523.261526,494
1765877523.261536,493
1765877523.261545,495
1765877523.261555,495
1765877523.261565,495
1765877523.261575,494
1765877523.261585,495
1765877523.261594,494
1765877523.261604,494
1765877523.261614,493
1765877523.261624,494
1765877523.261634,494
1765877523.2616441,495
1765877523.261654,494
1765877523.261663,494
1765877523.261673,494
1765877523.261683,495
1765877523.2616918,495
1765877523.261705,494
1765877523.261717,494
1765877523.261727,495
1765877523.2617412,495
1765877523.261751,494
1765877523.261761,494
1765877523.26177,495
1765877523.26178,494
1765877523.26179,494
1765877523.2618,495
1765877523.2618098,495
1765877523.2618198,498
1765877523.2618299,500
1765877523.2618399,503
1765877523.26185,503
1765877523.2618601,501
1765877523.2618701,498
1765877523.2618802,497
1765877523.26189,496
1765877523.261899,489
1765877523.261909,490
1765877523.261919,492
1765877523.261929,493
1765877523.261939,493
1765877523.2619488,492
1765877523.2619588,492
1765877523.261968,493
1765877523.261984,493
1765877523.261994,493
1765877523.262003,493
1765877523.262013,493
1765877523.262023,494
1765877523.262033,494
1765877523.2620428,494
1765877523.262053,493
1765877523.262063,494
1765877523.262073,494
1765877523.262083,494
1765877523.262093,494
1765877523.262103,495
1765877523.262113,495
1765877523.262123,495
1765877523.262133,493
1765877523.262143,493
1765877523.262153,494
1765877523.262163,495
1765877523.262173,494
1765877523.262183,494
1765877523.262193,494
1765877523.262203,495
1765877523.2622132,494
1765877523.262223,494
1765877523.262233,494
1765877523.2622468,495
1765877523.26226,496
1765877523.262269,494
1765877523.2622788,493
1765877523.2622888,493
1765877523.2622988,496
1765877523.262309,495
1765877523.262319,495
1765877523.262329,496
1765877523.262339,496
1765877523.2623491,493
1765877523.2623591,494
1765877523.262369,495
1765877523.262379,496
1765877523.262388,495
1765877523.262398,494
1765877523.262408,494
1765877523.262418,494
1765877523.2624278,494
1765877523.2624378,494
1765877523.262448,494
1765877523.262458,495
1765877523.2624671,494
1765877523.2624772,495
1765877523.262487,496
1765877523.262497,497
1765877523.262507,501
1765877523.262521,501
1765877523.262531,501
1765877523.26254,501
1765877523.26255,493
1765877523.26256,488
1765877523.26257,491
1765877523.26258,491
1765877523.262589,490
1765877523.262599,493
1765877523.262609,494
1765877523.2626188,494
1765877523.262629,494
1765877523.262638,494
1765877523.262648,494
1765877523.262658,494
1765877523.2626681,494
1765877523.262678,494
1765877523.262688,494
1765877523.262697,494
1765877523.262708,495
1765877523.262719,495
1765877523.262729,497
1765877523.262739,498
1765877523.262748,498
1765877523.2627578,496
1765877523.262768,492
1765877523.262781,492
1765877523.262793,494
1765877523.262805,493
1765877523.2628238,493
1765877523.2628422,493
1765877523.2628548,493
1765877523.2628648,494
1765877523.2628748,495
1765877523.2628841,494
1765877523.2628942,494
1765877523.2629042,494
1765877523.262914,494
1765877523.262924,494
1765877523.262934,493
1765877523.262943,493
1765877523.262953,494
1765877523.262963,494
1765877523.2629728,495
1765877523.2629828,494
1765877523.2629929,494
1765877523.2630029,495
1765877523.2630131,495
1765877523.2630231,495
1765877523.263032,493
1765877523.263042,494
1765877523.263052,494
1765877523.263062,494
1765877523.2630742,495
1765877523.263086,495
1765877523.263096,495
1765877523.263106,496
1765877523.2631161,496
1765877523.263125,498
1765877523.263135,500
1765877523.263145,498
1765877523.263155,498
1765877523.263165,493
1765877523.263175,491
1765877523.2631848,495
1765877523.263194,495
1765877523.263204,495
1765877523.263214,496
1765877523.2632241,495
1765877523.2632341,495
1765877523.263244,495
1765877523.263254,495
1765877523.263263,495
1765877523.263273,494
1765877523.263283,495
1765877523.263293,495
1765877523.2633028,495
1765877523.2633128,494
1765877523.2633228,495
1765877523.263335,495
1765877523.263347,495
1765877523.263357,494
1765877523.263367,494
1765877523.2633758,494
1765877523.263386,495
1765877523.263396,495
1765877523.263406,495
1765877523.263415,495
1765877523.263425,495
1765877523.2634351,494
1765877523.263445,494
1765877523.263454,494
1765877523.263464,494
1765877523.263474,494
1765877523.263485,493
1765877523.2634938,494
1765877523.2635038,495
1765877523.263514,495
1765877523.263524,495
1765877523.263534,495
1765877523.2635431,494
1765877523.2635531,493
1765877523.263563,494
1765877523.263573,494
1765877523.263582,494
1765877523.263592,493
1765877523.2636049,494
1765877523.263616,495
1765877523.2636318,495
1765877523.26365,495
1765877523.263669,495
1765877523.263687,494
1765877523.2637079,495
1765877523.2637289,494
1765877523.263747,494
1765877523.263766,495
1765877523.263785,495
1765877523.263804,494
1765877523.263822,494
1765877523.263842,494
1765877523.263861,494
1765877523.26388,494
1765877523.2638988,495
1765877523.263917,495
1765877523.263935,495
1765877523.263953,496
1765877523.263972,497
1765877523.26399,496
1765877523.264009,497
1765877523.2640269,495
1765877523.2640462,492
1765877523.264064,493
1765877523.264087,493
1765877523.264107,493
1765877523.264126,494
1765877523.264145,494
1765877523.264163,495
1765877523.264181,494
1765877523.264199,493
1765877523.264218,494
1765877523.264236,494
1765877523.264255,494
1765877523.264273,494
1765877523.264291,494
1765877523.2643101,495
1765877523.264328,494
1765877523.2643461,494
1765877523.264365,494
1765877523.264383,494
1765877523.264402,494
1765877523.26442,494
1765877523.264438,493
1765877523.264457,494
1765877523.2644749,494
1765877523.264493,494
1765877523.2645109,494
1765877523.26453,495
1765877523.264548,495
1765877523.264569,495
1765877523.264589,494
1765877523.264607,494
1765877523.2646248,493
1765877523.2646441,494
1765877523.264662,494
1765877523.26468,494
1765877523.264699,494
1765877523.264717,495
1765877523.264735,495
1765877523.2647538,495
1765877523.2647722,495
1765877523.264791,494
1765877523.264809,494
1765877523.264828,494
1765877523.264846,494
1765877523.264865,495
1765877523.264883,494
1765877523.2649012,495
1765877523.26492,494
1765877523.2649379,495
1765877523.264956,495
1765877523.264975,494
1765877523.264993,494
1765877523.2650292,494
1765877523.265047,495
1765877523.265069,494
1765877523.265088,494
1765877523.265107,495
1765877523.265125,494
1765877523.2651432,494
1765877523.265162,495
1765877523.2651808,494
1765877523.2651992,494
1765877523.265218,494
1765877523.265237,495
1765877523.265253,495
1765877523.265263,495
1765877523.265273,494
1765877523.265283,495
1765877523.265292,495
1765877523.265302,494
1765877523.265312,495
1765877523.265322,495
1765877523.265332,494
1765877523.265342,493
1765877523.265352,494
1765877523.265362,493
1765877523.2653718,494
1765877523.2653818,495
1765877523.265392,493
1765877523.265402,493
1765877523.265414,494
1765877523.265425,494
1765877523.265435,495
1765877523.2654452,495
1765877523.265455,495
1765877523.265465,495
1765877523.265475,495
1765877523.265485,495
1765877523.265495,495
1765877523.265505,495
1765877523.265515,495
1765877523.265525,494
1765877523.2655349,494
1765877523.265545,494
1765877523.265555,494
1765877523.2655659,494
1765877523.265576,494
1765877523.265586,494
1765877523.265596,494
1765877523.265606,494
1765877523.265616,494
1765877523.2656262,493
1765877523.265635,494
1765877523.265646,495
1765877523.265656,495
1765877523.265666,495
1765877523.265676,494
1765877523.2656891,494
1765877523.2657,494
1765877523.2657092,494
1765877523.265719,493
1765877523.265729,493
1765877523.265739,493
1765877523.265749,493
1765877523.265759,494
1765877523.265769,495
1765877523.2657778,495
1765877523.2657878,494
1765877523.2657979,495
1765877523.2658088,495
1765877523.265818,494
1765877523.2658281,494
1765877523.2658381,494
1765877523.265849,494
1765877523.265868,495
1765877523.265886,494
1765877523.265905,494
1765877523.265923,494
1765877523.265942,495
1765877523.265961,495
1765877523.2659788,494
1765877523.2659981,494
1765877523.266016,494
1765877523.2660391,494
1765877523.266058,494
1765877523.2660758,494
1765877523.2660952,494
1765877523.266113,494
1765877523.2661319,494
1765877523.26615,494
1765877523.266169,494
1765877523.266187,494
1765877523.266206,494
1765877523.2662241,494
1765877523.266242,494
1765877523.266261,494
1765877523.266279,494
1765877523.266298,494
1765877523.2663171,493
1765877523.266335,494
1765877523.266353,493
1765877523.2663722,493
1765877523.266391,494
1765877523.266409,494
1765877523.266428,494
1765877523.266446,494
1765877523.266465,494
1765877523.266484,494
1765877523.266502,494
1765877523.266523,494
1765877523.2665431,494
1765877523.266562,495
1765877523.2665799,494
1765877523.266599,494
1765877523.266617,494
1765877523.266635,494
1765877523.266654,493
1765877523.2666721,494
1765877523.266691,494
1765877523.266784,494
1765877523.266804,494
1765877523.266819,494
1765877523.2668312,494
1765877523.266846,495
1765877523.266857,495
1765877523.266874,495
1765877523.266887,494
1765877523.266905,494
1765877523.266919,493
1765877523.266932,494
1765877523.266944,494
1765877523.266958,493
1765877523.2669702,494
1765877523.2669818,494
1765877523.266994,494
1765877523.267009,494
1765877523.267025,494
1765877523.2670379,494
1765877523.267052,494
1765877523.267067,494
1765877523.267082,494
1765877523.267095,494
1765877523.267107,494
1765877523.2671192,494
1765877523.2671318,494
1765877523.2671459,493
1765877523.267158,494
1765877523.26717,494
1765877523.267182,493
1765877523.267194,494
1765877523.267206,494
1765877523.2672179,494
1765877523.267231,494
1765877523.267243,494
1765877523.267255,494
1765877523.2672682,493
1765877523.2672808,494
1765877523.2672992,494
1765877523.267315,494
1765877523.267327,494
1765877523.267339,494
1765877523.267355,495
1765877523.2673762,493
1765877523.267391,494
1765877523.267405,493
1765877523.2674189,494
1765877523.267431,493
1765877523.267442,493
1765877523.267454,493
1765877523.267466,495
1765877523.267477,494
1765877523.267489,494
1765877523.267501,494
1765877523.267519,494
1765877523.267534,494
1765877523.267547,494
1765877523.2675588,494
1765877523.267571,494
1765877523.267583,494
1765877523.2675982,494
1765877523.26761,494
1765877523.267621,494
1765877523.267633,494
1765877523.267644,495
1765877523.2676558,494
1765877523.267668,493
1765877523.26768,493
1765877523.267703,494
1765877523.267719,495
1765877523.267733,495
1765877523.267745,494
1765877523.267757,494
1765877523.267775,494
1765877523.267787,494
1765877523.2678,494
1765877523.267811,494
1765877523.2678242,493
1765877523.2678359,493
1765877523.26785,493
1765877523.267862,492
1765877523.267874,493
1765877523.2678862,494
1765877523.267898,495
1765877523.26791,494
1765877523.267922,494
1765877523.2679338,494
1765877523.267946,493
1765877523.267958,494
1765877523.26797,493
1765877523.267982,493
1765877523.2679942,494
1765877523.268011,494
1765877523.268024,494
1765877523.2680361,494
1765877523.268058,494
1765877523.268078,493
1765877523.268092,494
1765877523.2681038,493
1765877523.268116,493
1765877523.268128,492
1765877523.26814,491
1765877523.268152,492
1765877523.2681642,493
1765877523.2681751,493
1765877523.2681868,494
1765877523.2681978,495
1765877523.26821,494
1765877523.268221,494
1765877523.268233,493
1765877523.268245,494
1765877523.268258,495
1765877523.2682722,495
1765877523.268286,495
1765877523.268298,494
1765877523.26831,495
1765877523.268321,496
1765877523.268333,495
1765877523.268345,495
1765877523.268356,494
1765877523.268374,495
1765877523.26839,496
1765877523.268404,495
1765877523.268416,496
1765877523.268428,496
1765877523.268439,495
1765877523.268451,495
1765877523.2684631,494
1765877523.268474,495
1765877523.2684858,494
1765877523.268497,494
1765877523.268509,496
1765877523.268527,495
1765877523.268542,495
1765877523.268556,494
1765877523.268569,494
1765877523.2685802,495
1765877523.2685928,494
1765877523.268607,494
1765877523.268619,493
1765877523.268631,493
1765877523.2686431,494
1765877523.268655,495
1765877523.268667,495
1765877523.268679,495
1765877523.268691,495
1765877523.268704,495
1765877523.268718,494
1765877523.2687318,493
1765877523.268745,493
1765877523.268757,493
1765877523.268769,493
1765877523.268781,493
1765877523.268793,494
1765877523.268805,495
1765877523.268817,495
1765877523.2688289,494
1765877523.268841,495
1765877523.268853,494
1765877523.268865,494
1765877523.268877,493
1765877523.2688892,494
1765877523.268901,495
1765877523.2689128,495
1765877523.268925,494
1765877523.2689369,494
1765877523.268949,494
1765877523.268961,493
1765877523.268973,494
1765877523.268985,494
1765877523.2689972,494
1765877523.2690089,494
1765877523.269021,494
1765877523.269035,494
1765877523.269055,494
1765877523.269067,494
1765877523.269084,494
1765877523.269098,494
1765877523.26911,494
1765877523.269124,495
1765877523.269136,494
1765877523.269147,493
1765877523.2691588,494
1765877523.269171,494
1765877523.269182,495
1765877523.269194,494
1765877523.269205,494
1765877523.269217,494
1765877523.2692292,494
1765877523.269245,494
1765877523.26926,494
1765877523.269274,494
1765877523.2692852,494
1765877523.269297,494
1765877523.269309,494
1765877523.269321,494
1765877523.269333,494
1765877523.269345,494
1765877523.2693582,494
1765877523.269373,494
1765877523.269386,494
1765877523.269401,495
1765877523.2694132,494
1765877523.269425,493
1765877523.2694368,493
1765877523.26945,493
1765877523.269462,493
1765877523.269474,493
1765877523.2694862,494
1765877523.269498,494
1765877523.2695098,494
1765877523.269539,494
1765877523.269551,494
1765877523.269599,494
1765877523.269613,494
1765877523.269624,495
1765877523.2696671,494
1765877523.269678,493
1765877523.269689,494
1765877523.269699,493
1765877523.269709,494
1765877523.269808,494
1765877523.269844,495
1765877523.2698612,495
1765877523.269871,494
1765877523.2698839,492
1765877523.269896,492
1765877523.2699058,492
1765877523.2699158,493
1765877523.2699258,495
1765877523.269936,495
1765877523.269946,495
1765877523.269956,495
1765877523.2699661,493
1765877523.2700238,494
1765877523.27007,494
1765877523.2700999,493
1765877523.270111,494
1765877523.2701209,494
1765877523.2701309,493
1765877523.270141,492
1765877523.270151,493
1765877523.270161,493
1765877523.270171,493
1765877523.2701812,493
1765877523.2701912,493
1765877523.2702012,493
1765877523.270211,493
1765877523.270221,493
1765877523.270232,493
1765877523.270242,494
1765877523.270253,494
1765877523.270266,494
1765877523.270278,494
1765877523.270288,495
1765877523.270298,495
1765877523.2703092,494
1765877523.270319,495
1765877523.270329,494
1765877523.270339,494
1765877523.270349,494
1765877523.270359,494
1765877523.27037,494
1765877523.27038,493
1765877523.27039,494
1765877523.2704,493
1765877523.270411,493
1765877523.270422,494
1765877523.270432,494
1765877523.270442,493
1765877523.270452,493
1765877523.270463,494
1765877523.270473,493
1765877523.270484,494
1765877523.270494,493
1765877523.270504,492
1765877523.270515,493
1765877523.270525,494
1765877523.270537,494
1765877523.270549,493
1765877523.27056,494
1765877523.27057,494
1765877523.2706418,494
1765877523.270659,494
1765877523.2706718,494
1765877523.270685,494
1765877523.270698,494
1765877523.270711,494
1765877523.270725,494
1765877523.270738,494
1765877523.27075,494
1765877523.270795,493
1765877523.270808,493
1765877523.270821,494
1765877523.270847,494
1765877523.270863,494
1765877523.270875,494
1765877523.2709188,494
1765877523.270932,495
1765877523.270944,495
1765877523.270956,494
1765877523.2709692,494
1765877523.270999,495
1765877523.271026,494
1765877523.27107,494
1765877523.271091,493
1765877523.271107,494
1765877523.2711198,493
1765877523.271133,494
1765877523.2711449,495
1765877523.2711601,495
1765877523.2711732,495
1765877523.271185,495
1765877523.271198,495
1765877523.271212,495
1765877523.271242,494
1765877523.271261,492
1765877523.271273,492
1765877523.271287,492
1765877523.2713,493
1765877523.2713118,493
1765877523.271323,493
1765877523.271334,494
1765877523.2713442,495
1765877523.2713542,495
1765877523.2713652,496
1765877523.2713752,496
1765877523.2713852,496
1765877523.271395,495
1765877523.271404,494
1765877523.271415,495
1765877523.271452,493
1765877523.271467,491
1765877523.271502,491
1765877523.271512,491
1765877523.271522,493
1765877523.271534,492
1765877523.2715461,493
1765877523.2715561,493
1765877523.2715662,494
1765877523.2715762,493
1765877523.271586,493
1765877523.271596,493
1765877523.271606,493
1765877523.271616,494
1765877523.271627,494
1765877523.271637,494
1765877523.271648,495
1765877523.271658,495
1765877523.271668,494
1765877523.271678,495
1765877523.271688,495
1765877523.271698,494
1765877523.2717519,495
1765877523.271787,496
1765877523.271801,495
1765877523.2718132,495
1765877523.271828,492
1765877523.271843,491
1765877523.271855,491
1765877523.2718668,493
1765877523.27188,493
1765877523.271893,493
1765877523.271905,494
1765877523.271917,494
1765877523.2719302,495
1765877523.2719429,495
1765877523.2719638,494
1765877523.271977,493
1765877523.271992,493
1765877523.2720041,493
1765877523.272017,494
1765877523.2720299,494
1765877523.272042,494
1765877523.2720551,494
1765877523.272067,494
1765877523.27208,493
1765877523.2720928,494
1765877523.2721071,495
1765877523.27212,494
1765877523.2721322,494
1765877523.27216,492
1765877523.272197,492
1765877523.2722292,493
1765877523.272243,492
1765877523.272253,493
1765877523.2722628,493
1765877523.2722728,493
1765877523.2722828,494
1765877523.272293,494
1765877523.272303,494
1765877523.272313,494
1765877523.272322,494
1765877523.272332,494
1765877523.272342,495
1765877523.272353,494
1765877523.272363,494
1765877523.272373,494
1765877523.272383,495
1765877523.272393,494
1765877523.272403,494
1765877523.272413,494
1765877523.272423,494
1765877523.2724328,494
1765877523.2724428,494
1765877523.272453,494
1765877523.272463,493
1765877523.272473,493
1765877523.2724822,493
1765877523.272492,494
1765877523.272506,494
1765877523.272516,494
1765877523.272526,494
1765877523.272536,494
1765877523.272546,494
1765877523.272556,494
1765877523.272567,493
1765877523.272577,493
1765877523.272587,494
1765877523.272597,493
1765877523.272607,493
1765877523.2726169,493
1765877523.2726269,494
1765877523.272637,494
1765877523.272647,494
1765877523.272657,494
1765877523.2726662,493
1765877523.2726772,493
1765877523.2726872,493
1765877523.2726982,494
1765877523.2727082,494
1765877523.2727191,494
1765877523.2727292,494
1765877523.2727392,494
1765877523.2727501,494
1765877523.2727602,494
1765877523.272772,493
1765877523.272783,494
1765877523.272793,494
1765877523.272803,494
1765877523.272813,494
1765877523.272823,494
1765877523.272833,493
1765877523.2728431,494
1765877523.272853,494
1765877523.272863,494
1765877523.272872,494
1765877523.272882,494
1765877523.272892,494
1765877523.2729018,493
1765877523.2729118,494
1765877523.272922,494
1765877523.272932,495
1765877523.272942,495
1765877523.272952,494
1765877523.272962,493
1765877523.272972,493
1765877523.2729821,494
1765877523.272992,493
1765877523.273002,494
1765877523.273012,494
1765877523.273022,493
1765877523.273035,494
1765877523.273046,494
1765877523.273056,494
1765877523.273066,494
1765877523.273076,494
1765877523.273086,494
1765877523.2730958,495
1765877523.2731059,494
1765877523.2731159,494
1765877523.273126,494
1765877523.2731361,494
1765877523.2731462,495
1765877523.2731562,494
1765877523.2731662,494
1765877523.273176,494
1765877523.273186,496
1765877523.273196,497
1765877523.273206,496
1765877523.273216,497
1765877523.273226,495
1765877523.273236,494
1765877523.273246,493
1765877523.2732558,492
1765877523.273265,494
1765877523.273275,494
1765877523.2732852,496
1765877523.2732952,494
1765877523.2733078,494
1765877523.273325,494
1765877523.273335,494
1765877523.273345,494
1765877523.273355,494
1765877523.273365,494
1765877523.273375,494
1765877523.273385,494
1765877523.273395,494
1765877523.2734048,494
1765877523.2734149,494
1765877523.2734249,494
1765877523.2734349,494
1765877523.2734451,494
1765877523.2734551,494
1765877523.2734652,494
1765877523.273474,494
1765877523.273484,493
1765877523.273494,494
1765877523.273504,494
1765877523.273515,494
1765877523.273525,493
1765877523.273535,494
1765877523.273545,493
1765877523.273555,493
1765877523.2735648,493
1765877523.273578,494
1765877523.27359,494
1765877523.273605,494
1765877523.2736151,494
1765877523.2736242,494
1765877523.273634,494
1765877523.273644,493
1765877523.273654,494
1765877523.273664,494
1765877523.273674,494
1765877523.273684,494
1765877523.2736928,494
1765877523.273704,494
1765877523.2737138,494
1765877523.2737238,494
1765877523.2737339,494
1765877523.2737432,494
1765877523.2737532,493
1765877523.2737632,494
1765877523.273773,493
1765877523.273783,494
1765877523.273793,494
1765877523.273802,494
1765877523.273812,494
1765877523.273822,493
1765877523.2738318,494
1765877523.2738419,493
1765877523.273859,493
1765877523.273869,494
1765877523.273879,493
1765877523.273889,493
1765877523.273898,494
1765877523.273914,494
1765877523.2739232,494
1765877523.2739332,494
1765877523.273943,494
1765877523.273953,494
1765877523.273963,494
1765877523.273973,493
1765877523.273983,494
1765877523.2739918,494
1765877523.2740018,493
1765877523.2740119,494
1765877523.2740219,493
1765877523.274032,493
1765877523.2740412,492
1765877523.2740512,493
1765877523.274061,493
1765877523.274071,493
1765877523.274081,493
1765877523.274096,494
1765877523.274106,494
1765877523.274115,494
1765877523.274127,494
1765877523.2741382,493
1765877523.274148,494
1765877523.274158,494
1765877523.274168,494
1765877523.274178,493
1765877523.274189,494
1765877523.274199,494
1765877523.274209,494
1765877523.274219,494
1765877523.274229,494
1765877523.274239,493
1765877523.274249,494
1765877523.274258,494
1765877523.274268,493
1765877523.2742789,493
1765877523.274289,494
1765877523.2742982,493
1765877523.2743082,494
1765877523.274318,494
1765877523.274328,494
1765877523.274338,494
1765877523.274348,493
1765877523.274358,493
1765877523.274368,494
1765877523.2743769,494
1765877523.274389,493
1765877523.2744,494
1765877523.27441,494
1765877523.27442,494
1765877523.27443,494
1765877523.2744389,494
1765877523.2744489,494
1765877523.274459,494
1765877523.2744691,494
1765877523.2744792,494
1765877523.2744892,494
1765877523.274498,494
1765877523.274508,494
1765877523.274518,494
1765877523.274528,494
1765877523.274538,495
1765877523.274548,494
1765877523.274558,494
1765877523.274567,494
1765877523.274577,494
1765877523.274587,494
1765877523.2745972,493
1765877523.2746072,493
1765877523.274616,493
1765877523.274626,494
1765877523.274636,494
1765877523.274646,494
1765877523.27466,494
1765877523.2746701,494
1765877523.274679,494
1765877523.274689,494
1765877523.274699,494
1765877523.274709,494
1765877523.274764,495
1765877523.2748868,494
1765877523.274941,494
1765877523.274952,494
1765877523.274962,494
1765877523.274972,494
1765877523.274983,494
1765877523.274993,494
1765877523.275003,494
1765877523.2750132,494
1765877523.2750232,494
1765877523.275033,494
1765877523.2750452,494
1765877523.2750552,494
1765877523.2750652,494
1765877523.275074,494
1765877523.275085,494
1765877523.275095,494
1765877523.275105,494
1765877523.275115,494
1765877523.275202,494
1765877523.275212,494
1765877523.275222,493
1765877523.275232,493
1765877523.275242,494
1765877523.2752519,494
1765877523.2752619,494
1765877523.275272,494
1765877523.275281,494
1765877523.275291,494
1765877523.2753012,494
1765877523.275311,494
1765877523.27532,494
1765877523.27533,494
1765877523.27534,494
1765877523.27535,494
1765877523.27536,494
1765877523.27537,494
1765877523.27538,494
1765877523.27539,494
1765877523.275399,494
1765877523.275429,494
1765877523.275439,494
1765877523.275449,494
1765877523.275459,494
1765877523.275469,494
1765877523.2754838,494
1765877523.2754948,493
1765877523.275504,494
1765877523.2755141,494
1765877523.2755241,494
1765877523.2755342,494
1765877523.2755442,494
1765877523.275553,494
1765877523.275563,494
1765877523.275573,494
1765877523.275583,494
1765877523.275595,494
1765877523.275605,494
1765877523.275615,494
1765877523.275624,494
1765877523.275635,495
1765877523.275645,494
1765877523.275655,494
1765877523.2756648,494
1765877523.275723,495
1765877523.275734,494
1765877523.275744,494
1765877523.275755,494
1765877523.275765,493
1765877523.275774,493
1765877523.275784,494
1765877523.275797,494
1765877523.275809,494
1765877523.275819,495
1765877523.275829,494
1765877523.275839,494
1765877523.275848,494
1765877523.275858,494
1765877523.275868,494
1765877523.2758799,494
1765877523.2758899,495
1765877523.2759,494
1765877523.27591,495
1765877523.27592,494
1765877523.2759302,494
1765877523.275939,494
1765877523.275949,494
1765877523.275959,495
1765877523.275969,495
1765877523.275979,494
1765877523.2759879,495
1765877523.2759979,494
1765877523.276008,494
1765877523.276018,494
1765877523.276028,494
1765877523.276038,494
1765877523.276048,494
1765877523.276059,494
1765877523.2760708,494
1765877523.2760808,494
1765877523.2760909,494
1765877523.2761002,494
1765877523.2761102,494
1765877523.27612,494
1765877523.2761312,495
1765877523.2761412,495
1765877523.276151,495
1765877523.276161,495
1765877523.276172,495
1765877523.276182,494
1765877523.276192,494
1765877523.276202,494
1765877523.276212,494
1765877523.276222,494
1765877523.276232,494
1765877523.276242,494
1765877523.2762518,494
1765877523.2762618,494
1765877523.276272,494
1765877523.276282,494
1765877523.276292,495
1765877523.276302,494
1765877523.276312,495
1765877523.2763221,494
1765877523.276334,494
1765877523.276344,495
1765877523.276354,495
1765877523.276364,494
1765877523.276374,494
1765877523.276384,494
1765877523.276393,494
1765877523.276403,495
1765877523.276413,494
1765877523.276423,495
1765877523.276433,495
1765877523.2764428,494
1765877523.276453,494
1765877523.276463,495
1765877523.276473,495
1765877523.276482,495
1765877523.276492,495
1765877523.2765021,495
1765877523.276512,494
1765877523.276522,494
1765877523.276532,494
1765877523.276542,494
1765877523.276552,494
1765877523.276562,494
1765877523.276572,494
1765877523.276582,494
1765877523.276593,495
1765877523.276605,494
1765877523.276614,495
1765877523.276625,495
1765877523.2766342,494
1765877523.276644,495
1765877523.27666,495
1765877523.276669,495
1765877523.276682,495
1765877523.276695,495
1765877523.2767081,494
1765877523.276722,495
1765877523.276735,494
1765877523.276748,495
1765877523.276761,494
1765877523.2767732,494
1765877523.2767859,494
1765877523.276799,495
1765877523.276812,495
1765877523.2768252,494
1765877523.2768378,495
1765877523.276851,494
1765877523.2768629,494
1765877523.276876,494
1765877523.276889,494
1765877523.276903,494
1765877523.276918,494
1765877523.276931,495
1765877523.276944,494
1765877523.276958,495
1765877523.27697,494
1765877523.276983,495
1765877523.2769961,495
1765877523.277009,494
1765877523.277022,495
1765877523.277036,495
1765877523.277049,494
1765877523.2770612,495
1765877523.2770739,495
1765877523.277087,495
1765877523.2771,495
1765877523.277123,495
1765877523.2771358,495
1765877523.277149,495
1765877523.277162,495
1765877523.277175,494
1765877523.277198,494
1765877523.2772129,494
1765877523.277226,494
1765877523.277239,494
1765877523.2772522,494
1765877523.2772648,495
1765877523.277278,496
1765877523.2772942,496
1765877523.2773068,496
1765877523.27732,497
1765877523.277333,496
1765877523.2773461,496
1765877523.277359,496
1765877523.277371,496
1765877523.277384,495
1765877523.277397,495
1765877523.27741,496
1765877523.2774222,496
1765877523.2774348,496
1765877523.277448,495
1765877523.277461,496
1765877523.2774742,496
1765877523.277487,495
1765877523.2775,495
1765877523.277513,495
1765877523.277525,494
1765877523.277538,495
1765877523.2775512,495
1765877523.27757,495
1765877523.2775831,495
1765877523.277596,495
1765877523.2776089,495
1765877523.277621,495
1765877523.277643,495
1765877523.277656,494
1765877523.277674,494
1765877523.277687,495
1765877523.2777011,494
1765877523.2777128,494
1765877523.277726,495
1765877523.277738,495
1765877523.2777479,495
1765877523.277758,494
1765877523.277768,494
1765877523.277778,495
1765877523.277787,495
1765877523.2777972,495
1765877523.277807,494
1765877523.277817,494
1765877523.277827,494
1765877523.277837,494
1765877523.277847,494
1765877523.277856,494
1765877523.277866,494
1765877523.277876,494
1765877523.277886,494
1765877523.277896,494
1765877523.277906,494
1765877523.277916,494
1765877523.2779279,494
1765877523.2779388,495
1765877523.2779489,495
1765877523.2779589,494
1765877523.277969,494
1765877523.277979,494
1765877523.2779882,494
1765877523.277998,494
1765877523.278008,495
1765877523.278018,494
1765877523.278028,494
1765877523.278038,495
1765877523.278047,494
1765877523.2780569,494
1765877523.2780669,494
1765877523.278077,494
1765877523.278087,494
1765877523.278097,494
1765877523.278107,494
1765877523.2781172,494
1765877523.2781272,495
1765877523.2781372,494
1765877523.278147,494
1765877523.278156,494
1765877523.278166,494
1765877523.278176,494
1765877523.278188,494
1765877523.278199,494
1765877523.2782102,494
1765877523.27822,494
1765877523.27823,494
1765877523.278239,494
1765877523.278249,494
1765877523.278259,494
1765877523.2782688,494
1765877523.2782788,494
1765877523.2782888,494
1765877523.2782981,493
1765877523.2783082,493
1765877523.2783182,493
1765877523.2783282,494
1765877523.278338,494
1765877523.278348,494
1765877523.278358,494
1765877523.278368,494
1765877523.278377,494
1765877523.2783868,494
1765877523.2783968,494
1765877523.2784069,494
1765877523.2784169,494
1765877523.278427,494
1765877523.2784371,494
1765877523.2784472,494
1765877523.2784588,494
1765877523.2784698,494
1765877523.2784798,494
1765877523.278492,494
1765877523.278502,494
1765877523.2785122,494
1765877523.278521,493
1765877523.278531,494
1765877523.278541,494
1765877523.278551,494
1765877523.278561,494
1765877523.278571,494
1765877523.278581,494
1765877523.278591,493
1765877523.2786,493
1765877523.27861,493
1765877523.27862,493
1765877523.2786298,494
1765877523.27864,494
1765877523.27865,493
1765877523.27866,493
1765877523.27867,494
1765877523.27868,493
1765877523.27869,493
1765877523.2787,494
1765877523.2787101,494
1765877523.278721,494
1765877523.278733,494
1765877523.278742,493
1765877523.278752,493
1765877523.278762,493
1765877523.2787719,493
1765877523.278783,493
1765877523.278792,493
1765877523.278802,493
1765877523.278812,494
1765877523.278822,493
1765877523.2788322,493
1765877523.278841,494
1765877523.278851,493
1765877523.278861,493
1765877523.278871,493
1765877523.278881,493
1765877523.278891,493
1765877523.278901,493
1765877523.2789109,492
1765877523.278921,492
1765877523.278931,493
1765877523.27894,494
1765877523.27895,494
1765877523.2789602,494
1765877523.27897,494
1765877523.278982,493
1765877523.278993,494
1765877523.279003,493
1765877523.2790132,493
1765877523.2790232,493
1765877523.2790332,493
1765877523.279043,493
1765877523.279053,494
1765877523.279063,494
1765877523.279073,494
1765877523.2790852,494
1765877523.279094,494
1765877523.279104,493
1765877523.279114,493
1765877523.279124,493
1765877523.279134,493
1765877523.279144,493
1765877523.2791538,493
1765877523.279163,493
1765877523.2791731,493
1765877523.2791831,493
1765877523.2791932,493
1765877523.2792032,493
1765877523.279213,493
1765877523.279222,493
1765877523.279233,494
1765877523.279243,493
1765877523.2792552,493
1765877523.279265,493
1765877523.279275,494
1765877523.279285,494
1765877523.279295,493
1765877523.279305,493
1765877523.279315,494
1765877523.279325,493
1765877523.2793338,494
1765877523.279344,493
1765877523.279354,493
1765877523.279364,494
1765877523.2793741,493
1765877523.2793841,493
1765877523.2793941,493
1765877523.279404,494
1765877523.279413,493
1765877523.279423,493
1765877523.279433,493
1765877523.279443,493
1765877523.279453,494
1765877523.2794628,494
1765877523.279477,494
1765877523.279487,494
1765877523.279497,493
1765877523.279507,493
1765877523.279519,493
1765877523.27953,493
1765877523.27954,493
1765877523.2795498,494
1765877523.2795599,493
1765877523.2795699,493
1765877523.2795799,493
1765877523.2795892,493
1765877523.2795992,493
1765877523.2796092,493
1765877523.279619,494
1765877523.279629,493
1765877523.279639,494
1765877523.279649,493
1765877523.279659,493
1765877523.279669,494
1765877523.279679,493
1765877523.279688,493
1765877523.279698,494
1765877523.279708,493
1765877523.279718,493
1765877523.2797282,493
1765877523.2797382,493
1765877523.2797482,493
1765877523.279758,493
1765877523.279767,493
1765877523.2797801,493
1765877523.279791,493
1765877523.2798011,494
1765877523.2798111,493
1765877523.27982,493
1765877523.27983,493
1765877523.27984,493
1765877523.27985,493
1765877523.27986,493
1765877523.27987,493
1765877523.27988,493
1765877523.2798889,494
1765877523.279901,494
1765877523.2799108,493
1765877523.2799208,493
1765877523.2799308,493
1765877523.2799401,493
1765877523.279951,493
1765877523.279961,493
1765877523.2799711,493
1765877523.2799811,493
1765877523.27999,493
1765877523.28,493
1765877523.28001,493
1765877523.28002,493
1765877523.28003,492
1765877523.280042,493
1765877523.280052,493
1765877523.280062,492
1765877523.280072,493
1765877523.280082,493
1765877523.280092,494
1765877523.2801018,493
1765877523.280111,492
1765877523.280121,493
1765877523.280131,493
1765877523.280141,493
1765877523.2801511,493
1765877523.2801611,494
1765877523.280171,493
1765877523.280181,493
1765877523.28019,494
1765877523.2802,493
1765877523.28021,493
1765877523.2802198,493
1765877523.280232,493
1765877523.280242,494
1765877523.280253,493
1765877523.280263,494
1765877523.280273,493
1765877523.280283,493
1765877523.2802932,493
1765877523.280302,493
1765877523.280315,493
1765877523.280326,493
1765877523.280336,493
1765877523.2803462,493
1765877523.2803562,493
1765877523.2803662,493
1765877523.280375,493
1765877523.280385,493
1765877523.280395,493
1765877523.280405,493
1765877523.280415,493
1765877523.280425,492
1765877523.2804348,493
1765877523.2804449,493
1765877523.2804549,493
1765877523.280464,493
1765877523.2804742,492
1765877523.2804842,492
1765877523.280494,492
1765877523.280519,492
1765877523.2805288,494
1765877523.280544,494
1765877523.280554,494
1765877523.280564,494
1765877523.2805738,493
1765877523.2805839,493
1765877523.2806,493
1765877523.280611,493
1765877523.280621,493
1765877523.280631,494
1765877523.280641,493
1765877523.28065,493
1765877523.28066,493
1765877523.28067,493
1765877523.28068,493
1765877523.28069,493
1765877523.2807,494
1765877523.28071,493
1765877523.2807198,494
1765877523.280729,493
1765877523.280739,493
1765877523.280749,493
1765877523.280759,493
1765877523.280769,493
1765877523.2807791,494
1765877523.280789,494
1765877523.280798,493
1765877523.280808,494
1765877523.280818,493
1765877523.280828,494
1765877523.2808378,493
1765877523.2808478,493
1765877523.280858,493
1765877523.280873,493
1765877523.2808828,493
1765877523.2808928,493
1765877523.2809029,493
1765877523.2809129,494
1765877523.280923,493
1765877523.2809322,494
1765877523.280942,494
1765877523.280952,493
1765877523.280962,493
1765877523.280972,493
1765877523.280982,493
1765877523.280992,494
1765877523.281002,493
1765877523.281012,492
1765877523.2810218,493
1765877523.2810318,493
1765877523.281041,494
1765877523.281051,494
1765877523.2810612,495
1765877523.2810712,494
1765877523.281155,494
1765877523.281164,495
1765877523.281174,494
1765877523.281184,495
1765877523.281194,495
1765877523.281207,495
1765877523.281217,495
1765877523.2812312,495
1765877523.2812412,495
1765877523.281251,495
1765877523.281261,495
1765877523.281271,495
1765877523.281281,495
1765877523.281291,494
1765877523.281301,494
1765877523.281311,494
1765877523.281321,494
1765877523.281331,493
1765877523.2813408,494
1765877523.2813509,494
1765877523.2813609,495
1765877523.2813702,494
1765877523.2813802,494
1765877523.2813902,494
1765877523.2814,494
1765877523.28141,494
1765877523.28142,493
1765877523.28143,493
1765877523.28144,493
1765877523.28145,493
1765877523.28146,494
1765877523.281472,494
1765877523.281483,494
1765877523.281493,494
1765877523.281503,493
1765877523.281513,493
1765877523.281523,494
1765877523.281533,494
1765877523.281543,494
1765877523.2815528,494
1765877523.2815628,493
1765877523.281573,494
1765877523.281583,493
1765877523.281593,493
1765877523.281603,494
1765877523.281613,493
1765877523.281628,494
1765877523.281638,493
1765877523.2816489,494
1765877523.281659,494
1765877523.2816691,493
1765877523.281678,493
1765877523.281698,493
1765877523.281708,494
1765877523.281718,494
1765877523.281728,493
1765877523.281738,493
1765877523.28175,494
1765877523.281761,494
1765877523.281771,494
1765877523.281781,493
1765877523.281791,493
1765877523.281801,494
1765877523.2818198,494
1765877523.2818298,494
1765877523.281845,494
1765877523.2818549,494
1765877523.281865,493
1765877523.281881,494
1765877523.281891,494
1765877523.2819011,494
1765877523.2819111,494
1765877523.281921,494
1765877523.281931,493
1765877523.281941,494
1765877523.281951,493
1765877523.281961,494
1765877523.281971,493
1765877523.281981,493
1765877523.281991,493
1765877523.2820008,493
1765877523.2820108,493
1765877523.282021,494
1765877523.282031,494
1765877523.282044,494
1765877523.282054,494
1765877523.282064,494
1765877523.282079,494
1765877523.282089,493
1765877523.2820978,493
1765877523.2821078,493
1765877523.2821178,493
1765877523.2821279,493
1765877523.282138,494
1765877523.2821481,494
1765877523.2821581,495
1765877523.2821681,494
1765877523.2821782,495
1765877523.282188,494
1765877523.282197,495
1765877523.282207,494
1765877523.282217,494
1765877523.282227,494
1765877523.2822368,494
1765877523.2822468,494
1765877523.2822568,494
1765877523.2822661,494
1765877523.282277,494
1765877523.2822871,494
1765877523.2822971,494
1765877523.282308,494
1765877523.282319,494
1765877523.282329,493
1765877523.2823381,494
1765877523.282348,493
1765877523.282358,493
1765877523.282368,494
1765877523.282378,494
1765877523.282387,494
1765877523.282397,494
1765877523.2824068,494
1765877523.2824168,494
1765877523.2824268,494
1765877523.282437,494
1765877523.282447,494
1765877523.282457,494
1765877523.282466,494
1765877523.282476,494
1765877523.282486,494
1765877523.282496,494
1765877523.282506,495
1765877523.282516,494
1765877523.2825248,494
1765877523.2825348,494
1765877523.2825449,494
1765877523.282557,494
1765877523.282567,494
1765877523.2825768,493
1765877523.2825868,494
1765877523.282596,495
1765877523.2826061,494
1765877523.2826161,494
1765877523.2826262,494
1765877523.282635,494
1765877523.282645,495
1765877523.282655,494
1765877523.282668,494
1765877523.2826781,494
1765877523.282688,494
1765877523.282699,495
1765877523.2827132,494
1765877523.2827241,494
1765877523.282735,494
1765877523.282746,494
1765877523.282757,494
1765877523.282769,494
1765877523.28278,494
1765877523.282791,494
1765877523.2828019,494
1765877523.2828128,494
1765877523.282825,494
1765877523.282836,494
1765877523.282847,495
1765877523.282859,494
1765877523.28287,494
1765877523.282881,494
1765877523.282892,494
1765877523.282903,494
1765877523.2829142,494
1765877523.2829251,494
1765877523.282936,495
1765877523.282947,494
1765877523.282958,495
1765877523.282969,495
1765877523.2829802,494
1765877523.2829912,494
1765877523.2830021,494
1765877523.283013,494
1765877523.2830248,494
1765877523.283036,494
1765877523.283047,494
1765877523.283059,494
1765877523.2830698,494
1765877523.283081,494
1765877523.283092,494
1765877523.283104,494
1765877523.283115,495
1765877523.283126,495
1765877523.283137,495
1765877523.283148,495
1765877523.28316,495
1765877523.2831712,494
1765877523.2831821,494
1765877523.283193,495
1765877523.283204,495
1765877523.283215,494
1765877523.283226,494
1765877523.283238,494
1765877523.283249,495
1765877523.2832599,495
1765877523.28327,495
1765877523.2832808,495
1765877523.2832909,495
1765877523.283301,494
1765877523.2833111,494
1765877523.2833211,494
1765877523.2833312,495
1765877523.2833412,495
1765877523.283351,495
1765877523.283361,495
1765877523.283371,495
1765877523.283381,495
1765877523.28339,495
1765877523.283401,495
1765877523.283411,494
1765877523.283421,495
1765877523.2834308,494
1765877523.2834408,494
1765877523.2834508,495
1765877523.283461,494
1765877523.283471,495
1765877523.2834811,494
1765877523.2834911,494
1765877523.2835011,494
1765877523.283511,495
1765877523.283521,494
1765877523.283531,495
1765877523.283541,495
1765877523.283551,495
1765877523.283561,495
1765877523.2835698,495
1765877523.2835798,495
1765877523.2835898,495
1765877523.2836008,494
1765877523.28361,495
1765877523.28362,494
1765877523.2836301,494
1765877523.2836401,495
1765877523.2836502,494
1765877523.28366,495
1765877523.28367,494
1765877523.28368,494
1765877523.283689,493
1765877523.2837,494
1765877523.2837088,494
1765877523.2837188,494
1765877523.2837288,495
1765877523.2837389,495
1765877523.283749,494
1765877523.283759,494
1765877523.2837691,494
1765877523.283778,494
1765877523.283788,495
1765877523.283798,495
1765877523.283808,495
1765877523.283819,494
1765877523.283829,495
1765877523.28384,494
1765877523.283849,495
1765877523.283859,494
1765877523.283869,495
1765877523.2838788,495
1765877523.2838888,495
1765877523.2838988,495
1765877523.283909,494
1765877523.283919,495
1765877523.283929,495
1765877523.2839391,494
1765877523.2839491,494
1765877523.2839592,494
1765877523.283969,494
1765877523.283979,494
1765877523.283989,494
1765877523.283999,494
1765877523.28401,495
1765877523.284021,495
1765877523.284032,494
1765877523.284043,494
1765877523.284054,494
1765877523.284065,494
1765877523.284076,494
1765877523.284087,495
1765877523.284099,494
1765877523.28411,494
1765877523.284121,494
1765877523.284132,494
1765877523.2841432,495
1765877523.2841542,495
1765877523.2841659,495
1765877523.2841768,494
1765877523.284189,494
1765877523.2842,494
1765877523.284211,495
1765877523.284222,495
1765877523.2842329,495
1765877523.284244,494
1765877523.284255,495
1765877523.284266,495
1765877523.284277,494
1765877523.284288,494
1765877523.2843,494
1765877523.284311,494
1765877523.284322,495
1765877523.284333,494
1765877523.2843451,495
1765877523.284356,495
1765877523.284367,494
1765877523.284378,495
1765877523.285235,495
1765877523.2861922,495
1765877523.2872078,495
1765877523.288186,495
1765877523.289195,495
1765877523.290227,494
1765877523.2911968,494
1765877523.292233,495
1765877523.2932322,494
1765877523.29422,495
1765877523.295229,494
1765877523.2962198,495
1765877523.2972171,495
1765877523.2982268,495
1765877523.299241,495
1765877523.3002539,495
1765877523.301265,495
1765877523.3022661,495
1765877523.303262,495
1765877523.3042402,495
1765877523.305223,494
1765877523.306261,494
1765877523.3072588,495
1765877523.308244,495
1765877523.30927,495
1765877523.310279,494
1765877523.3112671,494
1765877523.312274,494
1765877523.313241,495
1765877523.314265,494
1765877523.315287,495
1765877523.316256,495
1765877523.317288,494
1765877523.3182561,495
1765877523.319262,495
1765877523.32028,495
1765877523.321314,495
1765877523.3223271,494
1765877523.323382,494
1765877523.324298,495
1765877523.3252969,495
1765877523.32631,496
1765877523.327318,495
1765877523.328335,496
1765877523.329338,496
1765877523.3303192,496
1765877523.3313391,496
1765877523.332323,496
1765877523.333309,496
1765877523.334333,496
1765877523.3353548,496
1765877523.33632,496
1765877523.337357,496
1765877523.338361,496
1765877523.3393228,495
1765877523.3403468,496
1765877523.341332,496
1765877523.3423202,496
1765877523.343315,495
1765877523.344393,496
1765877523.345365,495
1765877523.3463411,495
1765877523.347338,495
1765877523.348345,494
1765877523.3493419,495
1765877523.3503518,495
1765877523.351359,495
1765877523.352354,495
1765877523.3533618,495
1765877523.354362,496
1765877523.355359,495
1765877523.3563578,495
1765877523.357357,495
1765877523.3583848,496
1765877523.359371,495
1765877523.360383,495
1765877523.3613892,494
1765877523.3623931,495
1765877523.363369,495
1765877523.364373,495
1765877523.365388,495
1765877523.366406,495
1765877523.367403,495
1765877523.368421,495
1765877523.369407,495
1765877523.370452,495
1765877523.3714292,495
1765877523.372436,495
1765877523.373409,495
1765877523.3744352,495
1765877523.3754408,495
1765877523.3764129,495
1765877523.377422,495
1765877523.378417,495
1765877523.379413,495
1765877523.380419,495
1765877523.381439,495
1765877523.382445,495
1765877523.383532,495
1765877523.3845189,496
1765877523.385529,495
1765877523.3865201,495
1765877523.387517,495
1765877523.388523,495
1765877523.3895192,495
1765877523.39053,495
1765877523.3915179,495
1765877523.3925261,495
1765877523.393522,495
1765877523.39458,495
1765877523.395631,495
1765877523.396561,495
1765877523.397542,495
1765877523.398527,495
1765877523.399533,495
1765877523.400522,495
1765877523.4015172,495
1765877523.4025228,495
1765877523.4035351,494
1765877523.4045281,494
1765877523.405527,494
1765877523.40654,495
1765877523.4076061,496
1765877523.408576,495
1765877523.409586,495
1765877523.41054,496
1765877523.411575,495
1765877523.412642,495
1765877523.413592,495
1765877523.414578,496
1765877523.415593,494
1765877523.416567,495
1765877523.4175549,495
1765877523.4185522,495
1765877523.419571,495
1765877523.4205928,494
1765877523.421577,495
1765877523.422595,495
1765877523.423672,495
1765877523.424603,495
1765877523.425589,495
1765877523.426576,496
1765877523.427586,495
1765877523.428599,495
1765877523.429585,496
1765877523.430584,496
1765877523.431585,495
1765877523.4325771,496
1765877523.4336052,495
1765877523.434591,495
1765877523.435591,496
1765877523.436598,495
1765877523.437595,495
1765877523.438582,495
1765877523.439593,495
1765877523.4409149,496
1765877523.4416199,495
1765877523.4426181,495
1765877523.443629,496
1765877523.444635,495
1765877523.445602,495
1765877523.446642,495
1765877523.447618,495
1765877523.448638,495
1765877523.44964,495
1765877523.450665,496
1765877523.451659,495
1765877523.452685,496
1765877523.453745,495
1765877523.4547179,495
1765877523.455677,496
1765877523.456657,495
1765877523.457664,495
1765877523.458661,495
1765877523.459693,495
1765877523.460685,495
1765877523.461714,496
1765877523.462722,495
1765877523.463694,496
1765877523.4647,495
1765877523.4656918,495
1765877523.466697,495
1765877523.467714,496
1765877523.468687,495
1765877523.469717,495
1765877523.47071,495
1765877523.4717178,495
1765877523.472707,496
1765877523.473776,496
1765877523.474723,496
1765877523.4757178,495
1765877523.476713,495
1765877523.4777448,496
1765877523.4787252,495
1765877523.479733,495
1765877523.480729,495
1765877523.4817312,495
1765877523.4827352,495
1765877523.4837608,495
1765877523.484752,495
1765877523.485755,495
1765877523.486757,495
1765877523.487742,496
1765877523.488754,495
1765877523.4897642,495
1765877523.4907808,495
1765877523.491776,495
1765877523.4927769,496
1765877523.4937851,496
1765877523.4948149,495
1765877523.495829,495
1765877523.496803,495
1765877523.497795,496
1765877523.498785,495
1765877523.4997802,495
1765877523.50078,495
1765877523.501794,495
1765877523.5028,495
1765877523.5038028,496
1765877523.504812,496
1765877523.505831,495
1765877523.5068228,496
1765877523.5078459,495
1765877523.508855,495
1765877523.509821,496
1765877523.5108109,495
1765877523.51184,495
1765877523.5128498,495
1765877523.513833,495
1765877523.514839,495
1765877523.5158532,495
1765877523.5168471,496
1765877523.517844,496
1765877523.5188422,495
1765877523.519847,495
1765877523.5208478,496
1765877523.521867,495
1765877523.52285,495
1765877523.5238621,495
1765877523.524843,495
1765877523.525852,496
1765877523.526874,496
1765877523.527882,495
1765877523.528886,494
1765877523.5299299,496
1765877523.530902,495
1765877523.531946,495
1765877523.532876,496
1765877523.5338829,496
1765877523.534911,495
1765877523.5358841,495
1765877523.5369139,495
1765877523.5379279,495
1765877523.538949,495
1765877523.5399208,495
1765877523.540959,495
1765877523.541898,495
1765877523.542901,495
1765877523.543911,496
1765877523.5449119,495
1765877523.545921,495
1765877523.546915,495
1765877523.547914,495
1765877523.548946,495
1765877523.549943,494
1765877523.5509388,495
1765877523.5519328,495
1765877523.552939,495
1765877523.553932,496
1765877523.554942,496
1765877523.5559528,496
1765877523.5569391,495
1765877523.557941,495
1765877523.558968,496
1765877523.559948,496
1765877523.56095,495
1765877523.561981,495
1765877523.562977,496
1765877523.5639749,496
1765877523.56497,495
1765877523.565975,495
1765877523.566976,496
1765877523.567976,495
1765877523.568979,495
1765877523.569993,495
1765877523.570996,495
1765877523.571999,495
1765877523.572992,495
1765877523.5739882,495
1765877523.5750048,495
1765877523.576,496
1765877523.577014,496
1765877523.578047,495
1765877523.579041,496
1765877523.580033,496
1765877523.581026,496
1765877523.582051,495
1765877523.583024,495
1765877523.584024,495
1765877523.585045,496
1765877523.586046,496
1765877523.5870469,495
1765877523.588047,495
1765877523.589036,496
1765877523.59006,495
1765877523.591049,496
1765877523.592051,496
1765877523.593065,495
1765877523.594081,495
1765877523.5951118,496
1765877523.5960782,495
1765877523.597059,496
1765877523.5980642,496
1765877523.599062,495
1765877523.6001,496
1765877523.601092,496
1765877523.602067,496
1765877523.6030898,496
1765877523.6040902,495
1765877523.605084,496
1765877523.60609,496
1765877523.6070762,496
1765877523.6081111,496
1765877523.6091032,495
1765877523.610077,495
1765877523.611091,495
1765877523.612109,495
1765877523.613106,496
1765877523.614115,496
1765877523.615156,495
1765877523.616117,495
1765877523.617124,495
1765877523.618127,495
1765877523.619145,495
1765877523.620173,495
1765877523.621139,496
1765877523.622136,495
1765877523.6231391,495
1765877523.6241589,495
1765877523.625152,495
1765877523.626148,495
1765877523.627149,496
1765877523.628164,495
1765877523.6291761,496
1765877523.6301792,496
1765877523.631157,495
1765877523.6321652,496
1765877523.6331708,495
1765877523.63419,495
1765877523.635169,495
1765877523.636184,496
1765877523.637176,496
1765877523.638189,495
1765877523.639194,496
1765877523.640198,495
1765877523.641186,496
1765877523.6422,495
1765877523.643192,495
1765877523.6441998,496
1765877523.645202,496
1765877523.646219,496
1765877523.6472058,496
1765877523.6482098,496
1765877523.649205,496
1765877523.65022,495
1765877523.6512141,496
1765877523.6522188,495
1765877523.653217,495
1765877523.654242,495
1765877523.6552372,496
1765877523.656235,496
1765877523.657226,495
1765877523.658251,496
1765877523.6592581,495
1765877523.660267,495
1765877523.661272,495
1765877523.662272,495
1765877523.663266,496
1765877523.664259,496
1765877523.66527,496
1765877523.666275,495
1765877523.66727,496
1765877523.66826,496
1765877523.66928,495
1765877523.670279,496
1765877523.6712809,496
1765877523.672281,496
1765877523.673279,496
1765877523.6742778,496
1765877523.675354,496
1765877523.676285,497
1765877523.6772878,497
1765877523.678356,498
1765877523.679314,497
1765877523.680305,497
1765877523.681303,497
1765877523.682325,497
1765877523.68331,497
1765877523.684303,497
1765877523.6853042,497
1765877523.68632,497
1765877523.6873221,497
1765877523.688339,496
1765877523.689318,497
1765877523.690327,496
1765877523.69133,496
1765877523.692338,497
1765877523.693346,497
1765877523.694345,496
1765877523.6953442,496
1765877523.696352,497
1765877523.697363,497
1765877523.698352,497
1765877523.699358,497
1765877523.700385,497
1765877523.7013829,498
1765877523.702382,498
1765877523.7033799,499
1765877523.704392,499
1765877523.7054,501
1765877523.7063942,500
1765877523.7073832,499
1765877523.708398,498
1765877523.709383,499
1765877523.7103841,499
1765877523.711385,498
1765877523.712387,498
1765877523.713403,496
1765877523.714392,495
1765877523.71541,495
1765877523.7164092,495
1765877523.717417,494
1765877523.718422,495
1765877523.719407,495
1765877523.720408,495
1765877523.721411,495
1765877523.722425,495
1765877523.7234418,495
1765877523.724421,495
1765877523.725441,495
1765877523.7264352,495
1765877523.727436,495
1765877523.728472,496
1765877523.729471,495
1765877523.73045,496
1765877523.731444,497
1765877523.732449,496
1765877523.733535,496
1765877523.734537,497
1765877523.7355158,496
1765877523.736521,496
1765877523.7375202,497
1765877523.7385159,498
1765877523.739519,498
1765877523.7405179,498
1765877523.7415302,498
1765877523.742573,497
1765877523.7435641,497
1765877523.744574,497
1765877523.74562,497
1765877523.7465699,496
1765877523.747547,496
1765877523.748523,498
1765877523.74953,499
1765877523.7505379,500
1765877523.751528,499
1765877523.7525241,497
1765877523.75353,495
1765877523.754529,496
1765877523.75552,497
1765877523.7565281,498
1765877523.757521,499
1765877523.758521,498
1765877523.7595189,498
1765877523.760531,498
1765877523.761529,498
1765877523.762531,497
1765877523.763533,496
1765877523.76453,495
1765877523.7655418,494
1765877523.766536,495
1765877523.7675421,496
1765877523.768545,495
1765877523.7695549,496
1765877523.770547,496
1765877523.771553,496
1765877523.7725499,496
1765877523.773549,498
1765877523.7745512,498
1765877523.775563,500
1765877523.776567,500
1765877523.777566,499
1765877523.778559,496
1765877523.779567,492
1765877523.780569,493
1765877523.781573,493
1765877523.782599,494
1765877523.783603,495
1765877523.784627,495
1765877523.7856178,495
1765877523.786623,496
1765877523.787623,497
1765877523.7886121,498
1765877523.789601,500
1765877523.7906182,500
1765877523.791617,498
1765877523.792622,496
1765877523.793611,496
1765877523.794615,498
1765877523.795616,499
1765877523.7966201,496
1765877523.797638,494
1765877523.7986372,496
1765877523.7996411,496
1765877523.800652,495
1765877523.801666,496
1765877523.8026822,496
1765877523.8036659,498
1765877523.804686,497
1765877523.805656,499
1765877523.806659,502
1765877523.80767,502
1765877523.808672,501
1765877523.8096871,500
1765877523.810688,499
1765877523.811697,495
1765877523.8126872,496
1765877523.813666,496
1765877523.8146849,496
1765877523.815687,497
1765877523.8167,497
1765877523.817698,497
1765877523.818701,497
1765877523.819686,495
1765877523.820696,494
1765877523.8216891,494
1765877523.82269,494
1765877523.8236978,494
1765877523.824696,495
1765877523.8257248,494
1765877523.826731,494
1765877523.8277261,496
1765877523.828751,497
1765877523.829739,495
1765877523.830743,495
1765877523.8317282,496
1765877523.832727,495
1765877523.8337831,499
1765877523.8347268,504
1765877523.835735,507
1765877523.836722,508
1765877523.837749,507
1765877523.838752,505
1765877523.8397472,496
1765877523.840738,496
1765877523.8417652,494
1765877523.842742,494
1765877523.8437362,492
1765877523.8447511,492
1765877523.8457448,494
1765877523.84676,495
1765877523.847775,495
1765877523.848773,495
1765877523.84978,497
1765877523.850782,499
1765877523.851784,499
1765877523.852772,498
1765877523.853774,496
1765877523.854774,495
1765877523.855802,495
1765877523.856797,498
1765877523.857802,502
1765877523.8588002,505
1765877523.85981,507
1765877523.860806,507
1765877523.86185,501
1765877523.862881,495
1765877523.863824,493
1765877523.864831,494
1765877523.865809,494
1765877523.866813,493
1765877523.86785,492
1765877523.868843,493
1765877523.869874,493
1765877523.870901,494
1765877523.8718789,494
1765877523.872868,495
1765877523.873848,494
1765877523.874879,492
1765877523.875851,497
1765877523.8768451,501
1765877523.8778539,501
1765877523.878867,503
1765877523.879852,504
1765877523.8808599,499
1765877523.881865,496
1765877523.8828712,497
1765877523.8838751,494
1765877523.884867,495
1765877523.885866,496
1765877523.886878,498
1765877523.887881,499
1765877523.888886,498
1765877523.889879,496
1765877523.8908749,495
1765877523.891882,497
1765877523.892881,500
1765877523.893899,500
1765877523.894888,503
1765877523.89589,508
1765877523.896894,512
1765877523.897898,509
1765877523.898898,506
1765877523.899905,508
1765877523.900906,504
1765877523.9019148,494
1765877523.9029078,489
1765877523.903906,494
1765877523.904928,495
1765877523.905925,494
1765877523.9069178,491
1765877523.907924,491
1765877523.908927,492
1765877523.90995,494
1765877523.910968,495
1765877523.911974,495
1765877523.912965,498
1765877523.9139478,498
1765877523.9149399,499
1765877523.91599,497
1765877523.91696,497
1765877523.917956,495
1765877523.9189591,495
1765877523.9199722,493
1765877523.9209821,496
1765877523.921973,497
1765877523.922973,497
1765877523.9239721,497
1765877523.9249868,497
1765877523.926002,495
1765877523.9270139,494
1765877523.9280598,501
1765877523.929035,503
1765877523.930084,501
1765877523.9310138,495
1765877523.932039,495
1765877523.933023,495
1765877523.9340181,494
1765877523.935006,492
1765877523.936,494
1765877523.9370282,495
1765877523.9380229,496
1765877523.939028,497
1765877523.940067,497
1765877523.94113,495
1765877523.942074,494
1765877523.9430678,494
1765877523.944049,494
1765877523.945054,495
1765877523.946042,496
1765877523.947051,496
1765877523.948055,496
1765877523.949051,496
1765877523.9500659,495
1765877523.9510882,496
1765877523.952081,497
1765877523.953173,499
1765877523.954113,501
1765877523.9550982,501
1765877523.956075,500
1765877523.957083,501
1765877523.9580858,502
1765877523.9590862,500
1765877523.960093,501
1765877523.961108,501
1765877523.96209,499
1765877523.963091,494
1765877523.964117,490
1765877523.965097,493
1765877523.966092,494
1765877523.967094,495
1765877523.9681122,493
1765877523.9691122,497
1765877523.970114,499
1765877523.9711099,498
1765877523.9721081,497
1765877523.973119,496
1765877523.974129,493
1765877523.975144,495
1765877523.976151,497
1765877523.977133,495
1765877523.978133,494
1765877523.979152,494
1765877523.980161,494
1765877523.9811761,495
1765877523.982144,495
1765877523.983155,496
1765877523.984153,495
1765877523.985172,496
1765877523.986161,495
1765877523.987158,496
1765877523.9881668,499
1765877523.9891698,501
1765877523.990187,501
1765877523.991179,499
1765877523.992202,495
1765877523.993186,494
1765877523.994209,494
1765877523.9952471,497
1765877523.996193,496
1765877523.997189,493
1765877523.998205,494
1765877523.999218,495
1765877524.000212,496
1765877524.0012128,495
1765877524.0022268,494
1765877524.003221,494
1765877524.0042071,495
1765877524.005214,495
1765877524.006222,496
1765877524.0072372,496
1765877524.008225,496
1765877524.0092359,496
1765877524.010229,496
1765877524.011233,497
1765877524.01224,498
1765877524.013251,497
1765877524.014239,500
1765877524.015249,502
1765877524.0162408,500
1765877524.0172539,500
1765877524.018244,500
1765877524.01924,500
1765877524.0202692,495
1765877524.0212731,497
1765877524.022273,498
1765877524.023257,495
1765877524.024279,493
1765877524.025271,492
1765877524.02627,495
1765877524.027288,496
1765877524.0282922,496
1765877524.029291,497
1765877524.03029,498
1765877524.031287,496
1765877524.0322912,496
1765877524.033327,495
1765877524.0343082,497
1765877524.035341,497
1765877524.03635,497
1765877524.0374012,497
1765877524.038362,496
1765877524.03933,496
1765877524.04033,498
1765877524.041334,498
1765877524.042337,496
1765877524.043339,497
1765877524.044344,496
1765877524.045351,498
1765877524.046349,499
1765877524.047353,497
1765877524.0483708,494
1765877524.049367,496
1765877524.0503669,496
1765877524.0513642,496
1765877524.0523698,497
1765877524.053358,497
1765877524.054386,496
1765877524.055383,495
1765877524.0563688,495
1765877524.0573819,495
1765877524.0583942,495
1765877524.059402,496
1765877524.0604181,495
1765877524.061443,495
1765877524.062502,496
1765877524.063473,496
1765877524.064428,496
1765877524.065412,495
1765877524.066419,495
1765877524.0674078,495
1765877524.0683992,496
1765877524.0694149,496
1765877524.07044,496
1765877524.071433,497
1765877524.072452,496
1765877524.073447,496
1765877524.074433,495
1765877524.075458,496
1765877524.0764349,496
1765877524.07745,497
1765877524.078562,496
1765877524.079508,497
1765877524.0805151,500
1765877524.081567,498
1765877524.082434,497
1765877524.08355,498
1765877524.0845299,497
1765877524.085525,496
1765877524.086569,495
1765877524.087548,495
1765877524.0885382,493
1765877524.089529,493
1765877524.090529,496
1765877524.0915709,496
1765877524.0925481,496
1765877524.093524,497
1765877524.094531,495
1765877524.095545,497
1765877524.096529,499
1765877524.097527,500
1765877524.0985222,503
1765877524.099533,505
1765877524.100526,499
1765877524.101517,494
1765877524.102566,498
1765877524.1035361,495
1765877524.104526,492
1765877524.105527,492
1765877524.1065202,494
1765877524.1075242,493
1765877524.1085372,494
1765877524.109524,494
1765877524.110538,493
1765877524.111548,494
1765877524.1125262,494
1765877524.113539,494
1765877524.114559,494
1765877524.115554,494
1765877524.116547,494
1765877524.117582,494
1765877524.1185658,495
1765877524.1195588,495
1765877524.1207302,495
1765877524.12161,495
1765877524.122612,495
1765877524.123589,495
1765877524.124576,495
1765877524.12558,495
1765877524.126564,495
1765877524.12757,494
1765877524.128622,495
1765877524.129625,497
1765877524.130582,498
1765877524.1315908,501
1765877524.1326022,502
1765877524.133604,501
1765877524.134597,499
1765877524.135593,495
1765877524.136588,493
1765877524.1375942,493
1765877524.138595,496
1765877524.1396108,495
1765877524.140615,495
1765877524.141611,498
1765877524.142621,496
1765877524.14361,493
1765877524.1446102,490
1765877524.145613,490
1765877524.146622,492
1765877524.147638,495
1765877524.1486468,496
1765877524.149624,497
1765877524.150644,499
1765877524.151646,499
1765877524.152641,498
1765877524.153655,493
1765877524.154651,493
1765877524.155655,493
1765877524.156661,494
1765877524.157672,494
1765877524.158655,495
1765877524.159683,495
1765877524.160692,494
1765877524.161694,494
1765877524.162698,495
1765877524.1637151,495
1765877524.164673,494
1765877524.1657128,495
1765877524.166681,495
1765877524.167688,496
1765877524.168687,495
1765877524.169683,495
1765877524.170686,495
1765877524.1717062,494
1765877524.172727,494
1765877524.173719,494
1765877524.174725,494
1765877524.175736,495
1765877524.1767502,494
1765877524.177715,496
1765877524.178709,496
1765877524.179722,495
1765877524.180726,495
1765877524.181705,495
1765877524.1827369,495
1765877524.183715,495
1765877524.1847198,495
1765877524.1857338,495
1765877524.1867452,495
1765877524.187746,494
1765877524.188736,494
1765877524.189746,494
1765877524.190748,494
1765877524.191755,495
1765877524.192756,495
1765877524.1937668,495
1765877524.194748,495
1765877524.19579,495
1765877524.1968179,495
1765877524.197783,496
1765877524.1987798,498
1765877524.199769,499
1765877524.200772,504
1765877524.201783,511
1765877524.202778,514
1765877524.203913,507
1765877524.204957,507
1765877524.2058592,498
1765877524.206828,490
1765877524.207826,490
1765877524.208805,491
1765877524.209805,491
1765877524.2107909,489
1765877524.2118158,490
1765877524.21282,492
1765877524.213808,492
1765877524.214804,493
1765877524.2158039,494
1765877524.216832,493
1765877524.217825,492
1765877524.2188501,493
1765877524.219826,494
1765877524.220824,494
1765877524.221833,494
1765877524.222819,494
1765877524.223822,495
1765877524.22483,495
1765877524.2258391,494
1765877524.226832,494
1765877524.227832,495
1765877524.228849,495
1765877524.229862,494
1765877524.23088,495
1765877524.2318752,495
1765877524.232864,496
1765877524.233887,496
1765877524.234878,496
1765877524.235889,496
1765877524.2369049,495
1765877524.237899,496
1765877524.2389,496
1765877524.239894,495
1765877524.240888,494
1765877524.2418811,495
1765877524.242891,494
1765877524.2438972,494
1765877524.244948,494
1765877524.2459168,495
1765877524.246923,496
1765877524.2479098,494
1765877524.248909,495
1765877524.249911,495
1765877524.250918,495
1765877524.251918,495
1765877524.252914,495
1765877524.253935,495
1765877524.2549288,495
1765877524.255931,496
