timestamp,emg_value
1765877505.973105,495
1765877505.973121,494
1765877505.973133,494
1765877505.973143,493
1765877505.973154,493
1765877505.973164,496
1765877505.973174,497
1765877505.973184,495
1765877505.973194,493
1765877505.973204,492
1765877505.973214,493
1765877505.973224,494
1765877505.973234,495
1765877505.973244,495
1765877505.973254,495
1765877505.973264,491
1765877505.9732742,492
1765877505.973286,492
1765877505.9732952,492
1765877505.973305,493
1765877505.973315,491
1765877505.973325,493
1765877505.973335,493
1765877505.973345,492
1765877505.973354,492
1765877505.9733708,493
1765877505.9733849,493
1765877505.9733949,493
1765877505.973405,493
1765877505.973415,493
1765877505.9734242,493
1765877505.9734342,493
1765877505.973444,494
1765877505.9734552,494
1765877505.9734662,495
1765877505.9734762,494
1765877505.9734862,494
1765877505.973496,494
1765877505.973506,494
1765877505.973516,495
1765877505.973526,494
1765877505.973539,493
1765877505.9735491,494
1765877505.9735591,494
1765877505.973569,494
1765877505.973578,495
1765877505.973588,495
1765877505.973598,495
1765877505.973608,494
1765877505.973618,494
1765877505.9736278,494
1765877505.97364,494
1765877505.973652,494
1765877505.973663,493
1765877505.9736729,494
1765877505.9736829,494
1765877505.973693,494
1765877505.973703,495
1765877505.973712,495
1765877505.9737222,495
1765877505.973732,496
1765877505.973742,494
1765877505.973752,492
1765877505.973761,492
1765877505.973771,493
1765877505.9737852,493
1765877505.973803,493
1765877505.973813,493
1765877505.973823,493
1765877505.9738328,493
1765877505.9738429,494
1765877505.9738529,495
1765877505.973863,496
1765877505.973873,495
1765877505.973883,496
1765877505.973894,497
1765877505.973904,496
1765877505.973921,495
1765877505.9739351,491
1765877505.973948,490
1765877505.973959,492
1765877505.97397,492
1765877505.97398,493
1765877505.97399,494
1765877505.9740002,494
1765877505.9740102,495
1765877505.97402,494
1765877505.97403,492
1765877505.97404,492
1765877505.97405,493
1765877505.97406,492
1765877505.9740758,492
1765877505.9740858,491
1765877505.974097,491
1765877505.974108,491
1765877505.974118,492
1765877505.9741282,492
1765877505.974138,492
1765877505.974148,493
1765877505.974159,494
1765877505.974169,493
1765877505.974179,493
1765877505.974189,494
1765877505.974199,493
1765877505.9742122,494
1765877505.9742248,493
1765877505.9742348,493
1765877505.974245,494
1765877505.974255,494
1765877505.974269,494
1765877505.974279,493
1765877505.974289,493
1765877505.974299,493
1765877505.9743092,493
1765877505.9743192,493
1765877505.974329,493
1765877505.974339,493
1765877505.974348,493
1765877505.974358,493
1765877505.974368,493
1765877505.9743779,494
1765877505.974388,494
1765877505.974398,493
1765877505.974408,493
1765877505.974418,493
1765877505.9744298,493
1765877505.9744399,493
1765877505.9744499,494
1765877505.97446,494
1765877505.974475,494
1765877505.974485,493
1765877505.974499,493
1765877505.974509,494
1765877505.974519,494
1765877505.974529,494
1765877505.974539,494
1765877505.974549,493
1765877505.974559,492
1765877505.9745688,493
1765877505.97458,493
1765877505.9745889,494
1765877505.974599,495
1765877505.974609,495
1765877505.974619,494
1765877505.9746292,492
1765877505.9746392,492
1765877505.9746492,493
1765877505.9746659,493
1765877505.974676,494
1765877505.974686,493
1765877505.974696,493
1765877505.974707,493
1765877505.974716,492
1765877505.974727,493
1765877505.974737,493
1765877505.974747,493
1765877505.9747572,493
1765877505.974771,494
1765877505.974783,493
1765877505.974793,493
1765877505.974803,493
1765877505.974813,495
1765877505.974824,496
1765877505.974834,497
1765877505.974844,498
1765877505.974854,494
1765877505.9748638,494
1765877505.974874,493
1765877505.974884,493
1765877505.974894,494
1765877505.974904,493
1765877505.974914,493
1765877505.974925,492
1765877505.9749382,491
1765877505.9749482,492
1765877505.9749582,493
1765877505.974968,493
1765877505.974978,493
1765877505.974988,493
1765877505.974998,493
1765877505.975008,494
1765877505.975018,494
1765877505.975028,493
1765877505.9750452,493
1765877505.975057,493
1765877505.975067,494
1765877505.9750772,494
1765877505.9750872,494
1765877505.9750972,494
1765877505.975107,494
1765877505.975117,493
1765877505.975127,493
1765877505.975137,493
1765877505.975146,493
1765877505.975163,493
1765877505.975174,493
1765877505.975184,493
1765877505.9751942,493
1765877505.975204,493
1765877505.975214,493
1765877505.975224,493
1765877505.975234,493
1765877505.975244,493
1765877505.975254,494
1765877505.975264,496
1765877505.975274,497
1765877505.9752839,499
1765877505.9752939,499
1765877505.975304,498
1765877505.975314,491
1765877505.975328,490
1765877505.975338,493
1765877505.975348,491
1765877505.975358,492
1765877505.975368,494
1765877505.975378,493
1765877505.9753878,493
1765877505.9753978,494
1765877505.975408,493
1765877505.975418,492
1765877505.975428,493
1765877505.9754372,493
1765877505.975447,493
1765877505.975457,492
1765877505.975467,493
1765877505.975477,494
1765877505.975487,494
1765877505.975497,494
1765877505.975507,493
1765877505.975517,495
1765877505.9755268,494
1765877505.975538,493
1765877505.9755478,494
1765877505.9755578,494
1765877505.9755678,493
1765877505.9755788,494
1765877505.975591,494
1765877505.9756029,494
1765877505.9756129,495
1765877505.975625,495
1765877505.975637,494
1765877505.975649,493
1765877505.97566,493
1765877505.97567,492
1765877505.975681,493
1765877505.975691,493
1765877505.975701,494
1765877505.9757109,493
1765877505.975721,494
1765877505.975737,493
1765877505.975747,494
1765877505.9757571,493
1765877505.9757671,493
1765877505.975777,493
1765877505.975787,492
1765877505.975797,493
1765877505.975807,493
1765877505.975818,494
1765877505.975828,494
1765877505.975838,495
1765877505.975848,495
1765877505.975858,495
1765877505.975871,495
1765877505.975883,497
1765877505.975893,498
1765877505.975903,498
1765877505.975914,495
1765877505.975924,495
1765877505.975934,492
1765877505.975944,490
1765877505.9759538,492
1765877505.9759638,494
1765877505.9759738,495
1765877505.975984,495
1765877505.975994,494
1765877505.9760041,491
1765877505.9760141,492
1765877505.9760242,492
1765877505.976033,493
1765877505.976044,493
1765877505.976054,493
1765877505.976064,494
1765877505.976074,494
1765877505.976084,493
1765877505.976094,494
1765877505.976104,494
1765877505.976114,494
1765877505.976125,493
1765877505.976135,494
1765877505.97615,493
1765877505.97616,493
1765877505.97617,493
1765877505.97618,494
1765877505.9761899,494
1765877505.9761999,494
1765877505.9762099,495
1765877505.97622,493
1765877505.97623,495
1765877505.9762402,495
1765877505.976251,494
1765877505.9762611,494
1765877505.9762712,493
1765877505.976288,493
1765877505.976298,493
1765877505.9763079,493
1765877505.976318,494
1765877505.976328,494
1765877505.9763389,493
1765877505.9763489,494
1765877505.976361,494
1765877505.976371,493
1765877505.9763808,494
1765877505.9763908,494
1765877505.9764009,494
1765877505.9764118,494
1765877505.976425,495
1765877505.976437,495
1765877505.976448,497
1765877505.976458,497
1765877505.976468,494
1765877505.9764779,496
1765877505.9764879,495
1765877505.9764988,494
1765877505.9765089,492
1765877505.976518,492
1765877505.976528,493
1765877505.976539,492
1765877505.9765491,492
1765877505.9765608,493
1765877505.9765708,495
1765877505.976581,495
1765877505.976591,495
1765877505.9766011,496
1765877505.9766111,495
1765877505.9766212,492
1765877505.976631,492
1765877505.97664,493
1765877505.97665,493
1765877505.97666,493
1765877505.97667,493
1765877505.97668,493
1765877505.976703,493
1765877505.976714,494
1765877505.976724,493
1765877505.976734,494
1765877505.976744,494
1765877505.976754,494
1765877505.976764,494
1765877505.976774,494
1765877505.976784,494
1765877505.976794,494
1765877505.976811,494
1765877505.976821,494
1765877505.976831,494
1765877505.976841,494
1765877505.976851,493
1765877505.976861,494
1765877505.976876,494
1765877505.976886,494
1765877505.976897,493
1765877505.976907,494
1765877505.976917,494
1765877505.976927,493
1765877505.976937,493
1765877505.9769468,494
1765877505.9769568,493
1765877505.9769669,495
1765877505.97698,495
1765877505.976992,495
1765877505.977002,494
1765877505.977011,494
1765877505.977021,493
1765877505.977031,493
1765877505.977041,494
1765877505.9770508,495
1765877505.977061,494
1765877505.977071,494
1765877505.977081,495
1765877505.977091,496
1765877505.977101,496
1765877505.977111,496
1765877505.977121,496
1765877505.977131,496
1765877505.977141,495
1765877505.97715,496
1765877505.97716,495
1765877505.97717,494
1765877505.977181,493
1765877505.9771898,494
1765877505.977201,493
1765877505.977211,494
1765877505.977221,494
1765877505.977231,494
1765877505.977244,493
1765877505.9772558,494
1765877505.9772658,494
1765877505.9772758,494
1765877505.9772868,495
1765877505.9772968,495
1765877505.9773068,495
1765877505.977317,496
1765877505.977328,495
1765877505.977338,495
1765877505.977348,494
1765877505.977358,494
1765877505.977368,495
1765877505.9773781,494
1765877505.9773881,495
1765877505.977398,495
1765877505.9774148,494
1765877505.9774249,496
1765877505.9774349,495
1765877505.9774451,494
1765877505.9774551,493
1765877505.977466,494
1765877505.9774761,494
1765877505.9774861,494
1765877505.9774961,495
1765877505.9775062,494
1765877505.977516,494
1765877505.977529,494
1765877505.97754,494
1765877505.97755,494
1765877505.97756,494
1765877505.97757,494
1765877505.977581,494
1765877505.977591,495
1765877505.977601,494
1765877505.977611,496
1765877505.977621,497
1765877505.977631,498
1765877505.9776409,499
1765877505.977651,499
1765877505.9776618,494
1765877505.9776719,493
1765877505.9776819,492
1765877505.977692,492
1765877505.977702,492
1765877505.9777122,492
1765877505.9777222,493
1765877505.9777322,493
1765877505.9777422,493
1765877505.977752,493
1765877505.977762,494
1765877505.977772,493
1765877505.977782,494
1765877505.9777951,494
1765877505.977806,494
1765877505.977816,494
1765877505.977826,494
1765877505.9778361,493
1765877505.977846,494
1765877505.977856,494
1765877505.977866,494
1765877505.977876,494
1765877505.977886,493
1765877505.977896,493
1765877505.977906,493
1765877505.977916,494
1765877505.9779258,495
1765877505.9779358,494
1765877505.977947,494
1765877505.977957,495
1765877505.977967,495
1765877505.977977,493
1765877505.977987,493
1765877505.977997,494
1765877505.978007,494
1765877505.978017,494
1765877505.978027,495
1765877505.9780369,495
1765877505.978046,496
1765877505.978056,496
1765877505.9780748,495
1765877505.978085,494
1765877505.978095,492
1765877505.978104,494
1765877505.9781141,495
1765877505.9781241,494
1765877505.978134,495
1765877505.978144,494
1765877505.978154,494
1765877505.978164,494
1765877505.978174,494
1765877505.978184,495
1765877505.978194,495
1765877505.978204,495
1765877505.978213,494
1765877505.978223,494
1765877505.978233,493
1765877505.978243,494
1765877505.9782531,494
1765877505.978264,494
1765877505.978274,494
1765877505.9782841,495
1765877505.9782941,495
1765877505.978304,495
1765877505.978314,495
1765877505.978324,495
1765877505.978341,495
1765877505.9783528,495
1765877505.9783628,494
1765877505.978373,494
1765877505.978383,494
1765877505.978393,495
1765877505.978403,495
1765877505.978414,496
1765877505.978424,498
1765877505.978434,498
1765877505.978444,497
1765877505.978454,496
1765877505.978464,492
1765877505.978475,492
1765877505.978485,493
1765877505.978495,493
1765877505.978505,493
1765877505.978515,493
1765877505.978525,494
1765877505.978535,494
1765877505.978546,495
1765877505.978556,494
1765877505.978566,494
1765877505.978577,496
1765877505.978587,496
1765877505.9785972,495
1765877505.9786088,494
1765877505.978622,495
1765877505.978632,495
1765877505.978642,493
1765877505.978652,494
1765877505.9786618,493
1765877505.978672,493
1765877505.978682,494
1765877505.978692,494
1765877505.978702,494
1765877505.978712,494
1765877505.978722,494
1765877505.978739,494
1765877505.978749,494
1765877505.9787588,494
1765877505.9787688,494
1765877505.9787788,494
1765877505.978789,495
1765877505.978799,494
1765877505.978809,495
1765877505.9788191,495
1765877505.9788291,494
1765877505.9788392,494
1765877505.978848,494
1765877505.978858,494
1765877505.978868,495
1765877505.978878,494
1765877505.9788969,494
1765877505.9789078,495
1765877505.9789178,495
1765877505.978928,495
1765877505.9789388,495
1765877505.978949,495
1765877505.978959,495
1765877505.978969,495
1765877505.978979,495
1765877505.9789891,495
1765877505.9789991,495
1765877505.979009,495
1765877505.979019,494
1765877505.979029,494
1765877505.979039,494
1765877505.979049,494
1765877505.979059,494
1765877505.979069,495
1765877505.9790778,494
1765877505.9790878,494
1765877505.979098,494
1765877505.979108,494
1765877505.979118,495
1765877505.9791281,496
1765877505.9791381,497
1765877505.9791481,499
1765877505.979161,501
1765877505.9791732,500
1765877505.9791832,500
1765877505.9791942,501
1765877505.9792042,499
1765877505.9792142,495
1765877505.979224,492
1765877505.979234,492
1765877505.979244,490
1765877505.979254,491
1765877505.979265,493
1765877505.979275,492
1765877505.979285,492
1765877505.979295,493
1765877505.979305,493
1765877505.979318,494
1765877505.979328,494
1765877505.979338,494
1765877505.979349,494
1765877505.979359,494
1765877505.979369,494
1765877505.979379,495
1765877505.97939,494
1765877505.9794,495
1765877505.97941,494
1765877505.97942,494
1765877505.979433,495
1765877505.979445,495
1765877505.979454,494
1765877505.979464,494
1765877505.9795809,495
1765877505.979595,494
1765877505.979606,495
1765877505.979616,494
1765877505.979627,494
1765877505.979637,494
1765877505.979647,494
1765877505.979657,494
1765877505.979667,494
1765877505.979678,494
1765877505.979688,495
1765877505.979698,494
1765877505.979737,494
1765877505.979748,494
1765877505.979758,494
1765877505.979811,494
1765877505.979831,495
1765877505.979844,496
1765877505.9798558,495
1765877505.979887,496
1765877505.980017,495
1765877505.980028,494
1765877505.980038,493
1765877505.980055,494
1765877505.980065,493
1765877505.9800751,494
1765877505.980085,495
1765877505.980095,497
1765877505.980105,495
1765877505.980115,493
1765877505.980126,494
1765877505.980136,495
1765877505.980146,495
1765877505.980156,495
1765877505.980166,495
1765877505.980176,494
1765877505.9801862,494
1765877505.980196,495
1765877505.980205,496
1765877505.980215,498
1765877505.980225,499
1765877505.980235,497
1765877505.9802449,493
1765877505.980255,493
1765877505.980265,494
1765877505.980275,494
1765877505.980285,494
1765877505.980295,493
1765877505.980305,492
1765877505.980318,494
1765877505.980329,493
1765877505.980339,494
1765877505.9803488,494
1765877505.9803588,495
1765877505.9803689,495
1765877505.9803789,495
1765877505.9803882,495
1765877505.9803982,495
1765877505.980408,494
1765877505.980418,494
1765877505.980428,494
1765877505.980437,494
1765877505.980447,494
1765877505.980457,494
1765877505.9804668,494
1765877505.980478,494
1765877505.9804878,494
1765877505.9804978,493
1765877505.9805079,493
1765877505.9805179,494
1765877505.9805272,494
1765877505.9805372,495
1765877505.9805472,495
1765877505.980557,495
1765877505.980567,495
1765877505.98058,495
1765877505.980592,494
1765877505.980602,495
1765877505.980612,495
1765877505.980622,495
1765877505.980632,495
1765877505.980642,494
1765877505.980652,496
1765877505.980662,497
1765877505.980671,495
1765877505.980681,494
1765877505.980691,493
1765877505.980701,493
1765877505.980711,494
1765877505.980721,494
1765877505.98073,494
1765877505.98074,494
1765877505.98075,494
1765877505.98076,494
1765877505.98077,494
1765877505.9807801,495
1765877505.98079,495
1765877505.980801,494
1765877505.980812,494
1765877505.980821,494
1765877505.980831,495
1765877505.980841,494
1765877505.9808571,494
1765877505.9808671,494
1765877505.9808772,494
1765877505.980887,494
1765877505.980897,494
1765877505.980906,495
1765877505.980916,496
1765877505.980926,495
1765877505.980936,495
1765877505.9809458,495
1765877505.9809558,494
1765877505.9809659,493
1765877505.980976,494
1765877505.980986,494
1765877505.981004,495
1765877505.981024,494
1765877505.981044,494
1765877505.9810638,494
1765877505.9810822,495
1765877505.981101,495
1765877505.98112,496
1765877505.981138,495
1765877505.981157,495
1765877505.9811761,494
1765877505.981195,494
1765877505.9812129,495
1765877505.981237,495
1765877505.981256,494
1765877505.9812741,495
1765877505.981293,495
1765877505.981312,495
1765877505.98133,496
1765877505.981348,497
1765877505.981366,498
1765877505.981387,497
1765877505.981408,495
1765877505.981426,493
1765877505.981445,495
1765877505.981463,495
1765877505.981482,494
1765877505.9815,495
1765877505.9815192,495
1765877505.981537,494
1765877505.981555,496
1765877505.9815738,496
1765877505.9815922,495
1765877505.981611,495
1765877505.981629,495
1765877505.981647,496
1765877505.9816651,496
1765877505.981684,497
1765877505.9817028,498
1765877505.981728,498
1765877505.981746,498
1765877505.981764,497
1765877505.9817832,496
1765877505.981802,496
1765877505.9818199,495
1765877505.9818392,496
1765877505.9818518,494
1765877505.9818618,492
1765877505.9818711,493
1765877505.9818811,492
1765877505.9818912,493
1765877505.9819012,494
1765877505.981911,495
1765877505.981921,495
1765877505.981931,495
1765877505.98194,495
1765877505.98195,494
1765877505.981962,495
1765877505.981972,495
1765877505.981982,495
1765877505.981992,495
1765877505.982002,495
1765877505.9820118,494
1765877505.982077,494
1765877505.982094,495
1765877505.982115,495
1765877505.9821298,495
1765877505.982144,495
1765877505.982156,495
1765877505.982168,494
1765877505.9821792,494
1765877505.982193,495
1765877505.9822059,494
1765877505.982218,495
1765877505.98223,495
1765877505.982249,495
1765877505.982261,495
1765877505.982273,494
1765877505.982286,494
1765877505.9822981,495
1765877505.9823098,494
1765877505.982322,495
1765877505.982335,495
1765877505.9823492,495
1765877505.982362,495
1765877505.982378,494
1765877505.982391,495
1765877505.982406,495
1765877505.9824178,495
1765877505.98243,495
1765877505.982442,495
1765877505.982458,496
1765877505.982472,496
1765877505.9824839,496
1765877505.982495,494
1765877505.982507,493
1765877505.9825191,494
1765877505.98253,494
1765877505.982548,494
1765877505.9825652,494
1765877505.98258,496
1765877505.982592,496
1765877505.982604,497
1765877505.982616,497
1765877505.9826272,496
1765877505.982639,493
1765877505.982651,494
1765877505.982663,494
1765877505.982674,494
1765877505.982686,494
1765877505.982698,494
1765877505.982709,494
1765877505.982721,494
1765877505.982733,494
1765877505.982744,494
1765877505.9827561,494
1765877505.982768,495
1765877505.982783,494
1765877505.982798,495
1765877505.98281,496
1765877505.9828212,495
1765877505.982833,495
1765877505.98285,495
1765877505.9828649,496
1765877505.982879,496
1765877505.982898,496
1765877505.98291,496
1765877505.982927,495
1765877505.982941,495
1765877505.982953,495
1765877505.982965,495
1765877505.9829812,495
1765877505.982993,495
1765877505.9830039,495
1765877505.983016,496
1765877505.983028,495
1765877505.98304,494
1765877505.983058,494
1765877505.983076,494
1765877505.98309,495
1765877505.9831018,495
1765877505.983114,494
1765877505.983126,494
1765877505.9831412,495
1765877505.983155,494
1765877505.9831722,495
1765877505.983186,495
1765877505.983199,495
1765877505.983217,495
1765877505.983231,495
1765877505.983244,494
1765877505.983256,495
1765877505.983267,495
1765877505.983279,496
1765877505.983291,496
1765877505.983308,496
1765877505.9833221,495
1765877505.983337,493
1765877505.98335,492
1765877505.9833632,493
1765877505.983375,493
1765877505.983387,494
1765877505.983399,495
1765877505.9834108,495
1765877505.983423,495
1765877505.983434,496
1765877505.9834461,498
1765877505.983458,498
1765877505.983472,498
1765877505.983487,497
1765877505.983499,494
1765877505.983511,491
1765877505.9835231,494
1765877505.983535,494
1765877505.983553,493
1765877505.983568,494
1765877505.983582,495
1765877505.9836001,495
1765877505.983615,495
1765877505.983629,494
1765877505.9836411,494
1765877505.983653,495
1765877505.983665,495
1765877505.983676,495
1765877505.9836879,496
1765877505.9837,495
1765877505.983711,496
1765877505.983723,494
1765877505.983735,495
1765877505.983746,494
1765877505.983758,495
1765877505.9837701,494
1765877505.9837818,495
1765877505.9837928,494
1765877505.983805,495
1765877505.983819,495
1765877505.983834,495
1765877505.983846,494
1765877505.9838579,495
1765877505.98387,495
1765877505.983882,495
1765877505.983893,496
1765877505.983905,495
1765877505.983917,495
1765877505.9839292,495
1765877505.983941,495
1765877505.9839518,495
1765877505.983964,496
1765877505.983976,495
1765877505.983988,495
1765877505.984,495
1765877505.9840121,495
1765877505.984031,495
1765877505.984046,495
1765877505.9840598,495
1765877505.984072,496
1765877505.984084,496
1765877505.984096,495
1765877505.9841092,495
1765877505.984121,495
1765877505.984133,496
1765877505.9841862,498
1765877505.984204,499
1765877505.9842172,500
1765877505.9842792,499
1765877505.9842932,498
1765877505.9843352,495
1765877505.984351,491
1765877505.984364,491
1765877505.9843771,493
1765877505.984389,494
1765877505.984401,495
1765877505.9844139,495
1765877505.984426,495
1765877505.984438,495
1765877505.98445,495
1765877505.984462,494
1765877505.984475,494
1765877505.9844868,494
1765877505.984499,495
1765877505.984511,495
1765877505.984523,495
1765877505.984535,496
1765877505.9845471,496
1765877505.9846,495
1765877505.984639,495
1765877505.984691,495
1765877505.984715,495
1765877505.984728,495
1765877505.9847412,495
1765877505.984759,495
1765877505.984771,496
1765877505.9847832,495
1765877505.984802,495
1765877505.984816,494
1765877505.984828,494
1765877505.98484,495
1765877505.984852,495
1765877505.984864,496
1765877505.984879,495
1765877505.984891,496
1765877505.9849029,498
1765877505.984915,501
1765877505.984927,502
1765877505.98494,502
1765877505.984952,497
1765877505.984965,493
1765877505.984978,493
1765877505.98499,491
1765877505.985002,493
1765877505.985028,493
1765877505.9850419,494
1765877505.985054,494
1765877505.985069,493
1765877505.9850821,494
1765877505.985095,494
1765877505.985111,494
1765877505.985124,495
1765877505.985136,495
1765877505.985148,495
1765877505.985161,495
1765877505.985173,495
1765877505.985186,494
1765877505.985198,495
1765877505.9852102,496
1765877505.9852219,495
1765877505.985234,495
1765877505.985246,495
1765877505.985258,495
1765877505.98527,495
1765877505.985282,495
1765877505.9852931,495
1765877505.985305,495
1765877505.9853172,495
1765877505.985329,495
1765877505.9853399,495
1765877505.985352,495
1765877505.985364,494
1765877505.985388,495
1765877505.985404,495
1765877505.985416,495
1765877505.9854279,496
1765877505.985441,496
1765877505.985454,496
1765877505.985466,497
1765877505.985478,496
1765877505.985496,496
1765877505.9855099,495
1765877505.985524,493
1765877505.985536,494
1765877505.985548,494
1765877505.985562,494
1765877505.985575,495
1765877505.985587,495
1765877505.985599,495
1765877505.985611,495
1765877505.9856231,495
1765877505.985635,495
1765877505.9856472,495
1765877505.985659,495
1765877505.985672,495
1765877505.985684,495
1765877505.985696,494
1765877505.985708,495
1765877505.9857202,495
1765877505.985733,495
1765877505.985748,495
1765877505.985761,495
1765877505.985775,495
1765877505.985794,494
1765877505.985806,495
1765877505.9858189,495
1765877505.985831,495
1765877505.985843,495
1765877505.9858549,495
1765877505.985867,494
1765877505.985879,495
1765877505.985891,495
1765877505.985903,494
1765877505.985915,494
1765877505.9859269,494
1765877505.985939,495
1765877505.985951,496
1765877505.985964,496
1765877505.985976,496
1765877505.9859881,497
1765877505.9859998,498
1765877505.986012,498
1765877505.986024,497
1765877505.986037,494
1765877505.986049,494
1765877505.9860659,494
1765877505.986079,495
1765877505.986091,495
1765877505.986103,495
1765877505.9861162,494
1765877505.9861279,495
1765877505.98614,495
1765877505.986152,495
1765877505.9861639,495
1765877505.986176,495
1765877505.986188,495
1765877505.9862,495
1765877505.986219,495
1765877505.986231,495
1765877505.986243,495
1765877505.986259,495
1765877505.986271,495
1765877505.986283,495
1765877505.986295,495
1765877505.9863071,496
1765877505.986319,495
1765877505.986331,495
1765877505.986343,495
1765877505.9863548,495
1765877505.986395,495
1765877505.986409,495
1765877505.986426,496
1765877505.986441,496
1765877505.986454,497
1765877505.986466,498
1765877505.986479,498
1765877505.986491,497
1765877505.9865038,497
1765877505.986516,496
1765877505.986528,497
1765877505.986541,496
1765877505.9865558,496
1765877505.986569,495
1765877505.986581,496
1765877505.986594,495
1765877505.986607,496
1765877505.98662,495
1765877505.9866319,496
1765877505.986645,495
1765877505.9866571,495
1765877505.9866722,495
1765877505.9866838,495
1765877505.986697,495
1765877505.9867089,496
1765877505.986722,496
1765877505.9867342,495
1765877505.9867468,496
1765877505.986762,495
1765877505.986775,495
1765877505.986787,496
1765877505.986799,496
1765877505.9868119,496
1765877505.986824,496
1765877505.986837,496
1765877505.986849,496
1765877505.986861,495
1765877505.986874,494
1765877505.9868858,495
1765877505.986898,495
1765877505.986911,495
1765877505.986923,495
1765877505.986936,495
1765877505.98695,495
1765877505.9869618,495
1765877505.986974,495
1765877505.986986,495
1765877505.986998,495
1765877505.98701,495
1765877505.9870248,495
1765877505.987038,495
1765877505.98705,495
1765877505.987062,495
1765877505.9870741,495
1765877505.987088,495
1765877505.9871008,495
1765877505.987113,494
1765877505.987125,495
1765877505.987137,495
1765877505.9871502,495
1765877505.987162,495
1765877505.9871738,495
1765877505.987187,495
1765877505.987199,495
1765877505.987211,495
1765877505.987224,495
1765877505.987236,495
1765877505.9872482,495
1765877505.9872608,495
1765877505.987273,495
1765877505.987286,495
1765877505.987299,496
1765877505.9873111,495
1765877505.987324,495
1765877505.987336,495
1765877505.9874299,495
1765877505.987444,495
1765877505.987471,495
1765877505.987514,495
1765877505.987545,495
1765877505.987591,495
1765877505.987605,495
1765877505.987617,495
1765877505.987631,495
1765877505.9876428,495
1765877505.9876559,494
1765877505.987668,495
1765877505.98768,495
1765877505.987692,495
1765877505.987704,495
1765877505.9877172,495
1765877505.9877288,495
1765877505.987742,495
1765877505.9877539,495
1765877505.987778,496
1765877505.987797,495
1765877505.987809,495
1765877505.987821,495
1765877505.9878342,494
1765877505.987846,495
1765877505.9878578,495
1765877505.987871,495
1765877505.987883,496
1765877505.987895,496
1765877505.9879072,495
1765877505.987919,495
1765877505.987944,495
1765877505.987956,494
1765877505.987969,495
1765877505.987981,495
1765877505.987993,495
1765877505.988009,494
1765877505.988022,494
1765877505.988034,494
1765877505.988051,494
1765877505.988065,495
1765877505.9880772,494
1765877505.9880939,495
1765877505.988107,495
1765877505.98812,495
1765877505.988132,495
1765877505.988148,494
1765877505.98816,494
1765877505.988172,494
1765877505.988184,494
1765877505.988197,495
1765877505.988211,496
1765877505.988224,495
1765877505.988236,495
1765877505.988248,495
1765877505.988262,495
1765877505.9883242,495
1765877505.9883578,495
1765877505.9883761,496
1765877505.988393,495
1765877505.988409,494
1765877505.9884238,494
1765877505.98844,494
1765877505.9884548,495
1765877505.988471,494
1765877505.988487,495
1765877505.988502,495
1765877505.988518,495
1765877505.988534,495
1765877505.98855,495
1765877505.98856,495
1765877505.9885702,495
1765877505.988582,495
1765877505.9885921,495
1765877505.9886022,495
1765877505.9886122,495
1765877505.9886231,495
1765877505.9886348,494
1765877505.988652,494
1765877505.988662,494
1765877505.988672,494
1765877505.988682,495
1765877505.988692,494
1765877505.988704,495
1765877505.988719,496
1765877505.988729,495
1765877505.988739,495
1765877505.988749,496
1765877505.988759,495
1765877505.988769,495
1765877505.988779,495
1765877505.988789,495
1765877505.988799,494
1765877505.988808,495
1765877505.988818,495
1765877505.988828,495
1765877505.988838,495
1765877505.9888482,495
1765877505.9888582,495
1765877505.988868,495
1765877505.988878,495
1765877505.988887,495
1765877505.988897,495
1765877505.988907,495
1765877505.9889169,495
1765877505.988927,495
1765877505.988937,495
1765877505.988947,495
1765877505.988957,495
1765877505.988966,495
1765877505.9889789,495
1765877505.9889889,495
1765877505.988999,495
1765877505.989008,495
1765877505.9890182,495
1765877505.989028,496
1765877505.989038,496
1765877505.989048,494
1765877505.989057,493
1765877505.989067,494
1765877505.989077,493
1765877505.989088,494
1765877505.9890969,495
1765877505.989107,495
1765877505.9891179,495
1765877505.989127,495
1765877505.989137,496
1765877505.989147,496
1765877505.989158,495
1765877505.9891682,495
1765877505.9891782,495
1765877505.9891882,495
1765877505.989197,495
1765877505.989207,495
1765877505.989221,495
1765877505.9892302,495
1765877505.989242,495
1765877505.989254,496
1765877505.989269,496
1765877505.9892852,496
1765877505.9893,495
1765877505.989316,494
1765877505.989331,495
1765877505.989346,494
1765877505.9893608,495
1765877505.989377,495
1765877505.989391,495
1765877505.989407,495
1765877505.989422,494
1765877505.9894369,495
1765877505.9894521,494
1765877505.989467,494
1765877505.989483,495
1765877505.9894981,495
1765877505.989513,494
1765877505.9895291,495
1765877505.989544,495
1765877505.989559,495
1765877505.989575,495
1765877505.98959,495
1765877505.9896052,495
1765877505.989621,495
1765877505.9896388,495
1765877505.989655,495
1765877505.989671,494
1765877505.989686,495
1765877505.989702,495
1765877505.989717,494
1765877505.9897332,495
1765877505.989748,496
1765877505.989763,495
1765877505.9897778,495
1765877505.989794,495
1765877505.9898088,495
1765877505.989825,495
1765877505.9898398,495
1765877505.989855,494
1765877505.989871,495
1765877505.989886,495
1765877505.989901,495
1765877505.989917,495
1765877505.989932,495
1765877505.9899478,496
1765877505.989964,495
1765877505.9899788,494
1765877505.990001,494
1765877505.990017,494
1765877505.990032,494
1765877505.99005,494
1765877505.9900658,494
1765877505.990082,496
1765877505.9900968,495
1765877505.990113,495
1765877505.990128,495
1765877505.990144,495
1765877505.99016,495
1765877505.990176,495
1765877505.990187,495
1765877505.990197,495
1765877505.990207,496
1765877505.990217,496
1765877505.990227,495
1765877505.990237,494
1765877505.990247,494
1765877505.9902568,495
1765877505.9902668,495
1765877505.990277,496
1765877505.990286,495
1765877505.9902961,495
1765877505.9903061,495
1765877505.990316,495
1765877505.990326,496
1765877505.990336,495
1765877505.990346,495
1765877505.990358,495
1765877505.99037,495
1765877505.99038,495
1765877505.99039,494
1765877505.9904,495
1765877505.99041,495
1765877505.9904199,495
1765877505.9904299,495
1765877505.99044,496
1765877505.99045,495
1765877505.99046,495
1765877505.99047,495
1765877505.99048,496
1765877505.9904902,495
1765877505.9905002,495
1765877505.99051,495
1765877505.99052,496
1765877505.990529,495
1765877505.99054,496
1765877505.99055,495
1765877505.990565,495
1765877505.990575,495
1765877505.990585,495
1765877505.990595,495
1765877505.990605,495
1765877505.9906151,495
1765877505.9906251,495
1765877505.990638,495
1765877505.990648,495
1765877505.990658,494
1765877505.990668,495
1765877505.990678,495
1765877505.990687,495
1765877505.990697,495
1765877505.990707,494
1765877505.990717,496
1765877505.990727,495
1765877505.9907358,495
1765877505.990746,495
1765877505.990761,495
1765877505.990771,495
1765877505.9907799,495
1765877505.99079,495
1765877505.9908,494
1765877505.9908102,495
1765877505.9908202,494
1765877505.9908302,494
1765877505.99084,494
1765877505.99085,494
1765877505.99086,494
1765877505.99087,495
1765877505.99088,496
1765877505.99089,496
1765877505.990902,495
1765877505.990914,496
1765877505.9909241,496
1765877505.9909341,495
1765877505.990944,495
1765877505.990954,496
1765877505.990964,496
1765877505.990974,495
1765877505.990984,495
1765877505.990994,496
1765877505.991004,496
1765877505.991014,496
1765877505.991029,496
1765877505.991039,495
1765877505.991049,496
1765877505.991064,496
1765877505.9910731,495
1765877505.991083,496
1765877505.991093,496
1765877505.9911082,496
1765877505.991117,497
1765877505.991127,497
1765877505.991137,497
1765877505.991147,496
1765877505.991157,497
1765877505.991167,496
1765877505.991179,497
1765877505.991189,496
1765877505.991199,496
1765877505.991209,495
1765877505.991219,495
1765877505.9912288,496
1765877505.991244,496
1765877505.991254,496
1765877505.991264,497
1765877505.9912739,497
1765877505.991284,497
1765877505.991293,495
1765877505.991303,495
1765877505.991313,495
1765877505.991323,496
1765877505.991333,496
1765877505.991343,495
1765877505.991353,495
1765877505.991363,495
1765877505.991373,495
1765877505.991383,496
1765877505.991393,495
1765877505.991403,496
1765877505.9914129,495
1765877505.991423,495
1765877505.991433,495
1765877505.991446,496
1765877505.991457,495
1765877505.991467,495
1765877505.991477,495
1765877505.991487,495
1765877505.991498,495
1765877505.991508,495
1765877505.9915168,495
1765877505.9915268,495
1765877505.9915369,497
1765877505.9915469,496
1765877505.9915571,495
1765877505.9915671,493
1765877505.991578,494
1765877505.991588,495
1765877505.9915981,495
1765877505.9916081,496
1765877505.991617,496
1765877505.991627,495
1765877505.991637,495
1765877505.991647,495
1765877505.991657,495
1765877505.991667,495
1765877505.991677,495
1765877505.9916868,495
1765877505.9916968,495
1765877505.991709,495
1765877505.99172,495
1765877505.99173,496
1765877505.99174,496
1765877505.99175,495
1765877505.9917598,494
1765877505.99177,495
1765877505.9917839,495
1765877505.9917939,495
1765877505.991804,495
1765877505.991814,496
1765877505.991828,496
1765877505.991838,496
1765877505.991848,495
1765877505.991858,496
1765877505.991868,495
1765877505.9918778,496
1765877505.991887,496
1765877505.991897,495
1765877505.9919071,495
1765877505.9919171,496
1765877505.9919271,496
1765877505.991937,495
1765877505.991946,496
1765877505.991956,495
1765877505.9919722,495
1765877505.991982,495
1765877505.9919941,496
1765877505.9920042,495
1765877505.9920142,496
1765877505.992024,497
1765877505.992034,495
1765877505.992044,496
1765877505.992054,496
1765877505.992064,495
1765877505.992074,495
1765877505.992084,495
1765877505.992094,496
1765877505.992104,495
1765877505.9921138,496
1765877505.992125,495
1765877505.9921348,495
1765877505.9921448,495
1765877505.9921548,496
1765877505.992165,495
1765877505.992175,495
1765877505.992185,496
1765877505.9921951,496
1765877505.9922051,496
1765877505.9922152,496
1765877505.992225,496
1765877505.992235,496
1765877505.992245,496
1765877505.992257,497
1765877505.992268,496
1765877505.992278,497
1765877505.992288,496
1765877505.992298,495
1765877505.992307,495
1765877505.992317,495
1765877505.992327,495
1765877505.992337,496
1765877505.9923468,495
1765877505.992356,495
1765877505.992366,495
1765877505.992376,495
1765877505.992386,495
1765877505.992396,495
1765877505.9924061,496
1765877505.992416,496
1765877505.992426,496
1765877505.992436,495
1765877505.992445,495
1765877505.992455,495
1765877505.9924648,495
1765877505.9924748,495
1765877505.992485,495
1765877505.992495,495
1765877505.9925041,496
1765877505.992516,497
1765877505.992527,497
1765877505.992537,497
1765877505.992547,497
1765877505.992557,496
1765877505.992567,495
1765877505.992586,496
1765877505.9926,496
1765877505.99261,495
1765877505.99262,495
1765877505.99263,496
1765877505.99264,496
1765877505.99265,496
1765877505.99266,496
1765877505.99267,497
1765877505.9926798,497
1765877505.9926898,497
1765877505.9926999,497
1765877505.9927099,496
1765877505.99272,495
1765877505.9927301,495
1765877505.9927402,495
1765877505.9927502,495
1765877505.9927602,497
1765877505.99277,496
1765877505.99278,496
1765877505.992789,497
1765877505.9928021,497
1765877505.992812,496
1765877505.992822,496
1765877505.992841,496
1765877505.992851,496
1765877505.992861,496
1765877505.9928708,496
1765877505.9928808,496
1765877505.9928901,495
1765877505.9929001,495
1765877505.9929101,496
1765877505.9929202,497
1765877505.992939,497
1765877505.992949,495
1765877505.992959,495
1765877505.992969,496
1765877505.992979,495
1765877505.9929888,495
1765877505.9929988,495
1765877505.9930089,495
1765877505.9930189,495
1765877505.993029,495
1765877505.9930391,495
1765877505.9930491,496
1765877505.9930592,497
1765877505.9930692,498
1765877505.993081,497
1765877505.993092,498
1765877505.993102,499
1765877505.993112,498
1765877505.993122,497
1765877505.993132,495
1765877505.9931421,495
1765877505.993152,495
1765877505.993162,495
1765877505.993172,496
1765877505.993182,496
1765877505.993192,496
1765877505.993202,497
1765877505.993212,498
1765877505.993222,497
1765877505.993231,498
1765877505.993241,497
1765877505.993251,497
1765877505.993262,497
1765877505.993271,496
1765877505.9932811,496
1765877505.993291,495
1765877505.993301,495
1765877505.993311,495
1765877505.993321,494
1765877505.993331,495
1765877505.9933429,496
1765877505.993354,497
1765877505.9933639,496
1765877505.9933739,497
1765877505.993384,497
1765877505.993394,496
1765877505.993404,495
1765877505.993414,495
1765877505.993424,495
1765877505.993435,495
1765877505.9934561,495
1765877505.9934661,495
1765877505.9934762,496
1765877505.9934878,496
1765877505.993498,496
1765877505.993508,495
1765877505.993518,496
1765877505.9935281,497
1765877505.9935381,497
1765877505.993548,498
1765877505.993558,496
1765877505.993568,496
1765877505.993578,497
1765877505.993593,496
1765877505.993603,496
1765877505.993613,496
1765877505.9936252,496
1765877505.9936361,495
1765877505.9936461,496
1765877505.9936562,496
1765877505.993666,495
1765877505.993676,495
1765877505.993686,494
1765877505.993696,495
1765877505.993706,496
1765877505.993716,495
1765877505.993726,496
1765877505.993736,497
1765877505.9937458,497
1765877505.9937558,496
1765877505.9937658,497
1765877505.993776,498
1765877505.993786,499
1765877505.993796,499
1765877505.9938061,498
1765877505.993815,496
1765877505.993825,494
1765877505.993835,493
1765877505.993845,493
1765877505.993855,495
1765877505.993865,496
1765877505.993875,495
1765877505.993887,496
1765877505.9939032,496
1765877505.9939158,496
1765877505.993929,495
1765877505.993942,495
1765877505.993956,495
1765877505.993969,495
1765877505.9939818,496
1765877505.993995,496
1765877505.994008,496
1765877505.9940212,494
1765877505.9940329,495
1765877505.994046,496
1765877505.994059,497
1765877505.994072,498
1765877505.994085,499
1765877505.994098,499
1765877505.994112,498
1765877505.9941251,497
1765877505.994138,497
1765877505.9941509,495
1765877505.994165,494
1765877505.994176,495
1765877505.994186,496
1765877505.994197,496
1765877505.994207,496
1765877505.994217,496
1765877505.994231,495
1765877505.994242,495
1765877505.994252,495
1765877505.994262,497
1765877505.994272,498
1765877505.994282,498
1765877505.994292,498
1765877505.994302,495
1765877505.994312,496
1765877505.9943218,496
1765877505.9943318,496
1765877505.9943411,496
1765877505.9943511,496
1765877505.9943612,495
1765877505.9943712,496
1765877505.994381,496
1765877505.994391,496
1765877505.994401,496
1765877505.994414,497
1765877505.994424,497
1765877505.994434,497
1765877505.9944441,496
1765877505.994454,497
1765877505.994464,497
1765877505.994474,497
1765877505.994484,496
1765877505.994496,495
1765877505.994507,494
1765877505.994517,494
1765877505.994526,495
1765877505.994536,496
1765877505.994546,496
1765877505.994556,495
1765877505.994566,495
1765877505.994576,495
1765877505.9945862,496
1765877505.994596,495
1765877505.994606,495
1765877505.994616,494
1765877505.994626,494
1765877505.994636,494
1765877505.994646,494
1765877505.994656,496
1765877505.994666,496
1765877505.9946759,496
1765877505.994686,498
1765877505.994696,497
1765877505.994706,496
1765877505.994716,497
1765877505.994726,496
1765877505.9947362,497
1765877505.9947462,496
1765877505.99476,496
1765877505.9947698,496
1765877505.9947798,496
1765877505.9947898,497
1765877505.9948,498
1765877505.99481,497
1765877505.99482,497
1765877505.9948301,496
1765877505.9948401,497
1765877505.9948502,497
1765877505.9948611,497
1765877505.9948711,497
1765877505.994881,497
1765877505.994891,497
1765877505.994901,496
1765877505.994911,496
1765877505.99492,497
1765877505.99493,497
1765877505.9949398,497
1765877505.9949498,497
1765877505.9949598,497
1765877505.99497,496
1765877505.99498,495
1765877505.9949892,496
1765877505.994999,496
1765877505.995009,496
1765877505.995019,495
1765877505.995031,496
1765877505.995042,496
1765877505.9950552,496
1765877505.9950678,496
1765877505.995081,496
1765877505.995094,496
1765877505.9951072,496
1765877505.995121,496
1765877505.9951339,496
1765877505.995147,496
1765877505.99516,496
1765877505.9951732,496
1765877505.9951859,496
1765877505.9952,496
1765877505.995213,495
1765877505.9952261,496
1765877505.995239,495
1765877505.995252,495
1765877505.995265,495
1765877505.9952781,495
1765877505.995291,495
1765877505.9953039,496
1765877505.995317,496
1765877505.99533,497
1765877505.9953432,496
1765877505.9953558,497
1765877505.995372,496
1765877505.9953852,495
1765877505.995399,495
1765877505.995411,494
1765877505.995424,495
1765877505.9954371,494
1765877505.99545,495
1765877505.995463,495
1765877505.995476,496
1765877505.9954891,496
1765877505.995502,496
1765877505.9955149,495
1765877505.995528,495
1765877505.995541,496
1765877505.995554,495
1765877505.995567,496
1765877505.9955788,496
1765877505.9955919,496
1765877505.995605,495
1765877505.995618,496
1765877505.9956312,497
1765877505.995645,497
1765877505.995658,495
1765877505.995671,494
1765877505.9956841,495
1765877505.9956968,495
1765877505.995712,495
1765877505.995726,495
1765877505.995739,495
1765877505.9957519,496
1765877505.995766,496
1765877505.995779,496
1765877505.995792,495
1765877505.995805,495
1765877505.995818,494
1765877505.995831,494
1765877505.9958441,495
1765877505.995857,495
1765877505.9958699,496
1765877505.995883,498
1765877505.995896,497
1765877505.995908,496
1765877505.995921,496
1765877505.995934,496
1765877505.995946,496
1765877505.995959,495
1765877505.9959722,495
1765877505.9959848,496
1765877505.995998,496
1765877505.996011,496
1765877505.9960241,496
1765877505.996037,496
1765877505.996052,496
1765877505.996066,495
1765877505.9960792,495
1765877505.9960918,495
1765877505.996105,496
1765877505.9961169,495
1765877505.99613,496
1765877505.996143,496
1765877505.996156,495
1765877505.9961689,496
1765877505.996182,495
1765877505.996195,495
1765877505.996207,495
1765877505.9962199,496
1765877505.996233,495
1765877505.996246,497
1765877505.996259,496
1765877505.996272,495
1765877505.996285,496
1765877505.996298,496
1765877505.99631,495
1765877505.996323,495
1765877505.9963362,495
1765877505.9963489,495
1765877505.996362,496
1765877505.996375,495
1765877505.9963882,496
1765877505.996405,495
1765877505.996418,495
1765877505.9964318,496
1765877505.996445,496
1765877505.996458,496
1765877505.996471,496
1765877505.996484,496
1765877505.996497,496
1765877505.99651,496
1765877505.996523,495
1765877505.996536,495
1765877505.9965491,495
1765877505.996562,496
1765877505.9965749,496
1765877505.996588,496
1765877505.996601,496
1765877505.996614,495
1765877505.9966269,495
1765877505.99664,495
1765877505.996653,495
1765877505.9966662,495
1765877505.9966788,495
1765877505.996691,495
1765877505.996704,495
1765877505.996717,496
1765877505.99673,496
1765877505.9967492,495
1765877505.996765,496
1765877505.996778,496
1765877505.9967911,496
1765877505.996804,495
1765877505.9968169,496
1765877505.99683,496
1765877505.996843,496
1765877505.996856,495
1765877505.9968681,496
1765877505.996881,496
1765877505.996895,496
1765877505.996907,496
1765877505.99692,496
1765877505.9969301,496
1765877505.996942,496
1765877505.996953,496
1765877505.996964,496
1765877505.9969752,496
1765877505.9969862,496
1765877505.9969978,497
1765877505.9970088,496
1765877505.99702,495
1765877505.997031,494
1765877505.997043,493
1765877505.997056,494
1765877505.997072,494
1765877505.997083,495
1765877505.9970949,496
1765877505.9971058,496
1765877505.997117,496
1765877505.997129,497
1765877505.99714,498
1765877505.997151,497
1765877505.9971619,495
1765877505.997173,495
1765877505.997185,496
1765877505.997196,496
1765877505.997207,496
1765877505.9972181,496
1765877505.997229,495
1765877505.99724,495
1765877505.997252,496
1765877505.9972632,496
1765877505.9972742,495
1765877505.9972868,495
1765877505.997298,496
1765877505.99731,496
1765877505.997321,496
1765877505.9973319,495
1765877505.997344,496
1765877505.997355,496
1765877505.997369,496
1765877505.9973812,496
1765877505.997392,496
1765877505.9974039,496
1765877505.9974148,496
1765877505.997427,496
1765877505.997438,496
1765877505.9974499,496
1765877505.997461,496
1765877505.997472,495
1765877505.997483,496
1765877505.997495,495
1765877505.9975061,496
1765877505.997517,495
1765877505.997529,496
1765877505.99754,495
1765877505.9975512,496
1765877505.997563,495
1765877505.9975739,496
1765877505.9975848,495
1765877505.9975958,496
1765877505.997608,496
1765877505.997619,495
1765877505.99763,496
1765877505.997642,496
1765877505.997653,496
1765877505.997667,496
1765877505.9976802,495
1765877505.997691,495
1765877505.997702,495
1765877505.9977129,496
1765877505.9977238,496
1765877505.997735,496
1765877505.997746,496
1765877505.997758,496
1765877505.9977689,496
1765877505.99778,496
1765877505.997795,496
1765877505.997807,496
1765877505.997818,496
1765877505.99783,496
1765877505.997841,496
1765877505.9978518,496
1765877505.997864,495
1765877505.997875,496
1765877505.997886,495
1765877505.997898,495
1765877505.997909,496
1765877505.997921,496
1765877505.997932,496
1765877505.997943,496
1765877505.9979541,496
1765877505.997965,496
1765877505.997979,496
1765877505.9979908,496
1765877505.9980748,496
1765877505.998086,496
1765877505.998098,496
1765877505.9981089,496
1765877505.9981198,496
1765877505.998131,495
1765877505.998143,495
1765877505.998154,495
1765877505.998165,496
1765877505.998176,496
1765877505.998187,496
1765877505.998198,495
1765877505.99821,496
1765877505.9982212,496
1765877505.9982321,495
1765877505.998244,496
1765877505.998255,496
1765877505.998267,496
1765877505.998278,496
1765877505.9982889,495
1765877505.998301,495
1765877505.998312,496
1765877505.998323,495
1765877505.998335,496
1765877505.9983501,497
1765877505.998361,495
1765877505.998372,495
1765877505.9983842,495
1765877505.998395,495
1765877505.998406,496
1765877505.998417,496
1765877505.9984279,495
1765877505.99844,496
1765877505.998451,496
1765877505.998463,496
1765877505.998475,496
1765877505.998486,495
1765877505.998497,496
1765877505.9985092,496
1765877505.9985201,495
1765877505.998531,495
1765877505.998543,495
1765877505.9985542,496
1765877505.998566,496
1765877505.9985769,496
1765877505.9985878,495
1765877505.9986,496
1765877505.998611,496
1765877505.998623,495
1765877505.998634,495
1765877505.9986491,495
1765877505.9986649,496
1765877505.998676,496
1765877505.998687,496
1765877505.998699,496
1765877505.99871,496
1765877505.9987211,495
1765877505.998732,495
1765877505.998743,495
1765877505.998754,496
1765877505.9987662,496
1765877505.9987772,495
1765877505.998788,496
1765877505.998799,496
1765877505.99881,495
1765877505.998821,495
1765877505.998833,496
1765877505.998844,496
1765877505.9988549,495
1765877505.9988658,496
1765877505.998878,496
1765877505.998889,496
1765877505.9989,495
1765877505.998911,495
1765877505.9989219,495
1765877505.998934,495
1765877505.9989471,496
1765877505.998959,495
1765877505.998971,495
1765877505.998982,496
1765877505.9989939,495
1765877505.9990048,495
1765877505.999016,496
1765877505.999027,495
1765877505.999039,495
1765877505.99905,495
1765877505.999061,496
1765877505.999073,495
1765877505.999084,495
1765877505.9990962,496
1765877505.9991071,495
1765877505.999119,496
1765877505.99913,496
1765877505.9991412,496
1765877505.9991522,496
1765877505.999163,496
1765877505.9991739,497
1765877505.999186,497
1765877505.999197,496
1765877505.999208,497
1765877505.999219,496
1765877505.99923,497
1765877505.9992452,497
1765877505.999257,496
1765877505.999269,497
1765877505.9992802,496
1765877505.999291,496
1765877505.999302,496
1765877505.9993129,497
1765877505.9993238,496
1765877505.999336,497
1765877505.999347,496
1765877505.999358,495
1765877505.999369,496
1765877505.999381,495
1765877505.999392,496
1765877505.999403,496
1765877505.999414,496
1765877505.999425,495
1765877505.9994361,496
1765877505.999448,496
1765877505.999459,496
1765877505.99947,496
1765877505.9994822,496
1765877505.9994931,496
1765877505.9995039,495
1765877505.999516,496
1765877505.999527,496
1765877505.999541,496
1765877505.9995542,495
1765877505.9995651,496
1765877505.999577,495
1765877505.999588,495
1765877505.9995992,495
1765877505.999611,495
1765877505.9996219,495
1765877505.9996328,495
1765877505.999645,495
1765877505.999656,495
1765877505.999668,495
1765877505.999679,495
1765877505.99969,495
1765877505.999702,496
1765877505.999713,496
1765877505.9997241,495
1765877505.999736,495
1765877505.999747,495
1765877505.999758,496
1765877505.999769,495
1765877505.9997811,495
1765877505.999792,496
1765877505.9998028,496
1765877505.999815,495
1765877505.999826,495
1765877505.999837,496
1765877505.999851,495
1765877505.999862,495
1765877505.999874,494
1765877505.999885,494
1765877505.999896,495
1765877505.9999082,495
1765877505.9999192,496
1765877505.9999301,496
1765877505.9999418,497
1765877505.9999528,496
1765877505.999964,495
1765877505.999976,495
1765877505.999987,494
1765877505.9999979,494
1765877506.00001,495
1765877506.000021,495
1765877506.0000331,496
1765877506.000045,495
1765877506.000056,495
1765877506.000067,495
1765877506.0000792,495
1765877506.0000901,496
1765877506.000101,494
1765877506.000112,495
1765877506.0001228,495
1765877506.000135,495
1765877506.000149,496
1765877506.00016,497
1765877506.0001721,496
1765877506.000183,495
1765877506.000194,495
1765877506.000206,495
1765877506.0002172,495
1765877506.0002291,495
1765877506.0002408,495
1765877506.000252,495
1765877506.000263,495
1765877506.000274,495
1765877506.0002859,495
1765877506.000297,495
1765877506.000308,495
1765877506.000319,495
1765877506.00033,495
1765877506.000341,495
1765877506.000352,496
1765877506.000364,495
1765877506.000375,495
1765877506.000387,496
1765877506.0003982,495
1765877506.0004091,495
1765877506.000421,495
1765877506.000432,495
1765877506.000447,495
1765877506.000458,494
1765877506.00047,495
1765877506.0004811,495
1765877506.000493,495
1765877506.000504,495
1765877506.000515,495
1765877506.0005262,495
1765877506.000538,495
1765877506.000549,495
1765877506.00056,496
1765877506.0005708,496
1765877506.000583,495
1765877506.000594,495
1765877506.0006049,495
1765877506.000617,495
1765877506.000628,495
1765877506.000639,495
1765877506.0006511,494
1765877506.000662,495
1765877506.000673,494
1765877506.000685,495
1765877506.0006962,495
1765877506.000708,495
1765877506.000719,495
1765877506.000731,495
1765877506.000745,495
1765877506.000757,495
1765877506.000768,495
1765877506.000779,495
1765877506.00079,496
1765877506.000802,496
1765877506.000813,495
1765877506.000824,496
1765877506.0008361,495
1765877506.000847,495
1765877506.000858,496
1765877506.000869,496
1765877506.0008802,495
1765877506.000892,495
1765877506.000903,494
1765877506.0009139,494
1765877506.0009248,495
1765877506.000936,495
1765877506.000948,495
1765877506.000959,495
1765877506.00097,496
1765877506.000981,495
1765877506.000994,495
1765877506.0010052,495
1765877506.0010161,495
1765877506.001028,495
1765877506.001042,496
1765877506.0010529,496
1765877506.0010638,495
1765877506.001076,495
1765877506.001087,495
1765877506.001098,495
1765877506.001109,495
1765877506.001121,495
1765877506.001132,495
1765877506.001143,495
1765877506.001154,495
1765877506.0011652,496
1765877506.001177,495
1765877506.001188,495
1765877506.0012002,495
1765877506.001211,495
1765877506.001222,495
1765877506.0012329,495
1765877506.0012438,495
1765877506.0012548,495
1765877506.001267,495
1765877506.001278,495
1765877506.001289,495
1765877506.001301,495
1765877506.001312,496
1765877506.001323,496
1765877506.001337,497
1765877506.0013492,496
1765877506.00136,495
1765877506.0013719,494
1765877506.0013828,495
1765877506.001395,495
1765877506.001406,494
1765877506.0014179,494
1765877506.001429,495
1765877506.001441,496
1765877506.001452,496
1765877506.001463,496
1765877506.001475,495
1765877506.001486,495
1765877506.001497,495
1765877506.001508,495
1765877506.0015192,495
1765877506.001531,495
1765877506.0015419,495
1765877506.001554,495
1765877506.001565,496
1765877506.001576,495
1765877506.001587,495
1765877506.001598,496
1765877506.00161,496
1765877506.001621,495
1765877506.001635,495
1765877506.001646,496
1765877506.001657,495
1765877506.0016692,496
1765877506.00168,495
1765877506.0016918,496
1765877506.001703,495
1765877506.001714,495
1765877506.001726,496
1765877506.0017369,495
1765877506.001748,495
1765877506.00176,496
1765877506.001771,495
1765877506.0017831,495
1765877506.001794,495
1765877506.001806,495
1765877506.001817,495
1765877506.0018291,496
1765877506.0018408,496
1765877506.0018518,496
1765877506.001864,496
1765877506.001875,496
1765877506.001886,495
1765877506.001898,495
1765877506.001909,496
1765877506.00192,496
1765877506.001935,496
1765877506.0019462,495
1765877506.001958,495
1765877506.0019689,495
1765877506.0019798,495
1765877506.001992,495
1765877506.002003,496
1765877506.002014,495
1765877506.002026,496
1765877506.002037,495
1765877506.002048,495
1765877506.002059,496
1765877506.0020711,495
1765877506.002082,495
1765877506.002093,495
1765877506.002104,495
1765877506.002115,496
1765877506.002126,496
1765877506.0021381,496
1765877506.002149,496
1765877506.00216,495
1765877506.0021708,495
1765877506.002183,496
1765877506.002194,496
1765877506.002205,495
1765877506.002217,496
1765877506.0022311,496
1765877506.002242,495
1765877506.002253,495
1765877506.002264,495
1765877506.0022762,495
1765877506.0022871,496
1765877506.002298,495
1765877506.002309,495
1765877506.002321,495
1765877506.002332,495
1765877506.002343,495
1765877506.002354,494
1765877506.0023649,495
1765877506.002377,495
1765877506.002388,495
1765877506.002399,496
1765877506.00241,497
1765877506.002421,496
1765877506.002433,496
1765877506.002444,496
1765877506.002455,495
1765877506.0024672,495
1765877506.0024781,495
1765877506.00249,495
1765877506.002501,496
1765877506.002513,496
1765877506.002527,496
1765877506.002539,495
1765877506.0025501,494
1765877506.002561,494
1765877506.002573,494
1765877506.002584,495
1765877506.0025952,496
1765877506.002607,497
1765877506.002618,497
1765877506.00263,495
1765877506.002641,496
1765877506.002652,495
1765877506.0026639,495
1765877506.002675,495
1765877506.002686,496
1765877506.002698,496
1765877506.002709,496
1765877506.00272,496
1765877506.002732,496
1765877506.002743,495
1765877506.002754,495
1765877506.002765,495
1765877506.002777,496
1765877506.002788,496
1765877506.002799,496
1765877506.002811,496
1765877506.0028281,495
1765877506.002839,496
1765877506.002851,496
1765877506.0028632,496
1765877506.0028741,495
1765877506.0028858,495
1765877506.0028968,495
1765877506.002908,495
1765877506.00292,495
1765877506.0029309,495
1765877506.0029418,495
1765877506.002954,495
1765877506.002966,496
1765877506.0029771,495
1765877506.002989,495
1765877506.003,495
1765877506.0030122,495
1765877506.0030239,495
1765877506.0030348,495
1765877506.0030458,496
1765877506.003057,496
1765877506.003068,496
1765877506.00308,496
1765877506.0030909,495
1765877506.003102,495
1765877506.003113,495
1765877506.003128,495
1765877506.003139,495
1765877506.0031512,495
1765877506.0031621,495
1765877506.003173,495
1765877506.003184,496
1765877506.0031948,495
1765877506.003207,495
1765877506.003218,495
1765877506.0032299,496
1765877506.003241,495
1765877506.003252,496
1765877506.003264,496
1765877506.003275,497
1765877506.0032861,496
1765877506.003298,495
1765877506.003309,496
1765877506.00332,496
1765877506.0033321,496
1765877506.003343,497
1765877506.003354,496
1765877506.003365,496
1765877506.0033762,496
1765877506.003388,497
1765877506.003399,496
1765877506.003411,495
1765877506.0034251,496
1765877506.003436,496
1765877506.003447,495
1765877506.003458,496
1765877506.0034702,497
1765877506.0034811,496
1765877506.003492,495
1765877506.003503,496
1765877506.0035148,495
1765877506.003526,496
1765877506.003538,495
1765877506.0035489,495
1765877506.003561,495
1765877506.003572,495
1765877506.003583,495
1765877506.003595,496
1765877506.003606,495
1765877506.003618,495
1765877506.003629,496
1765877506.0036411,496
1765877506.003652,496
1765877506.0036638,496
1765877506.003675,496
1765877506.003687,496
1765877506.0036979,496
1765877506.00371,496
1765877506.003725,495
1765877506.003737,495
1765877506.0037482,495
1765877506.0037591,495
1765877506.00377,496
1765877506.0037818,495
1765877506.003793,495
1765877506.003804,495
1765877506.003815,495
1765877506.003826,495
1765877506.0038369,495
1765877506.003849,496
1765877506.00386,496
1765877506.003871,495
1765877506.003882,495
1765877506.003893,495
1765877506.003905,495
1765877506.0039182,495
1765877506.0039291,496
1765877506.00394,495
1765877506.003951,496
1765877506.003962,495
1765877506.003974,495
1765877506.003985,495
1765877506.0039968,495
1765877506.004008,495
1765877506.0040221,495
1765877506.004034,495
1765877506.004044,495
1765877506.004054,495
1765877506.004064,495
1765877506.004074,495
1765877506.0040839,495
1765877506.004094,495
1765877506.004104,495
1765877506.004114,496
1765877506.004124,495
1765877506.004134,495
1765877506.0041442,495
1765877506.0041542,496
1765877506.004164,496
1765877506.004174,495
1765877506.004184,495
1765877506.004194,495
1765877506.004204,494
1765877506.004214,495
1765877506.004224,495
1765877506.004234,495
1765877506.004243,495
1765877506.004253,494
1765877506.004263,495
1765877506.004273,495
1765877506.004286,496
1765877506.0042958,496
1765877506.0043058,496
1765877506.004317,496
1765877506.0043268,496
1765877506.0043368,496
1765877506.0043468,495
1765877506.004357,495
1765877506.004367,495
1765877506.004378,495
1765877506.004388,495
1765877506.004398,495
1765877506.00441,495
1765877506.0044212,495
1765877506.004431,496
1765877506.004441,496
1765877506.004451,496
1765877506.004461,495
1765877506.004471,496
1765877506.004482,495
1765877506.004492,496
1765877506.004502,495
1765877506.004512,495
1765877506.004522,496
1765877506.0045319,495
1765877506.0045419,495
1765877506.004558,496
1765877506.004568,495
1765877506.004578,495
1765877506.0045881,496
1765877506.004598,495
1765877506.004608,495
1765877506.004618,495
1765877506.004628,495
1765877506.004638,495
1765877506.004648,496
1765877506.004658,495
1765877506.004668,496
1765877506.0046778,495
1765877506.0046878,495
1765877506.004697,495
1765877506.004707,495
1765877506.004717,495
1765877506.0047271,495
1765877506.0047371,495
1765877506.004747,496
1765877506.004757,495
1765877506.004767,495
1765877506.004777,496
1765877506.004787,495
1765877506.004797,495
1765877506.004807,496
1765877506.0048199,495
1765877506.00483,496
1765877506.00484,496
1765877506.00485,496
1765877506.00486,495
1765877506.00487,495
1765877506.00488,495
1765877506.0048902,495
1765877506.0049,496
1765877506.00491,495
1765877506.0049212,495
1765877506.004931,495
1765877506.004941,494
1765877506.004951,495
1765877506.004961,495
1765877506.004971,495
1765877506.004981,495
1765877506.004991,495
1765877506.005001,495
1765877506.0050108,496
1765877506.005022,495
1765877506.0050318,495
1765877506.0050418,495
1765877506.0050519,495
1765877506.0050619,495
1765877506.0050719,495
1765877506.005085,495
1765877506.005095,495
1765877506.0051048,495
1765877506.0051148,495
1765877506.005125,496
1765877506.005135,495
1765877506.005145,496
1765877506.005155,496
1765877506.005165,495
1765877506.005175,495
1765877506.0051851,496
1765877506.005195,495
1765877506.005205,495
1765877506.005215,496
1765877506.005225,495
1765877506.005235,496
1765877506.005244,495
1765877506.005255,495
1765877506.005265,494
1765877506.0052748,495
1765877506.005285,495
1765877506.005294,495
1765877506.005304,495
1765877506.005314,495
1765877506.0053241,496
1765877506.005334,496
1765877506.005347,494
1765877506.005357,495
1765877506.005367,496
1765877506.005377,496
1765877506.005387,495
1765877506.005397,495
1765877506.005407,494
1765877506.0054169,494
1765877506.005427,495
1765877506.005437,495
1765877506.005447,496
1765877506.005457,495
1765877506.005467,495
1765877506.0054772,495
1765877506.0054882,496
1765877506.0054982,495
1765877506.0055082,495
1765877506.0055182,495
1765877506.005528,495
1765877506.005538,495
1765877506.005548,495
1765877506.005558,495
1765877506.005568,495
1765877506.005578,496
1765877506.0055869,496
1765877506.0055969,496
1765877506.00561,496
1765877506.00562,497
1765877506.00563,495
1765877506.00564,496
1765877506.0056498,495
1765877506.0056598,495
1765877506.0056698,495
1765877506.00568,496
1765877506.0056891,495
1765877506.0056992,495
1765877506.0057092,495
1765877506.005719,495
1765877506.005729,496
1765877506.005739,495
1765877506.005749,495
1765877506.005759,495
1765877506.005769,495
1765877506.005779,495
1765877506.005789,495
1765877506.0057988,494
1765877506.0058088,496
1765877506.0058188,496
1765877506.005829,496
1765877506.005839,495
1765877506.0058491,494
1765877506.0058591,494
1765877506.005872,495
1765877506.005882,495
1765877506.005892,495
1765877506.005902,496
1765877506.005912,495
1765877506.005922,496
1765877506.005932,496
1765877506.005942,495
1765877506.005952,496
1765877506.005963,496
1765877506.005973,495
1765877506.0059829,495
1765877506.005993,495
1765877506.0060039,496
1765877506.0060139,495
1765877506.006024,496
1765877506.006034,495
1765877506.006044,496
1765877506.006054,495
1765877506.0060642,495
1765877506.0060742,496
1765877506.0060842,495
1765877506.006094,495
1765877506.006104,496
1765877506.006114,496
1765877506.006124,495
1765877506.0061371,496
1765877506.0061471,495
1765877506.0061572,495
1765877506.006167,495
1765877506.006177,496
1765877506.006187,496
1765877506.006198,495
1765877506.006208,496
1765877506.006218,495
1765877506.006228,495
1765877506.006238,496
1765877506.006248,496
1765877506.006258,495
1765877506.0062678,496
1765877506.0062778,496
1765877506.0062878,495
1765877506.006298,495
1765877506.006308,496
1765877506.006318,495
1765877506.006328,495
1765877506.0063381,496
1765877506.0063481,496
1765877506.006358,496
1765877506.006368,496
1765877506.006378,497
1765877506.006388,497
1765877506.006401,496
1765877506.006411,495
1765877506.006421,495
1765877506.0064309,495
1765877506.0064409,494
1765877506.006451,495
1765877506.006461,495
1765877506.006471,495
1765877506.006481,495
1765877506.006491,495
1765877506.0065,495
1765877506.00651,496
1765877506.006521,496
1765877506.006531,496
1765877506.006542,496
1765877506.006552,496
1765877506.006562,496
1765877506.006572,495
1765877506.006582,495
1765877506.006592,495
1765877506.006602,495
1765877506.006612,496
1765877506.006623,495
1765877506.006633,496
1765877506.006643,496
1765877506.0066519,496
1765877506.006665,495
1765877506.006675,495
1765877506.006685,496
1765877506.0066948,496
1765877506.0067048,495
1765877506.0067148,495
1765877506.006725,496
1765877506.006735,495
1765877506.006745,496
1765877506.006755,496
1765877506.006766,496
1765877506.006776,496
1765877506.006786,496
1765877506.0067961,495
1765877506.006807,495
1765877506.006817,495
1765877506.006827,495
1765877506.006837,495
1765877506.006848,496
1765877506.0068579,496
1765877506.006868,496
1765877506.006878,495
1765877506.006888,495
1765877506.006898,495
1765877506.006909,495
1765877506.006919,495
1765877506.0069308,495
1765877506.0069408,496
1765877506.0069509,497
1765877506.0069609,497
1765877506.006971,497
1765877506.0069811,496
1765877506.0069911,496
1765877506.0070012,497
1765877506.0070121,496
1765877506.0070221,497
1765877506.0070322,497
1765877506.007042,497
1765877506.007052,496
1765877506.007062,496
1765877506.007072,497
1765877506.007082,496
1765877506.007092,497
1765877506.007102,497
1765877506.0071108,496
1765877506.0071218,496
1765877506.0071318,496
1765877506.0071418,496
1765877506.007152,496
1765877506.007162,496
1765877506.007172,496
1765877506.0071821,496
1765877506.007194,495
1765877506.007205,495
1765877506.007214,496
1765877506.007224,496
1765877506.007234,496
1765877506.007244,495
1765877506.0072541,496
1765877506.007264,496
1765877506.007274,495
1765877506.0072849,496
1765877506.007295,495
1765877506.007305,496
1765877506.007315,496
1765877506.007325,495
1765877506.007335,495
1765877506.007345,495
1765877506.007355,495
1765877506.0073652,495
1765877506.007375,496
1765877506.007385,495
1765877506.007395,496
1765877506.007405,495
1765877506.007415,495
1765877506.007425,495
1765877506.007435,495
1765877506.007445,495
1765877506.007458,495
1765877506.007468,495
1765877506.007478,495
1765877506.007489,495
1765877506.007498,495
1765877506.007508,496
1765877506.007518,496
1765877506.0075278,495
1765877506.0075378,495
1765877506.0075479,496
1765877506.0075579,496
1765877506.007568,496
1765877506.0075781,496
1765877506.0075881,495
1765877506.0075982,495
1765877506.0076082,495
1765877506.007618,495
1765877506.0076292,495
1765877506.007639,495
1765877506.007649,496
1765877506.007659,496
1765877506.007669,496
1765877506.007679,496
1765877506.007689,495
1765877506.007699,495
1765877506.007709,495
1765877506.007722,495
1765877506.007732,495
1765877506.007743,495
1765877506.007753,495
1765877506.007763,496
1765877506.007773,496
1765877506.007783,495
1765877506.007793,495
1765877506.007802,495
1765877506.007812,495
1765877506.007822,496
1765877506.007832,496
1765877506.007842,496
1765877506.007852,495
1765877506.007862,495
1765877506.007872,495
1765877506.0078819,496
1765877506.007892,495
1765877506.007902,496
1765877506.007912,496
1765877506.007922,496
1765877506.007932,495
1765877506.007942,495
1765877506.007952,495
1765877506.0079622,495
1765877506.007972,495
1765877506.0079842,495
1765877506.007995,495
1765877506.0080051,494
1765877506.0080152,494
1765877506.0080252,495
1765877506.0080352,495
1765877506.008045,496
1765877506.008055,495
1765877506.008065,496
1765877506.008075,495
1765877506.008084,496
1765877506.0080938,495
1765877506.0081038,496
1765877506.0081139,496
1765877506.0081239,495
1765877506.008134,495
1765877506.008144,495
1765877506.0081542,496
1765877506.0081642,496
1765877506.0081742,496
1765877506.008183,496
1765877506.008193,495
1765877506.008203,496
1765877506.008213,495
1765877506.008223,495
1765877506.008233,495
1765877506.0082428,495
1765877506.00826,495
1765877506.00827,495
1765877506.00828,495
1765877506.0082922,496
1765877506.008302,495
1765877506.0083132,495
1765877506.008323,495
1765877506.008332,496
1765877506.008342,495
1765877506.008352,496
1765877506.008362,496
1765877506.008372,495
1765877506.008384,495
1765877506.008394,496
1765877506.008404,495
1765877506.008414,495
1765877506.008424,495
1765877506.0084338,496
1765877506.0084438,495
1765877506.0084538,494
1765877506.0084639,494
1765877506.008474,495
1765877506.0084841,495
1765877506.0084941,495
1765877506.0085042,496
1765877506.0085142,496
1765877506.00853,495
1765877506.0085409,496
1765877506.008551,495
1765877506.008561,495
1765877506.008571,496
1765877506.0085871,496
1765877506.008597,496
1765877506.008607,496
1765877506.008617,496
1765877506.008627,495
1765877506.008637,495
1765877506.008647,496
1765877506.008657,495
1765877506.008667,495
1765877506.008677,495
1765877506.008687,495
1765877506.008697,495
1765877506.008707,495
1765877506.008717,495
1765877506.008727,495
1765877506.008737,495
1765877506.008747,496
1765877506.0087569,495
1765877506.008767,495
1765877506.008778,495
1765877506.008787,495
1765877506.008799,495
1765877506.00881,495
1765877506.008821,495
1765877506.008831,495
1765877506.008841,496
1765877506.008851,496
1765877506.0088608,495
1765877506.0088708,495
1765877506.0088809,495
1765877506.0088909,495
1765877506.0089011,495
1765877506.0089111,495
1765877506.00893,495
1765877506.008939,495
1765877506.008949,495
1765877506.008959,495
1765877506.008969,495
1765877506.0089788,495
1765877506.0089889,495
1765877506.0089989,495
1765877506.009009,495
1765877506.009019,495
1765877506.0090282,496
1765877506.009038,495
1765877506.009048,495
1765877506.009058,495
1765877506.009068,495
1765877506.009085,495
1765877506.009095,495
1765877506.009105,495
1765877506.009115,496
1765877506.0091252,495
1765877506.0091362,496
1765877506.0091462,495
1765877506.009156,495
1765877506.009166,495
1765877506.009176,494
1765877506.009186,494
1765877506.009195,496
1765877506.009205,495
1765877506.0092149,495
1765877506.009225,495
1765877506.009235,495
1765877506.009245,495
1765877506.00926,495
1765877506.00927,495
1765877506.00928,495
1765877506.00929,495
1765877506.0093,495
1765877506.00931,495
1765877506.009321,495
1765877506.009331,496
1765877506.009341,496
1765877506.009353,496
1765877506.009363,496
1765877506.009373,495
1765877506.009383,495
1765877506.009393,495
1765877506.009403,495
1765877506.009412,495
1765877506.009422,495
1765877506.009432,495
1765877506.009442,496
1765877506.009452,494
1765877506.009462,494
1765877506.009472,494
1765877506.009482,495
1765877506.009492,496
1765877506.009502,495
1765877506.009512,495
1765877506.009522,495
1765877506.009532,495
1765877506.009542,495
1765877506.0095518,495
1765877506.009562,495
1765877506.009572,495
1765877506.009582,496
1765877506.009592,496
1765877506.009602,495
1765877506.009619,495
1765877506.009634,495
1765877506.009644,495
1765877506.009654,495
1765877506.009664,495
1765877506.009674,495
1765877506.009684,495
1765877506.0096939,495
1765877506.0097039,495
1765877506.009717,495
1765877506.009727,495
1765877506.009737,494
1765877506.009747,494
1765877506.0097558,494
1765877506.0097659,494
1765877506.009776,494
1765877506.0097861,495
1765877506.0097961,495
1765877506.0098062,494
1765877506.0098162,495
1765877506.009826,495
1765877506.009836,495
1765877506.009845,495
1765877506.009855,495
1765877506.009865,495
1765877506.009875,495
1765877506.0098848,495
1765877506.009897,495
1765877506.009907,495
1765877506.009917,495
1765877506.0099268,495
1765877506.0099368,495
1765877506.0099468,495
1765877506.0099561,495
1765877506.009965,494
1765877506.009977,495
1765877506.0099862,495
1765877506.009995,495
1765877506.010004,495
1765877506.0100129,496
1765877506.010022,495
1765877506.010036,495
1765877506.0100448,495
1765877506.0100539,495
1765877506.0100632,495
1765877506.010072,495
1765877506.010081,494
1765877506.0100899,494
1765877506.010099,495
1765877506.010108,495
1765877506.0101178,496
1765877506.010127,496
1765877506.0101361,495
1765877506.010147,494
1765877506.010157,495
1765877506.010166,495
1765877506.010175,494
1765877506.010184,495
1765877506.0101929,495
1765877506.010206,495
1765877506.0102148,495
1765877506.010224,495
1765877506.0102332,495
1765877506.010242,495
1765877506.010251,495
1765877506.0102599,495
1765877506.010269,495
1765877506.010278,495
1765877506.010287,495
1765877506.010296,495
1765877506.010305,495
1765877506.010314,495
1765877506.010324,494
1765877506.0103328,494
1765877506.010342,495
1765877506.0103512,496
1765877506.01036,496
1765877506.010369,496
1765877506.010378,495
1765877506.010389,495
1765877506.0103989,495
1765877506.010408,494
1765877506.010417,494
1765877506.010426,495
1765877506.010435,495
1765877506.010444,495
1765877506.010453,496
1765877506.010462,496
1765877506.0104709,496
1765877506.0104802,496
1765877506.010489,496
1765877506.010498,496
1765877506.010506,496
1765877506.010515,495
1765877506.0105238,496
1765877506.010533,496
1765877506.0105422,497
1765877506.010551,496
1765877506.01056,496
1765877506.0105689,496
1765877506.010578,495
1765877506.010587,496
1765877506.010595,496
1765877506.0106041,495
1765877506.010613,495
1765877506.010624,495
1765877506.010634,495
1765877506.010643,495
1765877506.0106518,494
1765877506.0106611,495
1765877506.010688,496
1765877506.010698,496
1765877506.010707,496
1765877506.0107148,496
1765877506.010724,495
1765877506.0107388,495
1765877506.010748,495
1765877506.0107572,495
1765877506.010766,495
1765877506.010775,495
1765877506.010784,496
1765877506.010793,495
1765877506.010807,495
1765877506.010815,494
1765877506.010824,495
1765877506.0108328,494
1765877506.010842,495
1765877506.010852,495
1765877506.0108612,495
1765877506.01087,495
1765877506.010879,495
1765877506.0108879,495
1765877506.0109,495
1765877506.0109088,495
1765877506.0109189,495
1765877506.0109282,495
1765877506.010937,495
1765877506.010946,495
1765877506.010955,495
1765877506.010964,495
1765877506.010973,495
1765877506.0109818,496
1765877506.010991,496
1765877506.0110002,494
1765877506.011009,494
1765877506.011018,495
1765877506.011026,495
1765877506.011035,495
1765877506.011044,494
1765877506.011053,494
1765877506.011067,494
1765877506.0110762,494
1765877506.011085,495
1765877506.011094,495
1765877506.011103,495
1765877506.011112,495
1765877506.0111208,495
1765877506.01113,495
1765877506.0111418,495
1765877506.0111518,495
1765877506.011161,494
1765877506.0111701,495
1765877506.011179,495
1765877506.011188,495
1765877506.0111969,495
1765877506.0112052,495
1765877506.011214,495
1765877506.011223,494
1765877506.011232,494
1765877506.011241,494
1765877506.01125,494
1765877506.0112588,494
1765877506.0112681,495
1765877506.011277,494
1765877506.011286,494
1765877506.011294,494
1765877506.011303,494
1765877506.0113122,494
1765877506.011321,494
1765877506.0113301,495
1765877506.011339,495
1765877506.011348,494
1765877506.0113568,494
1765877506.011366,494
1765877506.0113778,494
1765877506.0113878,495
1765877506.0113971,495
1765877506.0114062,495
1765877506.011415,495
1765877506.011424,495
1765877506.011433,495
1765877506.011442,494
1765877506.0114508,495
1765877506.011459,495
1765877506.011468,495
1765877506.011477,495
1765877506.011486,495
1765877506.0114949,495
1765877506.0115042,495
1765877506.011513,495
1765877506.011522,494
1765877506.011531,495
1765877506.01154,494
1765877506.011549,494
1765877506.0115578,495
1765877506.011567,495
1765877506.0115762,495
1765877506.011585,494
1765877506.011596,494
1765877506.011605,494
1765877506.011615,494
1765877506.011625,495
1765877506.0116339,495
1765877506.011643,495
1765877506.011652,495
1765877506.011661,495
1765877506.01167,495
1765877506.011679,495
1765877506.011688,496
1765877506.0116968,495
1765877506.011706,495
1765877506.0117152,495
1765877506.011724,495
1765877506.011733,496
1765877506.0117419,495
1765877506.011751,495
1765877506.0117602,494
1765877506.011769,495
1765877506.011778,495
1765877506.011787,495
1765877506.011796,495
1765877506.0118048,495
1765877506.0118139,495
1765877506.0118241,495
1765877506.0118332,495
1765877506.011841,495
1765877506.011851,495
1765877506.011863,495
1765877506.011873,495
1765877506.011882,495
1765877506.011891,495
1765877506.0119,496
1765877506.011909,497
1765877506.011918,496
1765877506.0119271,496
1765877506.011936,495
1765877506.011945,494
1765877506.0119538,495
1765877506.011963,495
1765877506.0119722,495
1765877506.011981,495
1765877506.01199,494
1765877506.011999,494
1765877506.012008,495
1765877506.012017,495
1765877506.012026,495
1765877506.0120351,495
1765877506.012044,494
1765877506.012053,495
1765877506.0120618,495
1765877506.01207,494
1765877506.012079,495
1765877506.012088,495
1765877506.012099,495
1765877506.012109,494
1765877506.012118,495
1765877506.012127,495
1765877506.012136,495
1765877506.012144,495
1765877506.0121531,496
1765877506.012162,495
1765877506.012171,495
1765877506.0121799,495
1765877506.012189,495
1765877506.012197,495
1765877506.012207,495
1765877506.012216,495
1765877506.012225,496
1765877506.012233,495
1765877506.0122418,495
1765877506.012256,495
1765877506.012265,495
1765877506.0122728,495
1765877506.0122821,495
1765877506.012291,496
1765877506.0123,495
1765877506.012314,495
1765877506.012322,495
1765877506.012331,495
1765877506.012342,495
1765877506.012353,495
1765877506.012362,495
1765877506.0123708,495
1765877506.01238,495
1765877506.0123892,495
1765877506.012398,495
1765877506.012407,495
1765877506.012416,495
1765877506.012425,495
1765877506.012434,495
1765877506.0124428,495
1765877506.0124521,495
1765877506.012461,495
1765877506.01247,495
1765877506.012479,495
1765877506.012488,495
1765877506.012497,495
1765877506.012506,495
1765877506.012515,495
1765877506.0125241,496
1765877506.012533,495
1765877506.012542,496
1765877506.0125499,495
1765877506.0125592,495
1765877506.012568,495
1765877506.012577,495
1765877506.012589,494
1765877506.012598,495
1765877506.0126069,495
1765877506.0126238,494
1765877506.012633,494
1765877506.0126421,495
1765877506.012651,495
1765877506.01266,495
1765877506.0126688,496
1765877506.012678,495
1765877506.012686,495
1765877506.012695,496
1765877506.012704,495
1765877506.012713,494
1765877506.012722,495
1765877506.0127308,495
1765877506.0127392,495
1765877506.012748,495
1765877506.012762,495
1765877506.0127711,495
1765877506.012779,495
1765877506.012788,495
1765877506.0127969,495
1765877506.012806,495
1765877506.012816,495
1765877506.012825,495
1765877506.012835,495
1765877506.012845,495
1765877506.012854,495
1765877506.012863,495
1765877506.012872,495
1765877506.0128808,495
1765877506.01289,495
1765877506.0128992,496
1765877506.012908,496
1765877506.012917,496
1765877506.0129259,495
1765877506.012934,494
1765877506.012943,493
1765877506.012952,493
1765877506.012961,494
1765877506.0129752,495
1765877506.012984,495
1765877506.012993,496
1765877506.013002,496
1765877506.01301,495
1765877506.0130188,495
1765877506.0130281,495
1765877506.013037,496
1765877506.013046,495
1765877506.01306,495
1765877506.0130692,495
1765877506.013078,495
1765877506.0130901,495
1765877506.013099,496
1765877506.013108,495
1765877506.013118,495
1765877506.013126,495
1765877506.0131352,495
1765877506.013144,495
1765877506.013153,496
1765877506.013162,496
1765877506.013171,495
1765877506.01318,495
1765877506.013189,495
1765877506.0131981,495
1765877506.013206,495
1765877506.013215,495
1765877506.013224,495
1765877506.013233,495
1765877506.013242,495
1765877506.013251,495
1765877506.0132601,495
1765877506.013269,495
1765877506.0132768,495
1765877506.0132859,495
1765877506.0132952,495
1765877506.013304,495
1765877506.013313,496
1765877506.013324,496
1765877506.013334,497
1765877506.0133429,496
1765877506.013351,496
1765877506.01336,495
1765877506.013369,495
1765877506.0133781,495
1765877506.013387,495
1765877506.013396,495
1765877506.0134048,495
1765877506.013414,495
1765877506.0134232,495
1765877506.013432,495
1765877506.013441,495
1765877506.013449,495
1765877506.013458,495
1765877506.0134668,495
1765877506.013477,495
1765877506.013485,495
1765877506.013494,495
1765877506.013503,495
1765877506.0135128,496
1765877506.013522,495
1765877506.013531,495
1765877506.01354,495
1765877506.013549,496
1765877506.01356,495
1765877506.01357,495
1765877506.013579,495
1765877506.013588,495
1765877506.013597,495
1765877506.0136058,495
1765877506.0136151,495
1765877506.013624,495
1765877506.013633,495
1765877506.013642,495
1765877506.013651,495
1765877506.01366,496
1765877506.013668,495
1765877506.0136771,496
1765877506.013692,495
1765877506.0137012,495
1765877506.01371,495
1765877506.013719,495
1765877506.013727,496
1765877506.013736,496
1765877506.0137448,497
1765877506.0137541,497
1765877506.0137632,497
1765877506.013772,497
1765877506.0137799,497
1765877506.013789,496
1765877506.013798,497
1765877506.01381,497
1765877506.013819,496
1765877506.013828,496
1765877506.013837,496
1765877506.013846,496
1765877506.013855,496
1765877506.013864,497
1765877506.0138729,496
1765877506.0138822,496
1765877506.013891,496
1765877506.0139,495
1765877506.013908,495
1765877506.013917,495
1765877506.0139258,495
1765877506.013935,495
1765877506.0139441,495
1765877506.013958,496
1765877506.013968,495
1765877506.013977,494
1765877506.013986,494
1765877506.013995,495
1765877506.014004,495
1765877506.0140119,495
1765877506.0140212,495
1765877506.01403,495
1765877506.014039,496
1765877506.01405,495
1765877506.01406,496
1765877506.014069,495
1765877506.014078,495
1765877506.0140858,495
1765877506.014095,495
1765877506.0141041,495
1765877506.014113,495
1765877506.014122,495
1765877506.0141299,495
1765877506.014139,495
1765877506.014148,495
1765877506.014157,495
1765877506.014166,495
1765877506.014175,495
1765877506.014184,495
1765877506.0141928,495
1765877506.014202,495
1765877506.0142112,495
1765877506.014219,495
1765877506.0142279,495
1765877506.014237,496
1765877506.014246,495
1765877506.014255,495
1765877506.014264,496
1765877506.014272,495
1765877506.014283,495
1765877506.014293,494
1765877506.014302,495
1765877506.0143108,495
1765877506.0143201,495
1765877506.0143292,495
1765877506.014338,494
1765877506.014347,495
1765877506.014357,495
1765877506.014366,495
1765877506.014375,495
1765877506.014384,495
1765877506.014393,496
1765877506.0144022,495
1765877506.014413,496
1765877506.014422,495
1765877506.014431,495
1765877506.0144398,495
1765877506.014449,495
1765877506.0144582,495
1765877506.014467,495
1765877506.014476,495
1765877506.0144901,495
1765877506.014498,495
1765877506.014507,495
1765877506.0145159,495
1765877506.014525,495
1765877506.0145411,495
1765877506.01455,495
1765877506.014559,495
1765877506.0145679,495
1765877506.014583,496
1765877506.014592,495
1765877506.0146,495
1765877506.0146098,495
1765877506.0146182,496
1765877506.014627,495
1765877506.014636,495
1765877506.014645,496
1765877506.014654,495
1765877506.014663,495
1765877506.014673,495
1765877506.014682,495
1765877506.014691,495
1765877506.0147,495
1765877506.014709,495
1765877506.014718,495
1765877506.0147269,495
1765877506.0147352,495
1765877506.014744,495
1765877506.014753,494
1765877506.014762,495
1765877506.014771,495
1765877506.014782,496
1765877506.014792,495
1765877506.0148008,495
1765877506.01481,496
1765877506.0148191,495
1765877506.014828,495
1765877506.014836,495
1765877506.014845,496
1765877506.014854,495
1765877506.014863,495
1765877506.014872,496
1765877506.0148811,495
1765877506.01489,495
1765877506.014899,495
1765877506.0149078,495
1765877506.0149171,496
1765877506.0149262,496
1765877506.014935,495
1765877506.014944,495
1765877506.014953,495
1765877506.014962,495
1765877506.0149708,495
1765877506.01498,496
1765877506.0149891,495
1765877506.014998,495
1765877506.015007,495
1765877506.015015,495
1765877506.015028,495
1765877506.0150368,495
1765877506.015046,496
1765877506.015054,496
1765877506.015063,496
1765877506.015072,495
1765877506.015081,494
1765877506.01509,493
1765877506.0150988,494
1765877506.015108,495
1765877506.015116,495
1765877506.015125,496
1765877506.0151339,496
1765877506.015143,496
1765877506.0151522,495
1765877506.015161,495
1765877506.01517,496
1765877506.015178,495
1765877506.015187,496
1765877506.0151958,495
1765877506.0152051,496
1765877506.015214,495
1765877506.015223,495
1765877506.015232,495
1765877506.015241,495
1765877506.01525,496
1765877506.015261,496
1765877506.015271,495
1765877506.015279,495
1765877506.015288,495
1765877506.015297,495
1765877506.015306,496
1765877506.015315,496
1765877506.0153239,496
1765877506.0153332,495
1765877506.015342,496
1765877506.015351,495
1765877506.01536,496
1765877506.015369,495
1765877506.015382,496
1765877506.0153909,495
1765877506.0154,495
1765877506.015408,496
1765877506.015417,495
1765877506.0154262,495
1765877506.015435,495
1765877506.015445,495
1765877506.015454,496
1765877506.0154629,495
1765877506.0154722,496
1765877506.015481,496
1765877506.01549,495
1765877506.015501,495
1765877506.015511,495
1765877506.01552,496
1765877506.015529,496
1765877506.015538,496
1765877506.0155468,496
1765877506.015556,496
1765877506.0155652,496
1765877506.015574,495
1765877506.015583,495
1765877506.0155919,495
1765877506.015601,496
1765877506.0156102,496
1765877506.015619,495
1765877506.015627,496
1765877506.015636,495
1765877506.015645,496
1765877506.0156538,495
1765877506.0156631,496
1765877506.015672,495
1765877506.015685,496
1765877506.0156941,495
1765877506.015703,496
1765877506.015712,495
1765877506.0157208,495
1765877506.0157309,496
1765877506.01574,495
1765877506.015751,496
1765877506.015761,496
1765877506.0157702,496
1765877506.015779,496
1765877506.015788,495
1765877506.015797,496
1765877506.015806,496
1765877506.0158138,496
1765877506.0158231,496
1765877506.015832,496
1765877506.015841,495
1765877506.01585,495
1765877506.015859,496
1765877506.015867,496
1765877506.015876,496
1765877506.015884,496
1765877506.015892,496
1765877506.0159,496
1765877506.015908,495
1765877506.015916,496
1765877506.015924,495
1765877506.0159318,496
1765877506.0159402,496
1765877506.015948,496
1765877506.0159569,496
1765877506.015965,496
1765877506.015975,496
1765877506.015983,496
1765877506.0159922,496
1765877506.016,495
1765877506.016008,496
1765877506.0160158,496
1765877506.016024,495
1765877506.016032,495
1765877506.0160398,495
1765877506.0160482,496
1765877506.016056,496
1765877506.016064,496
1765877506.016072,496
1765877506.0160809,496
1765877506.0160892,496
1765877506.016097,496
1765877506.016106,496
1765877506.016114,496
1765877506.016122,496
1765877506.01613,496
1765877506.016139,496
1765877506.016147,496
1765877506.0161548,495
1765877506.016163,495
1765877506.016172,496
1765877506.01618,496
1765877506.01619,496
1765877506.0161989,496
1765877506.016208,495
1765877506.016216,495
1765877506.016224,495
1765877506.016232,495
1765877506.0162401,496
1765877506.0162518,495
1765877506.016261,495
1765877506.016269,496
1765877506.016277,496
1765877506.016285,495
1765877506.016293,495
1765877506.016302,495
1765877506.01631,496
1765877506.0163178,495
1765877506.016326,496
1765877506.016335,496
1765877506.016343,496
1765877506.016351,496
1765877506.0163589,496
1765877506.0163672,496
1765877506.016376,496
1765877506.016384,496
1765877506.016392,496
1765877506.0163999,496
1765877506.016408,496
1765877506.016421,496
1765877506.016429,496
1765877506.016437,495
1765877506.0164459,496
1765877506.016454,496
1765877506.016462,496
1765877506.01647,496
1765877506.016478,496
1765877506.016486,495
1765877506.016494,496
1765877506.016502,496
1765877506.01651,495
1765877506.0165188,495
1765877506.0165272,495
1765877506.016535,495
1765877506.016543,496
1765877506.016551,495
1765877506.0165591,496
1765877506.016567,496
1765877506.0165749,496
1765877506.016583,495
1765877506.016591,496
1765877506.016599,496
1765877506.016607,496
1765877506.016615,496
1765877506.0166242,496
1765877506.016633,496
1765877506.0166469,496
1765877506.016656,496
1765877506.016664,496
1765877506.016672,496
1765877506.01668,496
1765877506.016688,496
1765877506.016696,496
1765877506.016704,496
1765877506.016712,496
1765877506.016721,495
1765877506.016729,496
1765877506.016737,495
1765877506.0167449,496
1765877506.016753,495
1765877506.016761,495
1765877506.016769,496
1765877506.016777,495
1765877506.016785,496
1765877506.016793,496
1765877506.016801,495
1765877506.016809,496
1765877506.0168169,496
1765877506.0168252,496
1765877506.016833,496
1765877506.016841,496
1765877506.016856,496
1765877506.016865,497
1765877506.016873,498
1765877506.016881,497
1765877506.016889,497
1765877506.016897,497
1765877506.016905,496
1765877506.016913,497
1765877506.016921,497
1765877506.016929,497
1765877506.016937,497
1765877506.016945,496
1765877506.016953,496
1765877506.0169642,496
1765877506.016972,496
1765877506.01698,496
1765877506.016993,497
1765877506.0170019,497
1765877506.01701,496
1765877506.017018,497
1765877506.01703,495
1765877506.017039,496
1765877506.017047,496
1765877506.017055,496
1765877506.017063,496
1765877506.017071,496
1765877506.01708,496
1765877506.01709,496
1765877506.017099,496
1765877506.017107,496
1765877506.0171149,496
1765877506.0171242,496
1765877506.017132,496
1765877506.01714,496
1765877506.017148,496
1765877506.017157,495
1765877506.017165,495
1765877506.017173,495
1765877506.017181,496
1765877506.017189,496
1765877506.0171971,496
1765877506.017205,495
1765877506.0172129,496
1765877506.0172212,496
1765877506.017229,495
1765877506.017238,495
1765877506.017246,495
1765877506.0172539,495
1765877506.017262,496
1765877506.01727,496
1765877506.017278,496
1765877506.0172858,495
1765877506.0172951,496
1765877506.0173051,496
1765877506.017314,496
1765877506.017322,495
1765877506.017331,496
1765877506.017339,495
1765877506.017347,495
1765877506.017355,496
1765877506.017364,496
1765877506.017372,495
1765877506.01738,496
1765877506.017388,496
1765877506.017397,495
1765877506.017405,496
1765877506.0174131,496
1765877506.017421,495
1765877506.0174289,495
1765877506.017438,496
1765877506.0174458,496
1765877506.0174541,496
1765877506.0174668,496
1765877506.0174751,496
1765877506.017484,495
1765877506.017492,496
1765877506.0175,496
1765877506.017508,495
1765877506.0175161,496
1765877506.017524,496
1765877506.017536,496
1765877506.017544,496
1765877506.017552,495
1765877506.0175612,496
1765877506.017569,496
1765877506.017577,496
1765877506.0175848,496
1765877506.0175931,495
1765877506.017601,496
1765877506.017609,496
1765877506.017617,496
1765877506.017625,496
1765877506.017633,496
1765877506.017641,496
1765877506.017649,496
1765877506.017658,495
1765877506.017666,495
1765877506.017674,495
1765877506.0176818,495
1765877506.0176902,496
1765877506.017698,495
1765877506.017706,495
1765877506.017715,495
1765877506.0177228,495
1765877506.0177321,495
1765877506.01774,496
1765877506.01775,496
1765877506.017759,495
1765877506.017768,496
1765877506.017776,496
1765877506.017784,495
1765877506.017793,495
1765877506.017801,496
1765877506.017809,496
1765877506.017817,496
1765877506.017826,496
1765877506.017834,495
1765877506.0178418,496
1765877506.0178502,496
1765877506.017859,496
1765877506.017867,495
1765877506.017875,496
1765877506.0178828,496
1765877506.0178921,496
1765877506.0179,497
1765877506.0179079,497
1765877506.017916,497
1765877506.017924,495
1765877506.017932,495
1765877506.01794,495
1765877506.017948,495
1765877506.017956,495
1765877506.017965,496
1765877506.017977,495
1765877506.017985,495
1765877506.017993,496
1765877506.018002,496
1765877506.0180101,496
1765877506.018018,495
1765877506.0180259,496
1765877506.018035,494
1765877506.0180428,495
1765877506.018083,495
1765877506.018091,495
1765877506.0180988,496
1765877506.018107,496
1765877506.018116,496
1765877506.018124,496
1765877506.018132,496
1765877506.0181398,496
1765877506.0181482,496
1765877506.018156,496
1765877506.018164,496
1765877506.018173,496
1765877506.018181,495
1765877506.018189,496
1765877506.018198,495
1765877506.018206,496
1765877506.018214,496
1765877506.018225,495
1765877506.018235,496
1765877506.018243,495
1765877506.018251,495
1765877506.01826,496
1765877506.0182679,495
1765877506.0182762,496
1765877506.018284,495
1765877506.018292,495
1765877506.018302,496
1765877506.0183098,496
1765877506.0183182,495
1765877506.018326,496
1765877506.018334,496
1765877506.0183418,496
1765877506.0183501,496
1765877506.018358,496
1765877506.018367,496
1765877506.018375,496
1765877506.018383,496
1765877506.0183911,496
1765877506.0184,496
1765877506.0184078,496
1765877506.0184162,495
1765877506.018425,496
1765877506.018433,496
1765877506.018444,496
1765877506.018453,495
1765877506.018461,495
1765877506.018469,496
1765877506.018477,496
1765877506.018486,496
1765877506.018494,496
1765877506.018502,495
1765877506.01851,495
1765877506.018518,496
1765877506.0185258,495
1765877506.0185359,496
1765877506.0185442,496
1765877506.018553,496
1765877506.0185611,495
1765877506.018569,496
1765877506.0185769,496
1765877506.0185852,496
1765877506.018593,495
1765877506.018601,496
1765877506.01861,496
1765877506.0186172,495
1765877506.018626,496
1765877506.018634,496
1765877506.018642,495
1765877506.01865,496
1765877506.0186582,496
1765877506.0186691,496
1765877506.018677,496
1765877506.018686,496
1765877506.018694,496
1765877506.018702,496
1765877506.01871,496
1765877506.018718,496
1765877506.0187259,496
1765877506.0187352,496
1765877506.018743,496
1765877506.018751,495
1765877506.018759,496
1765877506.018767,495
1765877506.0187762,496
1765877506.018784,496
1765877506.018792,495
1765877506.018801,496
1765877506.018809,496
1765877506.018817,496
1765877506.018826,496
1765877506.0188339,496
1765877506.0188422,496
1765877506.01885,496
1765877506.018858,496
1765877506.018867,496
1765877506.018875,496
1765877506.0188851,496
1765877506.0188951,496
1765877506.018903,496
1765877506.018911,496
1765877506.018919,496
1765877506.018927,496
1765877506.018935,496
1765877506.018943,495
1765877506.018956,496
1765877506.018964,496
1765877506.0189729,496
1765877506.0189812,496
1765877506.018989,496
1765877506.018997,496
1765877506.0190048,496
1765877506.0190132,496
1765877506.019021,495
1765877506.01903,496
1765877506.019038,496
1765877506.0190458,495
1765877506.0190542,495
1765877506.019062,496
1765877506.0190709,495
1765877506.019079,496
1765877506.019087,496
1765877506.019095,496
1765877506.019104,495
1765877506.019114,495
1765877506.0191228,495
1765877506.019131,496
1765877506.019139,496
1765877506.019148,495
1765877506.019156,496
1765877506.0191638,496
1765877506.0191731,496
1765877506.019181,496
1765877506.019189,496
1765877506.019197,496
1765877506.0192058,495
1765877506.0192142,495
1765877506.019222,496
1765877506.01923,495
1765877506.019238,496
1765877506.019246,496
1765877506.019255,495
1765877506.019263,495
1765877506.0192719,496
1765877506.01928,496
1765877506.019288,495
1765877506.019296,496
1765877506.019304,496
1765877506.0193121,496
1765877506.01932,496
1765877506.019331,496
1765877506.01934,495
1765877506.019348,496
1765877506.019356,496
1765877506.019365,495
1765877506.019373,495
1765877506.019381,495
1765877506.019389,496
1765877506.019397,495
1765877506.0194051,496
1765877506.019414,495
1765877506.019422,495
1765877506.01943,495
1765877506.019438,495
1765877506.019447,495
1765877506.019455,496
1765877506.0194628,495
1765877506.0194712,496
1765877506.01948,495
1765877506.019488,495
1765877506.019496,495
1765877506.019504,495
1765877506.0195122,495
1765877506.01952,495
1765877506.0195289,496
1765877506.019537,496
1765877506.019545,495
1765877506.019556,496
1765877506.019564,495
1765877506.019573,495
1765877506.0195808,496
1765877506.0195892,495
1765877506.019597,495
1765877506.019606,495
1765877506.019614,495
1765877506.0196218,496
1765877506.0196302,495
1765877506.019638,495
1765877506.019646,496
1765877506.0196538,495
1765877506.0196621,495
1765877506.019671,496
1765877506.019679,496
1765877506.019687,495
1765877506.019695,495
1765877506.0197031,495
1765877506.019711,496
1765877506.019719,495
1765877506.019728,495
1765877506.019736,495
1765877506.019744,496
1765877506.019752,495
1765877506.0197601,495
1765877506.0197701,495
1765877506.019779,495
1765877506.019788,495
1765877506.019796,495
1765877506.019804,495
1765877506.019813,495
1765877506.019824,495
1765877506.0198321,495
1765877506.01984,495
1765877506.0198479,495
1765877506.019857,495
1765877506.019865,496
1765877506.0198731,496
1765877506.019881,495
1765877506.0198889,496
1765877506.019897,496
1765877506.019905,497
1765877506.019913,497
1765877506.0199208,496
1765877506.0199292,497
1765877506.019937,496
1765877506.019946,497
1765877506.019954,496
1765877506.019962,497
1765877506.01997,496
1765877506.019978,497
1765877506.0199869,496
1765877506.019997,496
1765877506.020006,497
1765877506.020014,495
1765877506.020022,495
1765877506.02003,496
1765877506.0200388,497
1765877506.0200472,497
1765877506.020055,496
1765877506.020063,496
1765877506.020071,496
1765877506.0200791,496
1765877506.020088,495
1765877506.020096,495
1765877506.020104,495
1765877506.0201118,495
1765877506.020121,495
1765877506.020129,495
1765877506.020137,495
1765877506.020145,496
1765877506.020153,495
1765877506.020161,496
1765877506.02017,495
1765877506.0201778,495
1765877506.020187,495
1765877506.020195,495
1765877506.020203,495
1765877506.020213,495
1765877506.020221,495
1765877506.0202298,496
1765877506.020258,495
1765877506.020268,494
1765877506.020277,494
1765877506.020285,495
1765877506.020294,495
1765877506.020302,495
1765877506.020311,496
1765877506.020319,495
1765877506.0203269,496
1765877506.0203362,495
1765877506.020344,496
1765877506.020352,495
1765877506.020361,495
1765877506.0203688,496
1765877506.0203772,496
1765877506.020386,496
1765877506.020394,496
1765877506.020402,495
1765877506.02041,495
1765877506.0204191,495
1765877506.020427,496
1765877506.0204349,495
1765877506.020443,495
1765877506.020452,495
1765877506.020461,495
1765877506.020469,495
1765877506.020482,495
1765877506.0204911,495
1765877506.020499,495
1765877506.0205069,495
1765877506.020515,495
1765877506.020524,495
1765877506.020532,495
1765877506.02054,495
1765877506.020549,494
1765877506.0205572,495
1765877506.020566,495
1765877506.0205739,496
1765877506.020585,495
1765877506.020593,495
1765877506.0206022,495
1765877506.02061,495
1765877506.020618,495
1765877506.0206258,495
1765877506.020635,495
1765877506.020643,495
1765877506.020651,495
1765877506.02066,495
1765877506.0206678,495
1765877506.020677,495
1765877506.020685,495
1765877506.020693,495
1765877506.020705,495
1765877506.020714,495
1765877506.020722,495
1765877506.02073,495
1765877506.020739,495
1765877506.020747,495
1765877506.020755,495
1765877506.0207639,495
1765877506.020772,496
1765877506.02078,495
1765877506.020788,495
1765877506.0207958,496
1765877506.0208042,495
1765877506.020813,495
1765877506.020821,495
1765877506.020829,495
1765877506.0208378,495
1765877506.0208461,495
1765877506.020854,495
1765877506.020863,495
1765877506.020871,496
1765877506.020879,495
1765877506.0208871,495
1765877506.020895,495
1765877506.0209029,495
1765877506.0209122,495
1765877506.02092,496
1765877506.020931,495
1765877506.020939,495
1765877506.020948,495
1765877506.0209558,495
1765877506.0209641,495
1765877506.020972,495
1765877506.020981,495
1765877506.020989,495
1765877506.020997,495
1765877506.0210052,495
1765877506.021013,495
1765877506.0210218,495
1765877506.02103,495
1765877506.021038,495
1765877506.021047,495
1765877506.021056,495
1765877506.021064,495
1765877506.021072,495
1765877506.02108,495
1765877506.021088,495
1765877506.021097,495
1765877506.0211048,495
1765877506.0211132,495
1765877506.021121,495
1765877506.02113,495
1765877506.021138,495
1765877506.021148,495
1765877506.021157,495
1765877506.021166,495
1765877506.021174,495
1765877506.021183,495
1765877506.021191,495
1765877506.021199,495
1765877506.021208,495
1765877506.021216,495
1765877506.021224,495
1765877506.0212328,495
1765877506.0212412,495
1765877506.021249,495
1765877506.0212579,495
1765877506.021266,495
1765877506.021274,495
1765877506.021282,495
1765877506.021291,495
1765877506.021299,495
1765877506.021307,495
1765877506.021316,495
1765877506.021324,495
1765877506.021332,495
1765877506.0213408,495
1765877506.0213492,495
1765877506.021358,495
1765877506.021368,495
1765877506.021377,495
1765877506.021385,495
1765877506.021394,495
1765877506.0214021,495
1765877506.02141,495
1765877506.021418,495
1765877506.021426,495
1765877506.0214348,495
1765877506.0214431,495
1765877506.021451,496
1765877506.02146,496
1765877506.021468,495
1765877506.021476,495
1765877506.021485,495
1765877506.021493,495
1765877506.0215008,495
1765877506.0215092,495
1765877506.021517,496
1765877506.021526,495
1765877506.021534,496
1765877506.0215418,495
1765877506.0215502,495
1765877506.021559,495
1765877506.0215669,495
1765877506.021575,495
1765877506.021583,495
1765877506.021593,495
1765877506.0216022,495
1765877506.02161,495
1765877506.0216188,495
1765877506.021627,495
1765877506.021635,495
1765877506.021642,495
1765877506.0216498,495
1765877506.021657,495
1765877506.021665,496
1765877506.021673,495
1765877506.02168,495
1765877506.021688,495
1765877506.021696,495
1765877506.021703,495
1765877506.021711,495
1765877506.021719,495
1765877506.021726,495
1765877506.021734,495
1765877506.021742,495
1765877506.02175,495
1765877506.0217578,494
1765877506.021766,495
1765877506.021774,494
1765877506.021782,495
1765877506.0217888,496
1765877506.0217988,495
1765877506.0218081,495
1765877506.021815,496
1765877506.021823,495
1765877506.0218308,495
1765877506.0218382,495
1765877506.021846,496
1765877506.021854,495
1765877506.021861,495
1765877506.021869,495
1765877506.0218759,496
1765877506.021884,495
1765877506.021892,495
1765877506.021899,495
1765877506.0219069,495
1765877506.021914,495
1765877506.021922,495
1765877506.021929,496
1765877506.021937,495
1765877506.021944,495
1765877506.021952,495
1765877506.02196,495
1765877506.0219672,495
1765877506.021975,496
1765877506.021982,496
1765877506.0219898,495
1765877506.0219982,495
1765877506.0220091,495
1765877506.022017,495
1765877506.0220249,495
1765877506.0220318,495
1765877506.0220401,495
1765877506.022048,495
1765877506.022055,495
1765877506.022063,495
1765877506.0220711,495
1765877506.02208,495
1765877506.022088,495
1765877506.0220952,495
1765877506.022103,496
1765877506.022111,495
1765877506.0221179,495
1765877506.0221262,495
1765877506.022134,495
1765877506.022141,495
1765877506.022149,496
1765877506.022157,495
1765877506.0221639,495
1765877506.022172,495
1765877506.02218,495
1765877506.022187,495
1765877506.0221949,495
1765877506.022203,495
1765877506.0222132,496
1765877506.022222,495
1765877506.02223,495
1765877506.0222368,495
1765877506.0222452,496
1765877506.022253,495
1765877506.022261,495
1765877506.0222678,496
1765877506.0222762,495
1765877506.022284,495
1765877506.022291,495
1765877506.0222988,495
1765877506.0223072,495
1765877506.022314,495
1765877506.022322,495
1765877506.022329,495
1765877506.022337,495
1765877506.022345,496
1765877506.022352,495
1765877506.02236,495
1765877506.022368,496
1765877506.0223749,496
1765877506.0223832,495
1765877506.022391,495
1765877506.022399,495
1765877506.0224059,495
1765877506.0224159,495
1765877506.022424,495
1765877506.022432,495
1765877506.022439,495
1765877506.022447,495
1765877506.022454,495
1765877506.022462,495
1765877506.022469,495
1765877506.0224771,495
1765877506.022484,495
1765877506.022492,495
1765877506.0225,495
1765877506.022507,496
1765877506.022515,495
1765877506.0225222,495
1765877506.02253,495
1765877506.022538,496
1765877506.0225458,496
1765877506.0225532,495
1765877506.022561,495
1765877506.022569,495
1765877506.022576,495
1765877506.022584,496
1765877506.022592,495
1765877506.0226,495
1765877506.0226078,495
1765877506.022615,495
1765877506.022625,495
1765877506.022634,495
1765877506.022641,495
1765877506.022649,495
1765877506.022662,495
1765877506.022669,495
1765877506.022677,495
1765877506.0226848,495
1765877506.0226922,496
1765877506.0227,495
1765877506.022708,496
1765877506.0227149,495
1765877506.022723,495
1765877506.022731,495
1765877506.022738,495
1765877506.022746,495
1765877506.022754,496
1765877506.022762,495
1765877506.022769,496
1765877506.022777,495
1765877506.022785,495
1765877506.0227919,496
1765877506.0228,496
1765877506.0228071,497
1765877506.022815,497
1765877506.0228229,497
1765877506.0228322,497
1765877506.022841,497
1765877506.022848,497
1765877506.022856,497
1765877506.0228639,496
1765877506.022871,497
1765877506.022879,496
1765877506.022887,497
1765877506.0228941,496
1765877506.022902,495
1765877506.022909,495
1765877506.022917,496
1765877506.0229251,496
1765877506.022932,496
1765877506.02294,496
1765877506.022947,496
1765877506.022955,495
1765877506.0229619,495
1765877506.0229702,495
1765877506.022977,496
1765877506.022985,495
1765877506.0229928,495
1765877506.023,495
1765877506.023008,495
1765877506.023015,496
1765877506.0230231,495
1765877506.02303,495
1765877506.02304,496
1765877506.023048,495
1765877506.0230558,495
1765877506.023063,495
1765877506.023071,495
1765877506.023078,495
1765877506.023086,495
1765877506.023094,495
1765877506.0231009,495
1765877506.0231092,495
1765877506.023116,495
1765877506.023124,496
1765877506.0231318,495
1765877506.023139,496
1765877506.023147,495
1765877506.023155,495
1765877506.0231628,495
1765877506.02317,495
1765877506.023178,495
1765877506.023186,495
1765877506.0231931,496
1765877506.023201,496
1765877506.023208,495
1765877506.023216,495
1765877506.023224,495
1765877506.023231,496
1765877506.023241,495
1765877506.023249,496
1765877506.023257,496
1765877506.0232651,496
1765877506.023273,496
1765877506.0232809,495
1765877506.023288,495
1765877506.023296,495
1765877506.023304,495
1765877506.0233111,495
1765877506.023319,495
1765877506.0233269,496
1765877506.0233338,496
1765877506.0233421,495
1765877506.023349,495
1765877506.023357,496
1765877506.023365,495
1765877506.023372,495
1765877506.02338,495
1765877506.023387,496
1765877506.023401,495
1765877506.0234082,495
1765877506.023416,495
1765877506.023423,495
1765877506.0234308,495
1765877506.023438,495
1765877506.023446,496
1765877506.023456,496
1765877506.023465,495
1765877506.023472,495
1765877506.0234802,495
1765877506.023488,495
1765877506.023496,496
1765877506.023503,495
1765877506.023511,495
1765877506.023519,495
1765877506.023526,495
1765877506.023534,495
1765877506.023542,496
1765877506.02355,496
1765877506.023558,495
1765877506.023565,495
1765877506.023573,495
1765877506.023581,495
1765877506.0235882,496
1765877506.023596,496
1765877506.023603,495
1765877506.0236108,496
1765877506.0236192,496
1765877506.023626,495
1765877506.023634,496
1765877506.023641,495
1765877506.023649,496
1765877506.023656,496
1765877506.0236642,496
1765877506.0236712,495
1765877506.023679,495
1765877506.023687,495
1765877506.023694,496
1765877506.023702,496
1765877506.02371,496
1765877506.0237172,495
1765877506.023725,495
1765877506.023732,496
1765877506.0237398,496
1765877506.023747,495
1765877506.023755,495
1765877506.023762,495
1765877506.02377,496
1765877506.023778,495
1765877506.0237849,495
1765877506.023793,495
1765877506.0238001,495
1765877506.023808,496
1765877506.0238159,496
1765877506.023823,495
1765877506.0238311,496
1765877506.023838,496
1765877506.023846,495
1765877506.023854,495
1765877506.023861,495
1765877506.023869,495
1765877506.0238762,495
1765877506.023884,495
1765877506.023891,495
1765877506.0238988,495
1765877506.0239072,495
1765877506.023914,495
1765877506.023922,495
1765877506.02393,495
1765877506.023937,495
1765877506.0239449,495
1765877506.023953,495
1765877506.02396,496
1765877506.023968,495
1765877506.0239758,495
1765877506.023983,495
1765877506.023991,495
1765877506.023999,495
1765877506.024006,495
1765877506.024014,496
1765877506.024022,496
1765877506.024029,495
1765877506.0240371,495
1765877506.024044,495
1765877506.024052,495
1765877506.02406,495
1765877506.0240672,495
1765877506.024075,495
1765877506.024082,495
1765877506.02409,495
1765877506.024097,495
1765877506.024105,495
1765877506.024118,495
1765877506.0241249,495
1765877506.0241332,495
1765877506.024141,495
1765877506.024148,495
1765877506.0241559,495
1765877506.0241642,495
1765877506.024171,495
1765877506.024179,495
1765877506.0241868,495
1765877506.024194,495
1765877506.0242019,495
1765877506.0242088,495
1765877506.0242171,495
1765877506.024224,495
1765877506.024232,495
1765877506.02424,495
1765877506.0242481,495
1765877506.024255,495
1765877506.024263,495
1765877506.02427,495
1765877506.024278,495
1765877506.024286,495
1765877506.0242932,495
1765877506.024301,495
1765877506.024308,494
1765877506.0243158,495
1765877506.0243242,495
1765877506.024332,495
1765877506.024339,496
1765877506.0243468,495
1765877506.0243552,495
1765877506.024362,495
1765877506.02437,495
1765877506.024377,495
1765877506.02439,494
1765877506.024398,494
1765877506.024406,494
1765877506.0244129,495
1765877506.0244212,496
1765877506.0244281,496
1765877506.024436,494
1765877506.024443,494
1765877506.024451,495
1765877506.0244632,495
1765877506.024471,496
1765877506.024479,495
1765877506.0244858,495
1765877506.0244942,495
1765877506.024502,495
1765877506.024509,496
1765877506.024517,495
1765877506.0245252,495
1765877506.024532,495
1765877506.02454,495
1765877506.024548,496
1765877506.024555,495
1765877506.0245628,495
1765877506.024571,495
1765877506.024578,495
1765877506.024586,495
1765877506.0245938,495
1765877506.024601,496
1765877506.024609,496
1765877506.024616,496
1765877506.024624,495
1765877506.024632,495
1765877506.024639,496
1765877506.024647,495
1765877506.0246542,495
1765877506.024662,495
1765877506.02467,495
1765877506.024678,494
1765877506.0246851,495
1765877506.024693,495
1765877506.0247009,495
1765877506.024708,495
1765877506.0247161,495
1765877506.024724,496
1765877506.024731,495
1765877506.024739,495
1765877506.024747,495
1765877506.024755,495
1765877506.0247622,495
1765877506.02477,495
1765877506.024778,496
1765877506.024786,495
1765877506.0247931,495
1765877506.024801,495
1765877506.024809,495
1765877506.024817,495
1765877506.0248241,495
1765877506.024832,495
1765877506.024839,495
1765877506.024847,496
1765877506.024854,495
1765877506.024862,495
1765877506.0248692,496
1765877506.024877,496
1765877506.024885,495
1765877506.0248919,496
1765877506.0249002,496
1765877506.024908,495
1765877506.02492,495
1765877506.024928,496
1765877506.025764,495
1765877506.026761,495
1765877506.0277388,495
1765877506.0287201,495
1765877506.02977,495
1765877506.0307572,495
1765877506.031803,495
1765877506.032764,495
1765877506.033765,495
1765877506.034774,495
1765877506.0357928,495
1765877506.036736,495
1765877506.0377758,496
1765877506.0387998,495
1765877506.0398211,495
1765877506.040798,495
1765877506.041821,495
1765877506.042824,496
1765877506.043809,496
1765877506.044804,495
1765877506.04585,496
1765877506.046821,495
1765877506.047796,495
1765877506.048804,495
1765877506.049817,495
1765877506.0508292,495
1765877506.051808,495
1765877506.0528362,495
1765877506.0538082,495
1765877506.054825,495
1765877506.0558798,496
1765877506.056907,496
1765877506.057854,495
1765877506.058849,495
1765877506.0598452,495
1765877506.060862,495
1765877506.061866,496
1765877506.062847,495
1765877506.063851,495
1765877506.064865,496
1765877506.0658402,495
1765877506.06686,496
1765877506.067859,496
1765877506.068845,496
1765877506.0698502,496
1765877506.070857,495
1765877506.071883,496
1765877506.072883,495
1765877506.073874,495
1765877506.0748968,495
1765877506.075883,495
1765877506.076886,495
1765877506.077867,495
1765877506.078866,495
1765877506.079894,495
1765877506.080907,495
1765877506.0819461,495
1765877506.082912,495
1765877506.083909,496
1765877506.0849128,496
1765877506.0859149,495
1765877506.086947,495
1765877506.087929,496
1765877506.0889149,496
1765877506.089931,495
1765877506.090898,496
1765877506.0919108,495
1765877506.092917,496
1765877506.0939121,495
1765877506.094932,495
1765877506.095925,495
1765877506.0969641,496
1765877506.097953,496
1765877506.09893,495
1765877506.099954,495
1765877506.100959,495
1765877506.1019661,496
1765877506.102963,495
1765877506.103937,496
1765877506.104966,496
1765877506.105964,496
1765877506.106961,497
1765877506.10798,496
1765877506.1089852,497
1765877506.109998,496
1765877506.110998,496
1765877506.111972,496
1765877506.112994,497
1765877506.114003,497
1765877506.115005,497
1765877506.115991,497
1765877506.117008,497
1765877506.118022,497
1765877506.119015,496
1765877506.120021,497
1765877506.1210291,498
1765877506.122035,496
1765877506.1230211,496
1765877506.124015,496
1765877506.125023,495
1765877506.126037,495
1765877506.127042,496
1765877506.128015,496
1765877506.129036,496
1765877506.1300611,496
1765877506.131041,496
1765877506.1320162,496
1765877506.133017,497
1765877506.134021,496
1765877506.13503,496
1765877506.1360261,496
1765877506.137054,496
1765877506.138064,496
1765877506.1390772,496
1765877506.140159,495
1765877506.141103,496
1765877506.1420841,496
1765877506.143083,496
1765877506.1440861,496
1765877506.145076,496
1765877506.1460621,496
1765877506.147087,496
1765877506.148074,496
1765877506.149085,496
1765877506.150146,496
1765877506.151104,496
1765877506.152103,496
1765877506.1531038,496
1765877506.154082,496
1765877506.155075,496
1765877506.156095,496
1765877506.157086,496
1765877506.1580749,496
1765877506.159092,495
1765877506.160085,496
1765877506.1611059,496
1765877506.162126,495
1765877506.163111,496
1765877506.164119,496
1765877506.1651561,496
1765877506.166153,496
1765877506.167129,495
1765877506.168132,496
1765877506.169109,496
1765877506.170135,496
1765877506.1711318,496
1765877506.1721458,497
1765877506.1731489,496
1765877506.174154,495
1765877506.1751401,496
1765877506.1761332,496
1765877506.17716,496
1765877506.178138,496
1765877506.1791492,496
1765877506.1801548,496
1765877506.181164,495
1765877506.182175,496
1765877506.183187,496
1765877506.1841578,496
1765877506.18517,496
1765877506.186197,495
1765877506.187205,495
1765877506.188201,495
1765877506.189213,496
1765877506.190201,496
1765877506.191197,496
1765877506.192182,496
1765877506.193223,495
1765877506.1942022,496
1765877506.195202,496
1765877506.196206,496
1765877506.197216,496
1765877506.19822,495
1765877506.1992042,496
1765877506.200209,495
1765877506.201219,495
1765877506.202231,496
1765877506.20323,496
1765877506.2042398,495
1765877506.20523,496
1765877506.20624,496
1765877506.207274,495
1765877506.208266,496
1765877506.2092512,496
1765877506.210262,495
1765877506.2112372,496
1765877506.212239,496
1765877506.2132428,496
1765877506.2142642,496
1765877506.215256,496
1765877506.2162502,496
1765877506.217275,496
1765877506.21826,496
1765877506.219263,496
1765877506.2202659,495
1765877506.22127,496
1765877506.2222772,497
1765877506.223299,496
1765877506.224294,496
1765877506.22528,495
1765877506.226314,496
1765877506.227288,496
1765877506.228304,496
1765877506.2293,496
1765877506.230305,495
1765877506.231315,495
1765877506.2323961,496
1765877506.2334,495
1765877506.234398,496
1765877506.2353091,496
1765877506.236405,497
1765877506.237396,496
1765877506.238396,496
1765877506.239437,497
1765877506.240403,496
1765877506.241411,496
1765877506.2424,496
1765877506.243413,496
1765877506.244409,496
1765877506.245404,496
1765877506.246409,496
1765877506.247423,496
1765877506.248409,497
1765877506.2494159,496
1765877506.250428,496
1765877506.251415,495
1765877506.2524018,495
1765877506.253406,496
1765877506.254396,496
1765877506.2554061,496
1765877506.256393,496
1765877506.257407,497
1765877506.2584121,497
1765877506.259435,496
1765877506.260402,496
1765877506.2614028,496
1765877506.2624,497
1765877506.263409,497
1765877506.264408,497
1765877506.265419,496
1765877506.2664142,496
1765877506.267448,495
1765877506.26842,496
1765877506.269422,495
1765877506.270425,495
1765877506.27142,495
1765877506.272429,495
1765877506.273473,496
1765877506.2744582,496
1765877506.275459,495
1765877506.2764642,495
1765877506.277468,496
1765877506.278465,496
1765877506.279474,496
1765877506.280483,496
1765877506.281485,496
1765877506.282499,496
1765877506.283487,496
1765877506.2844899,496
1765877506.285507,496
1765877506.2864902,497
1765877506.2875001,497
1765877506.288537,497
1765877506.289577,497
1765877506.290571,496
1765877506.2915819,496
1765877506.292535,496
1765877506.293536,496
1765877506.294544,496
1765877506.295525,496
1765877506.296491,497
1765877506.297503,496
1765877506.298497,496
1765877506.2995179,497
1765877506.300529,497
1765877506.301524,496
1765877506.302538,496
1765877506.3035278,495
1765877506.3045251,496
1765877506.305525,496
1765877506.306544,496
1765877506.3075452,495
1765877506.308546,496
1765877506.30955,496
1765877506.310542,496
1765877506.311536,496
1765877506.3125582,495
1765877506.313571,496
1765877506.3145542,495
1765877506.315567,495
1765877506.316575,496
1765877506.317572,496
1765877506.318576,497
1765877506.319586,496
1765877506.3205628,496
1765877506.321582,497
1765877506.322573,497
1765877506.323594,497
1765877506.324577,497
1765877506.325614,496
1765877506.3265889,498
1765877506.327612,498
1765877506.328597,498
1765877506.329612,498
1765877506.330605,498
1765877506.3316329,496
1765877506.3326762,496
1765877506.333647,496
1765877506.3346372,496
1765877506.335624,496
1765877506.336627,495
1765877506.337631,495
1765877506.338646,497
1765877506.339625,496
1765877506.340637,496
1765877506.341645,497
1765877506.342633,498
1765877506.343657,499
1765877506.344633,499
1765877506.345644,501
1765877506.346653,501
1765877506.347658,499
1765877506.348667,498
1765877506.349653,497
1765877506.350681,497
1765877506.3516731,498
1765877506.352691,497
1765877506.353798,498
1765877506.355066,497
1765877506.355808,496
1765877506.356693,494
1765877506.357707,493
1765877506.358701,494
1765877506.359686,494
1765877506.360692,495
1765877506.361703,495
1765877506.3627,495
1765877506.3637109,496
1765877506.364706,496
1765877506.365709,496
1765877506.366706,497
1765877506.367709,499
1765877506.368717,499
1765877506.369733,499
1765877506.370741,500
1765877506.3717382,500
1765877506.3727841,498
1765877506.373749,499
1765877506.374766,499
1765877506.375753,496
1765877506.3767521,497
1765877506.377747,500
1765877506.378762,501
1765877506.379751,501
1765877506.3807511,499
1765877506.381763,497
1765877506.382787,492
1765877506.3837671,492
1765877506.384803,493
1765877506.385804,495
1765877506.3867881,496
1765877506.3877718,498
1765877506.388767,499
1765877506.38978,499
1765877506.390796,505
1765877506.391787,507
1765877506.392782,506
1765877506.3937778,504
1765877506.39479,503
1765877506.395835,500
1765877506.396821,494
1765877506.3978071,492
1765877506.398828,496
1765877506.399818,496
1765877506.400827,491
1765877506.40181,493
1765877506.402812,496
1765877506.403829,495
1765877506.404822,496
1765877506.405822,495
1765877506.406847,495
1765877506.407837,496
1765877506.408834,496
1765877506.409823,496
1765877506.410851,496
1765877506.4118369,495
1765877506.4128451,497
1765877506.413866,495
1765877506.4148622,495
1765877506.41587,495
1765877506.416864,494
1765877506.417854,497
1765877506.418858,497
1765877506.4198852,498
1765877506.4208808,500
1765877506.421877,500
1765877506.422879,503
1765877506.423888,504
1765877506.424882,505
1765877506.425882,507
1765877506.426883,506
1765877506.4278789,504
1765877506.428886,504
1765877506.429887,499
1765877506.430891,490
1765877506.431903,488
1765877506.4329011,491
1765877506.4338958,492
1765877506.434907,493
1765877506.435919,494
1765877506.436932,497
1765877506.4379342,498
1765877506.4389172,499
1765877506.439931,500
1765877506.440922,499
1765877506.441917,497
1765877506.4429288,494
1765877506.443939,495
1765877506.444947,494
1765877506.445943,494
1765877506.446927,494
1765877506.447933,494
1765877506.44894,495
1765877506.4499571,498
1765877506.450952,499
1765877506.451953,501
1765877506.452966,502
1765877506.4539719,502
1765877506.454968,497
1765877506.4559739,494
1765877506.456992,497
1765877506.457997,496
1765877506.45898,497
1765877506.4599738,496
1765877506.46097,496
1765877506.4619882,497
1765877506.462987,500
1765877506.463992,502
1765877506.464994,501
1765877506.4659991,501
1765877506.467017,500
1765877506.4680152,497
1765877506.469036,497
1765877506.4700181,498
1765877506.4710221,496
1765877506.472022,496
1765877506.4730098,492
1765877506.474011,496
1765877506.475011,498
1765877506.476005,502
1765877506.4770198,503
1765877506.4780369,507
1765877506.479037,509
1765877506.4800289,507
1765877506.481031,501
1765877506.4820511,497
1765877506.483048,493
1765877506.484045,492
1765877506.485069,494
1765877506.486088,494
1765877506.487069,493
1765877506.488064,493
1765877506.489061,497
1765877506.4900749,503
1765877506.4910789,506
1765877506.4921,508
1765877506.493079,509
1765877506.4940732,509
1765877506.495069,504
1765877506.496068,497
1765877506.49707,495
1765877506.498097,495
1765877506.4990962,493
1765877506.500105,490
1765877506.501102,495
1765877506.502122,494
1765877506.5031118,492
1765877506.504095,493
1765877506.5051038,493
1765877506.506113,494
1765877506.507116,494
1765877506.508116,494
1765877506.5091121,494
1765877506.510132,494
1765877506.511141,495
1765877506.512131,496
1765877506.513145,495
1765877506.514116,497
1765877506.515139,497
1765877506.51614,497
1765877506.51714,498
