timestamp,emg_value
1765877478.484027,496
1765877478.4840362,499
1765877478.4840431,502
1765877478.48405,503
1765877478.4840581,502
1765877478.484065,496
1765877478.484072,493
1765877478.4840791,490
1765877478.484086,491
1765877478.484093,492
1765877478.4840991,494
1765877478.484106,495
1765877478.484113,496
1765877478.4841201,496
1765877478.484127,493
1765877478.484133,494
1765877478.48414,497
1765877478.4841468,499
1765877478.484153,501
1765877478.48416,501
1765877478.4841669,498
1765877478.484174,493
1765877478.48418,495
1765877478.484187,495
1765877478.484194,490
1765877478.484204,493
1765877478.484212,494
1765877478.4842188,494
1765877478.484225,494
1765877478.484232,495
1765877478.484239,493
1765877478.484245,494
1765877478.484252,493
1765877478.4842591,494
1765877478.484266,494
1765877478.484273,494
1765877478.4842792,494
1765877478.484286,494
1765877478.4842932,495
1765877478.484299,496
1765877478.4843059,496
1765877478.484313,497
1765877478.48432,498
1765877478.4843268,498
1765877478.484334,495
1765877478.48434,493
1765877478.4843469,493
1765877478.484354,494
1765877478.484361,494
1765877478.4843671,493
1765877478.484374,495
1765877478.484381,495
1765877478.484389,495
1765877478.4843972,494
1765877478.484404,495
1765877478.4844108,494
1765877478.4844182,495
1765877478.484425,495
1765877478.484431,494
1765877478.484438,495
1765877478.4844449,497
1765877478.484452,497
1765877478.484458,497
1765877478.484465,498
1765877478.484472,495
1765877478.48449,495
1765877478.4844968,497
1765877478.484504,495
1765877478.48451,495
1765877478.484517,495
1765877478.484524,492
1765877478.48453,492
1765877478.4845371,494
1765877478.484548,495
1765877478.484555,495
1765877478.484562,495
1765877478.484569,494
1765877478.484589,494
1765877478.484595,495
1765877478.4846048,496
1765877478.484612,498
1765877478.484618,499
1765877478.4846249,498
1765877478.484632,497
1765877478.484639,494
1765877478.4846458,492
1765877478.484652,495
1765877478.484659,496
1765877478.484666,498
1765877478.484673,497
1765877478.48468,493
1765877478.4846861,493
1765877478.484693,493
1765877478.4847019,495
1765877478.484709,495
1765877478.484716,495
1765877478.484722,497
1765877478.484729,497
1765877478.484736,498
1765877478.4847429,500
1765877478.48475,498
1765877478.484757,493
1765877478.4847639,493
1765877478.484771,493
1765877478.484778,494
1765877478.484787,494
1765877478.4847941,494
1765877478.484801,495
1765877478.484808,493
1765877478.484826,492
1765877478.484833,493
1765877478.484839,494
1765877478.484846,494
1765877478.484853,493
1765877478.484859,494
1765877478.4848661,494
1765877478.484873,495
1765877478.484879,496
1765877478.484886,498
1765877478.4848928,498
1765877478.4849,498
1765877478.484907,498
1765877478.4849129,494
1765877478.48492,493
1765877478.484927,493
1765877478.4849339,494
1765877478.48494,494
1765877478.484947,494
1765877478.4849532,494
1765877478.4849632,495
1765877478.48497,495
1765877478.484976,495
1765877478.4849842,494
1765877478.484992,494
1765877478.484998,493
1765877478.4850051,494
1765877478.4850109,494
1765877478.485018,496
1765877478.485024,497
1765877478.485031,496
1765877478.485037,495
1765877478.485044,495
1765877478.4850502,495
1765877478.485057,496
1765877478.4850628,495
1765877478.48507,495
1765877478.485076,493
1765877478.4850829,493
1765877478.485089,494
1765877478.485096,494
1765877478.4851031,494
1765877478.485109,494
1765877478.485116,495
1765877478.485122,494
1765877478.4851289,495
1765877478.485135,496
1765877478.485142,496
1765877478.485148,496
1765877478.485156,495
1765877478.485164,496
1765877478.4851708,495
1765877478.485177,496
1765877478.485184,497
1765877478.48519,496
1765877478.485197,498
1765877478.485203,499
1765877478.4852102,498
1765877478.485216,497
1765877478.4852228,495
1765877478.485229,493
1765877478.485236,493
1765877478.4852428,492
1765877478.485249,492
1765877478.48526,493
1765877478.485267,494
1765877478.4852731,495
1765877478.48528,496
1765877478.485286,495
1765877478.485292,493
1765877478.4852989,491
1765877478.485305,493
1765877478.485312,495
1765877478.485319,494
1765877478.485325,496
1765877478.485332,496
1765877478.4853399,496
1765877478.485348,495
1765877478.485354,494
1765877478.4853609,494
1765877478.485367,495
1765877478.485374,496
1765877478.4853802,495
1765877478.485387,494
1765877478.485394,495
1765877478.4854012,496
1765877478.4854069,495
1765877478.4854138,495
1765877478.48542,494
1765877478.485427,494
1765877478.485433,494
1765877478.48544,496
1765877478.485446,498
1765877478.4854531,500
1765877478.4854589,500
1765877478.485466,501
1765877478.485472,499
1765877478.4854789,492
1765877478.485485,493
1765877478.485492,494
1765877478.4854982,494
1765877478.485505,495
1765877478.485513,496
1765877478.48552,495
1765877478.485527,496
1765877478.485534,495
1765877478.4855402,496
1765877478.485547,494
1765877478.4855528,495
1765877478.485559,495
1765877478.485566,495
1765877478.485572,492
1765877478.485579,492
1765877478.485585,494
1765877478.4855921,494
1765877478.4855978,493
1765877478.485605,494
1765877478.485611,493
1765877478.4856179,494
1765877478.485624,494
1765877478.485631,495
1765877478.4856372,495
1765877478.485644,495
1765877478.4856498,494
1765877478.485663,495
1765877478.4856699,495
1765877478.485676,495
1765877478.485683,498
1765877478.48569,498
1765877478.485698,497
1765877478.485706,494
1765877478.4857118,492
1765877478.485719,493
1765877478.485725,493
1765877478.485732,495
1765877478.485739,496
1765877478.485745,495
1765877478.485752,494
1765877478.485759,494
1765877478.4857652,494
1765877478.4857721,494
1765877478.4857779,494
1765877478.485785,494
1765877478.485791,495
1765877478.4857972,496
1765877478.485804,496
1765877478.485811,495
1765877478.4858172,496
1765877478.485824,495
1765877478.485831,494
1765877478.485837,496
1765877478.485844,497
1765877478.48585,498
1765877478.485857,496
1765877478.485863,496
1765877478.4858701,496
1765877478.485878,497
1765877478.4858859,497
1765877478.485893,496
1765877478.485899,497
1765877478.485906,497
1765877478.485913,496
1765877478.485919,496
1765877478.485926,496
1765877478.485932,497
1765877478.4859378,498
1765877478.485945,496
1765877478.485951,494
1765877478.4859579,495
1765877478.485965,495
1765877478.485971,495
1765877478.4859781,495
1765877478.485984,496
1765877478.485991,497
1765877478.485997,497
1765877478.4860039,492
1765877478.48601,492
1765877478.486017,493
1765877478.486023,494
1765877478.48603,495
1765877478.486036,495
1765877478.486043,499
1765877478.486051,499
1765877478.4860659,499
1765877478.486073,499
1765877478.486079,495
1765877478.486086,492
1765877478.486092,491
1765877478.4860978,491
1765877478.4861052,492
1765877478.486111,494
1765877478.4861178,496
1765877478.486124,494
1765877478.48613,495
1765877478.4861372,495
1765877478.4861429,495
1765877478.4861498,496
1765877478.486156,497
1765877478.486163,496
1765877478.486169,495
1765877478.486183,496
1765877478.4861891,497
1765877478.486196,496
1765877478.486202,497
1765877478.486209,497
1765877478.4862149,496
1765877478.486222,493
1765877478.486228,493
1765877478.486235,492
1765877478.486243,492
1765877478.48625,493
1765877478.4862568,493
1765877478.486263,494
1765877478.48627,495
1765877478.4862761,495
1765877478.486283,494
1765877478.4862888,495
1765877478.4862962,495
1765877478.486302,495
1765877478.486309,495
1765877478.486315,495
1765877478.486322,495
1765877478.4863281,494
1765877478.486335,496
1765877478.4863412,495
1765877478.486348,494
1765877478.4863539,493
1765877478.486361,494
1765877478.486368,495
1765877478.486374,495
1765877478.48638,495
1765877478.486387,495
1765877478.486393,494
1765877478.4864,493
1765877478.4864058,494
1765877478.4864151,495
1765877478.486445,495
1765877478.4864519,496
1765877478.486458,496
1765877478.486465,497
1765877478.486471,498
1765877478.4864771,499
1765877478.486484,494
1765877478.48649,491
1765877478.486497,495
1765877478.4865038,496
1765877478.48651,495
1765877478.486517,495
1765877478.486523,494
1765877478.48653,495
1765877478.486536,495
1765877478.4865432,493
1765877478.486549,494
1765877478.4865549,495
1765877478.486562,494
1765877478.486568,496
1765877478.4865751,496
1765877478.486581,497
1765877478.486588,499
1765877478.486594,499
1765877478.4866009,497
1765877478.486609,497
1765877478.4866161,494
1765877478.486623,492
1765877478.486629,493
1765877478.486636,492
1765877478.486642,494
1765877478.486649,494
1765877478.486655,493
1765877478.4866612,494
1765877478.486668,495
1765877478.4866738,495
1765877478.486681,496
1765877478.486687,496
1765877478.4866939,496
1765877478.4867,495
1765877478.486707,495
1765877478.4867132,495
1765877478.48672,495
1765877478.4867258,493
1765877478.486733,494
1765877478.486739,496
1765877478.486746,497
1765877478.486752,497
1765877478.486759,496
1765877478.4867651,494
1765877478.486772,493
1765877478.486778,493
1765877478.486803,494
1765877478.486809,494
1765877478.486816,495
1765877478.486822,495
1765877478.48683,494
1765877478.486836,495
1765877478.4868429,496
1765877478.486849,497
1765877478.486855,496
1765877478.4868622,496
1765877478.486868,496
1765877478.4868748,497
1765877478.486881,496
1765877478.486888,496
1765877478.4868941,496
1765877478.486901,498
1765877478.486934,492
1765877478.486945,491
1765877478.4869518,493
1765877478.486958,493
1765877478.486965,493
1765877478.486971,492
1765877478.4869812,493
1765877478.486988,494
1765877478.486994,494
1765877478.4870012,494
1765877478.487009,496
1765877478.487017,497
1765877478.487024,499
1765877478.48703,500
1765877478.487037,500
1765877478.4870431,499
1765877478.4870489,493
1765877478.4870558,492
1765877478.487062,497
1765877478.487069,495
1765877478.487075,493
1765877478.487081,494
1765877478.4870882,494
1765877478.487094,493
1765877478.4871,492
1765877478.487107,492
1765877478.487113,493
1765877478.4871192,494
1765877478.487126,494
1765877478.4871318,494
1765877478.487139,494
1765877478.487145,494
1765877478.4871511,494
1765877478.487158,494
1765877478.487164,494
1765877478.4871712,494
1765877478.487183,494
1765877478.487191,495
1765877478.4871979,494
1765877478.487204,495
1765877478.48721,494
1765877478.487217,495
1765877478.4872231,494
1765877478.48723,496
1765877478.487241,496
1765877478.487247,495
1765877478.487254,495
1765877478.4872599,496
1765877478.487267,496
1765877478.487273,496
1765877478.4872801,496
1765877478.487286,496
1765877478.4872918,496
1765877478.487299,493
1765877478.487305,492
1765877478.4873118,494
1765877478.487319,495
1765877478.487325,494
1765877478.4873312,495
1765877478.487338,495
1765877478.487344,495
1765877478.487351,495
1765877478.487357,495
1765877478.487365,495
1765877478.487373,494
1765877478.4873788,494
1765877478.4873862,495
1765877478.487392,494
1765877478.487398,494
1765877478.487405,494
1765877478.487411,495
1765877478.487417,495
1765877478.487424,496
1765877478.4874299,496
1765877478.487437,494
1765877478.487443,494
1765877478.4874501,495
1765877478.487456,496
1765877478.487463,498
1765877478.487469,497
1765877478.4874759,499
1765877478.487482,499
1765877478.487488,497
1765877478.487495,495
1765877478.487502,492
1765877478.487508,493
1765877478.487514,494
1765877478.487521,493
1765877478.487527,495
1765877478.487534,495
1765877478.487543,495
1765877478.48755,496
1765877478.487556,495
1765877478.487562,496
1765877478.4875689,499
1765877478.487575,500
1765877478.487582,504
1765877478.4875882,504
1765877478.487595,497
1765877478.4876008,491
1765877478.487607,492
1765877478.487614,492
1765877478.48762,493
1765877478.487627,494
1765877478.487633,494
1765877478.4876401,494
1765877478.487647,492
1765877478.487653,494
1765877478.48766,493
1765877478.487666,493
1765877478.487673,494
1765877478.48768,495
1765877478.487686,495
1765877478.487692,495
1765877478.487699,495
1765877478.487705,495
1765877478.4877172,494
1765877478.487725,495
1765877478.487732,494
1765877478.487741,495
1765877478.487749,495
1765877478.487755,495
1765877478.487762,495
1765877478.4877682,495
1765877478.487775,496
1765877478.487781,496
1765877478.487788,496
1765877478.487794,496
1765877478.487801,497
1765877478.487807,497
1765877478.487814,496
1765877478.4878201,496
1765877478.487827,494
1765877478.487833,495
1765877478.48784,495
1765877478.4878469,494
1765877478.487853,495
1765877478.48786,495
1765877478.4878662,494
1765877478.487873,495
1765877478.48788,495
1765877478.4878862,494
1765877478.487893,494
1765877478.4879,495
1765877478.487909,494
1765877478.487915,494
1765877478.487921,495
1765877478.4879282,495
1765877478.4879339,496
1765877478.487941,495
1765877478.487947,496
1765877478.487954,496
1765877478.48796,497
1765877478.487967,496
1765877478.4879732,495
1765877478.4879801,494
1765877478.4879858,494
1765877478.487993,495
1765877478.488,498
1765877478.4880059,500
1765877478.488012,501
1765877478.488019,502
1765877478.4880252,499
1765877478.488032,494
1765877478.4880378,495
1765877478.488045,497
1765877478.488052,494
1765877478.488058,490
1765877478.488065,491
1765877478.488071,493
1765877478.4880798,494
1765877478.488087,494
1765877478.488093,495
1765877478.488103,496
1765877478.488109,499
1765877478.488116,499
1765877478.488123,499
1765877478.4881291,500
1765877478.488136,494
1765877478.4881432,490
1765877478.4881501,492
1765877478.488157,493
1765877478.488163,494
1765877478.48817,494
1765877478.488176,495
1765877478.488183,495
1765877478.488189,494
1765877478.4881961,494
1765877478.488202,495
1765877478.488209,495
1765877478.4882162,495
1765877478.488222,495
1765877478.488229,494
1765877478.488235,494
1765877478.488242,495
1765877478.488248,495
1765877478.488256,495
1765877478.4882638,496
1765877478.48827,496
1765877478.488277,495
1765877478.488283,495
1765877478.48829,494
1765877478.488296,495
1765877478.4883032,495
1765877478.488309,497
1765877478.4883158,499
1765877478.488322,499
1765877478.488329,499
1765877478.4883351,500
1765877478.488342,501
1765877478.488348,499
1765877478.4883552,501
1765877478.488362,499
1765877478.488368,496
1765877478.488375,493
1765877478.488381,493
1765877478.488388,493
1765877478.488395,494
1765877478.488402,495
1765877478.488408,496
1765877478.488415,496
1765877478.4884212,495
1765877478.488428,495
1765877478.488437,495
1765877478.4884439,495
1765877478.488451,496
1765877478.488457,496
1765877478.4884639,497
1765877478.488471,498
1765877478.488477,498
1765877478.4884841,498
1765877478.488491,496
1765877478.4884968,496
1765877478.488503,495
1765877478.48851,496
1765877478.488517,496
1765877478.488523,495
1765877478.48853,495
1765877478.4885361,496
1765877478.4885418,495
1765877478.4885492,494
1765877478.488555,495
1765877478.4885619,497
1765877478.488568,495
1765877478.488575,494
1765877478.4885812,498
1765877478.488588,500
1765877478.4885938,501
1765877478.488601,499
1765877478.488609,493
1765877478.488617,494
1765877478.4886231,493
1765877478.48863,494
1765877478.488636,493
1765877478.4886432,493
1765877478.488649,494
1765877478.4886558,495
1765877478.488662,496
1765877478.488669,496
1765877478.488675,496
1765877478.488683,497
1765877478.48869,496
1765877478.488696,495
1765877478.488703,495
1765877478.48871,495
1765877478.4887161,496
1765877478.4887218,500
1765877478.488729,502
1765877478.488736,502
1765877478.4887419,503
1765877478.488749,505
1765877478.488755,498
1765877478.4887621,496
1765877478.488768,495
1765877478.4887738,494
1765877478.488781,493
1765877478.48879,492
1765877478.488797,490
1765877478.4888031,492
1765877478.48881,494
1765877478.488816,494
1765877478.488823,494
1765877478.488829,494
1765877478.488836,494
1765877478.488842,494
1765877478.488849,494
1765877478.4888551,494
1765877478.488862,495
1765877478.488868,496
1765877478.488875,496
1765877478.4888809,497
1765877478.488888,498
1765877478.488894,497
1765877478.4889002,497
1765877478.488906,499
1765877478.4889128,498
1765877478.488919,497
1765877478.488925,500
1765877478.4889312,497
1765877478.488938,494
1765877478.488944,497
1765877478.48895,496
1765877478.488957,495
1765877478.488964,491
1765877478.488971,491
1765877478.488977,492
1765877478.4889832,494
1765877478.4889889,496
1765877478.488995,497
1765877478.489001,498
1765877478.489007,498
1765877478.489014,498
1765877478.4890199,495
1765877478.489026,492
1765877478.489032,494
1765877478.489038,495
1765877478.489044,496
1765877478.4890509,495
1765877478.489057,495
1765877478.489063,494
1765877478.489069,494
1765877478.489075,494
1765877478.4890811,494
1765877478.4890869,494
1765877478.489093,494
1765877478.489099,495
1765877478.489106,495
1765877478.4891121,495
1765877478.4891179,495
1765877478.489125,495
1765877478.4891331,496
1765877478.4891388,495
1765877478.489145,495
1765877478.489151,495
1765877478.4891572,495
1765877478.489164,495
1765877478.4891698,495
1765877478.489176,496
1765877478.489182,498
1765877478.4891882,501
1765877478.489194,503
1765877478.4892,505
1765877478.489207,500
1765877478.489213,490
1765877478.4892192,489
1765877478.489226,494
1765877478.4892318,494
1765877478.489238,492
1765877478.489244,493
1765877478.48925,495
1765877478.489256,494
1765877478.489263,494
1765877478.489269,494
1765877478.489275,494
1765877478.489281,495
1765877478.489287,494
1765877478.489295,495
1765877478.489302,495
1765877478.4893079,494
1765877478.489315,494
1765877478.489321,495
1765877478.4893272,495
1765877478.489333,495
1765877478.4893389,496
1765877478.489345,496
1765877478.4893508,496
1765877478.489357,496
1765877478.489363,497
1765877478.48937,496
1765877478.489376,495
1765877478.4893818,497
1765877478.489388,499
1765877478.489395,499
1765877478.489401,502
1765877478.489407,499
1765877478.489413,492
1765877478.489419,493
1765877478.489425,492
1765877478.4894311,493
1765877478.4894369,494
1765877478.489443,495
1765877478.489449,494
1765877478.4894562,494
1765877478.489463,495
1765877478.489471,494
1765877478.4894772,493
1765877478.489483,494
1765877478.4894888,494
1765877478.489495,495
1765877478.489502,495
1765877478.4895082,495
1765877478.4895139,496
1765877478.48952,497
1765877478.489526,497
1765877478.489532,497
1765877478.489538,497
1765877478.4895449,494
1765877478.489551,495
1765877478.489557,493
1765877478.489563,495
1765877478.489569,493
1765877478.489575,494
1765877478.489581,494
1765877478.4895868,495
1765877478.4895942,495
1765877478.4896,495
1765877478.489606,495
1765877478.489612,495
1765877478.4896178,495
1765877478.4896262,495
1765877478.489633,495
1765877478.4896388,497
1765877478.489645,496
1765877478.489652,496
1765877478.489658,495
1765877478.489664,494
1765877478.4896698,494
1765877478.489676,495
1765877478.489682,497
1765877478.4896882,497
1765877478.489695,498
1765877478.489701,497
1765877478.489707,493
1765877478.489713,492
1765877478.4897192,494
1765877478.4897249,493
1765877478.489731,494
1765877478.489738,494
1765877478.489744,494
1765877478.48975,495
1765877478.4897559,495
1765877478.489762,495
1765877478.489768,495
1765877478.4897752,496
1765877478.489781,496
1765877478.4897869,497
1765877478.489795,497
1765877478.489801,499
1765877478.4898078,498
1765877478.489814,499
1765877478.48982,498
1765877478.489826,495
1765877478.489832,492
1765877478.489839,494
1765877478.489845,493
1765877478.489851,493
1765877478.489857,494
1765877478.489867,495
1765877478.489873,495
1765877478.4898791,494
1765877478.4898849,494
1765877478.489892,494
1765877478.489898,494
1765877478.4899042,495
1765877478.4899101,495
1765877478.4899158,494
1765877478.489922,494
1765877478.489928,494
1765877478.4899352,495
1765877478.489941,494
1765877478.4899468,495
1765877478.489954,494
1765877478.48996,494
1765877478.489971,495
1765877478.4899771,495
1765877478.489983,495
1765877478.489989,495
1765877478.489995,495
1765877478.490002,495
1765877478.490008,495
1765877478.4900138,495
1765877478.49002,495
1765877478.490026,495
1765877478.4900322,495
1765877478.490039,495
1765877478.4900491,495
1765877478.4900548,495
1765877478.490062,495
1765877478.490068,495
1765877478.4900742,495
1765877478.49008,495
1765877478.4900858,495
1765877478.490093,495
1765877478.490099,494
1765877478.4901052,495
1765877478.4901109,495
1765877478.490117,495
1765877478.490123,495
1765877478.490129,495
1765877478.490137,495
1765877478.490145,495
1765877478.490151,496
1765877478.4901571,495
1765877478.4901628,495
1765877478.490169,495
1765877478.490175,495
1765877478.490182,495
1765877478.4901881,495
1765877478.4901938,495
1765877478.4902,495
1765877478.490206,494
1765877478.4902122,494
1765877478.490219,495
1765877478.4902248,495
1765877478.490231,495
1765877478.490237,495
1765877478.490243,495
1765877478.490249,495
1765877478.4902558,496
1765877478.490262,495
1765877478.490268,495
1765877478.490274,495
1765877478.49028,495
1765877478.490286,495
1765877478.490293,494
1765877478.490299,495
1765877478.490307,495
1765877478.490314,494
1765877478.49032,495
1765877478.490326,495
1765877478.490332,496
1765877478.490338,495
1765877478.490345,495
1765877478.4903512,495
1765877478.490357,495
1765877478.490363,495
1765877478.490369,495
1765877478.4903748,496
1765877478.4903822,496
1765877478.490388,495
1765877478.490394,494
1765877478.4904,495
1765877478.4904058,495
1765877478.490413,495
1765877478.490419,495
1765877478.490425,495
1765877478.490431,495
1765877478.490437,495
1765877478.490443,496
1765877478.49045,495
1765877478.490456,495
1765877478.490462,495
1765877478.490473,495
1765877478.490481,495
1765877478.4905632,495
1765877478.490583,496
1765877478.4905899,495
1765877478.490596,495
1765877478.490603,495
1765877478.490609,495
1765877478.490616,495
1765877478.490622,496
1765877478.4906292,495
1765877478.490635,496
1765877478.4906409,495
1765877478.490647,495
1765877478.490654,495
1765877478.4906602,494
1765877478.490667,494
1765877478.4906728,494
1765877478.4906812,494
1765877478.490687,495
1765877478.4906938,496
1765877478.4907,496
1765877478.490706,496
1765877478.4907122,496
1765877478.490719,496
1765877478.490725,496
1765877478.490731,497
1765877478.49074,497
1765877478.490753,496
1765877478.490768,496
1765877478.490775,496
1765877478.4907808,496
1765877478.490787,496
1765877478.490794,497
1765877478.4908001,497
1765877478.490806,497
1765877478.4908118,496
1765877478.490818,496
1765877478.490825,496
1765877478.490879,496
1765877478.4909031,496
1765877478.490939,496
1765877478.490946,496
1765877478.490953,496
1765877478.49096,496
1765877478.490966,495
1765877478.4909718,495
1765877478.490979,496
1765877478.490985,495
1765877478.490991,495
1765877478.490997,495
1765877478.491004,496
1765877478.49101,495
1765877478.491016,496
1765877478.491025,495
1765877478.4910321,495
1765877478.4910378,496
1765877478.4910452,495
1765877478.491051,495
1765877478.4910579,495
1765877478.491064,495
1765877478.49107,495
1765877478.491076,496
1765877478.491083,495
1765877478.4910889,495
1765877478.491095,495
1765877478.491102,495
1765877478.4911082,495
1765877478.491114,495
1765877478.4911208,495
1765877478.491127,496
1765877478.491134,495
1765877478.4911401,495
1765877478.491146,496
1765877478.491153,495
1765877478.491159,495
1765877478.491165,496
1765877478.491172,495
1765877478.491178,495
1765877478.4911842,495
1765877478.491192,495
1765877478.4912,495
1765877478.491207,495
1765877478.491213,495
1765877478.491219,495
1765877478.491225,496
1765877478.491232,496
1765877478.4912379,495
1765877478.491244,494
1765877478.491251,495
1765877478.4912572,494
1765877478.491263,495
1765877478.4912698,496
1765877478.491276,495
1765877478.491282,496
1765877478.4912891,496
1765877478.4912949,496
1765877478.491301,495
1765877478.491308,495
1765877478.491314,495
1765877478.4913201,495
1765877478.4913259,495
1765877478.491333,495
1765877478.491339,495
1765877478.491345,496
1765877478.491352,495
1765877478.491358,495
1765877478.4913669,497
1765877478.491374,497
1765877478.49138,496
1765877478.491387,496
1765877478.491393,495
1765877478.4913988,495
1765877478.491406,495
1765877478.491412,495
1765877478.4914181,494
1765877478.491425,495
1765877478.491431,495
1765877478.491437,496
1765877478.491443,496
1765877478.49145,496
1765877478.491456,496
1765877478.491462,496
1765877478.491468,496
1765877478.4914749,496
1765877478.491481,495
1765877478.491487,495
1765877478.491494,495
1765877478.4915001,495
1765877478.4915059,495
1765877478.491513,496
1765877478.491519,496
1765877478.4915252,496
1765877478.491534,496
1765877478.491541,496
1765877478.4915469,496
1765877478.491554,496
1765877478.49156,495
1765877478.4915662,495
1765877478.491572,495
1765877478.4915788,496
1765877478.491585,495
1765877478.491591,495
1765877478.491597,495
1765877478.4916039,495
1765877478.49161,495
1765877478.491617,495
1765877478.491623,495
1765877478.4916291,495
1765877478.491636,496
1765877478.491642,496
1765877478.491648,496
1765877478.491654,494
1765877478.491661,495
1765877478.491667,496
1765877478.491673,496
1765877478.49168,495
1765877478.4916859,496
1765877478.491692,495
1765877478.491699,496
1765877478.4917061,495
1765877478.491714,496
1765877478.49172,496
1765877478.4917262,497
1765877478.491733,496
1765877478.491777,495
1765877478.491785,494
1765877478.491791,494
1765877478.491798,493
1765877478.491804,494
1765877478.491811,495
1765877478.491817,496
1765877478.4918232,497
1765877478.49183,497
1765877478.4918358,496
1765877478.491842,496
1765877478.491849,495
1765877478.4918551,495
1765877478.491862,495
1765877478.491868,496
1765877478.491874,496
1765877478.49188,496
1765877478.491887,497
1765877478.491893,497
1765877478.4918988,496
1765877478.4919062,496
1765877478.491912,496
1765877478.4919198,495
1765877478.491928,496
1765877478.491934,496
1765877478.49194,496
1765877478.491947,496
1765877478.491953,496
1765877478.491959,496
1765877478.4919648,497
1765877478.4919722,496
1765877478.491978,495
1765877478.491984,496
1765877478.49199,496
1765877478.491997,496
1765877478.492003,496
1765877478.492009,495
1765877478.492016,495
1765877478.492022,495
1765877478.492028,495
1765877478.492034,495
1765877478.4920409,495
1765877478.492047,496
1765877478.492053,496
1765877478.492059,496
1765877478.492065,496
1765877478.4920719,496
1765877478.492078,496
1765877478.492089,496
1765877478.492096,496
1765877478.4921029,496
1765877478.492109,496
1765877478.492115,497
1765877478.4921222,497
1765877478.492128,498
1765877478.4921339,496
1765877478.49214,496
1765877478.492147,495
1765877478.4921532,495
1765877478.492159,496
1765877478.4921658,496
1765877478.492172,496
1765877478.492178,495
1765877478.492185,496
1765877478.492191,496
1765877478.492197,496
1765877478.492203,496
1765877478.49221,496
1765877478.492216,497
1765877478.492222,497
1765877478.492228,496
1765877478.492235,496
1765877478.492241,495
1765877478.492248,495
1765877478.492254,496
1765877478.4922612,496
1765877478.492269,496
1765877478.492275,497
1765877478.4922812,495
1765877478.492288,495
1765877478.4922938,496
1765877478.4923,495
1765877478.492306,495
1765877478.492312,493
1765877478.4923189,492
1765877478.492325,493
1765877478.492331,495
1765877478.492337,496
1765877478.4923441,497
1765877478.4923499,497
1765877478.492356,497
1765877478.492362,497
1765877478.492369,496
1765877478.4923751,496
1765877478.4923809,496
1765877478.492387,497
1765877478.492394,496
1765877478.4924002,496
1765877478.4924061,496
1765877478.4924119,496
1765877478.492418,497
1765877478.492425,498
1765877478.4924319,497
1765877478.49244,495
1765877478.492446,495
1765877478.492453,496
1765877478.492459,496
1765877478.4924648,496
1765877478.492471,495
1765877478.492478,496
1765877478.492484,496
1765877478.49249,497
1765877478.4924958,497
1765877478.492503,497
1765877478.492509,497
1765877478.492515,497
1765877478.492522,497
1765877478.4925282,497
1765877478.492534,496
1765877478.49254,496
1765877478.492546,496
1765877478.492553,496
1765877478.4925592,496
1765877478.492565,495
1765877478.4925718,496
1765877478.492578,496
1765877478.492584,496
1765877478.4925911,496
1765877478.492598,496
1765877478.492606,496
1765877478.4926121,496
1765877478.492618,495
1765877478.492625,496
1765877478.492631,495
1765877478.492637,496
1765877478.492643,496
1765877478.49265,495
1765877478.4926562,496
1765877478.492662,496
1765877478.492668,496
1765877478.492675,496
1765877478.492681,496
1765877478.492687,496
1765877478.492693,497
1765877478.4926999,497
1765877478.492706,496
1765877478.492712,496
1765877478.4927192,495
1765877478.492725,496
1765877478.4927309,495
1765877478.492737,496
1765877478.492743,496
1765877478.4927502,496
1765877478.492756,496
1765877478.492762,495
1765877478.49277,496
1765877478.492778,496
1765877478.492784,496
1765877478.492791,496
1765877478.492797,496
1765877478.492803,496
1765877478.49281,496
1765877478.492816,496
1765877478.4928231,496
1765877478.4928288,496
1765877478.492835,497
1765877478.492842,497
1765877478.4928482,496
1765877478.492855,496
1765877478.492861,496
1765877478.492867,497
1765877478.492873,496
1765877478.4928792,496
1765877478.4928849,495
1765877478.4928908,495
1765877478.492897,496
1765877478.492903,496
1765877478.492909,496
1765877478.492915,495
1765877478.492921,496
1765877478.492927,496
1765877478.492933,496
1765877478.49294,497
1765877478.4929469,496
1765877478.492953,496
1765877478.492959,496
1765877478.4929652,496
1765877478.4929721,496
1765877478.4929779,496
1765877478.492984,497
1765877478.49299,495
1765877478.492996,495
1765877478.493002,496
1765877478.493008,496
1765877478.493014,496
1765877478.4930198,497
1765877478.493026,497
1765877478.493032,497
1765877478.4930382,496
1765877478.493044,496
1765877478.49305,496
1765877478.493056,495
1765877478.4930618,495
1765877478.493068,496
1765877478.493074,496
1765877478.4930801,496
1765877478.4930859,496
1765877478.493092,495
1765877478.493098,495
1765877478.493105,496
1765877478.493112,496
1765877478.493118,497
1765877478.493124,497
1765877478.49313,496
1765877478.493136,496
1765877478.4931421,496
1765877478.493149,497
1765877478.493154,497
1765877478.493161,497
1765877478.493166,497
1765877478.493173,498
1765877478.4931781,497
1765877478.493184,497
1765877478.4931898,497
1765877478.493196,496
1765877478.493202,496
1765877478.4932082,497
1765877478.493214,497
1765877478.49322,498
1765877478.493226,498
1765877478.493232,497
1765877478.493238,496
1765877478.493245,495
1765877478.493251,495
1765877478.493257,495
1765877478.493265,496
1765877478.493272,495
1765877478.493278,496
1765877478.493284,497
1765877478.49329,497
1765877478.4932961,496
1765877478.493302,496
1765877478.4933078,496
1765877478.493314,497
1765877478.49332,497
1765877478.4933262,497
1765877478.493332,496
1765877478.493338,495
1765877478.493344,496
1765877478.4933498,495
1765877478.493356,495
1765877478.493362,496
1765877478.4933681,496
1765877478.4933739,497
1765877478.49338,497
1765877478.493386,496
1765877478.493392,495
1765877478.493398,496
1765877478.493404,496
1765877478.49341,496
1765877478.4934158,496
1765877478.493422,496
1765877478.49343,496
1765877478.4934368,496
1765877478.493442,496
1765877478.493449,496
1765877478.4934552,495
1765877478.493461,495
1765877478.4934669,496
1765877478.493472,496
1765877478.4934778,496
1765877478.493484,496
1765877478.49349,497
1765877478.4934962,497
1765877478.493502,497
1765877478.493508,496
1765877478.493514,497
1765877478.4935198,496
1765877478.493526,497
1765877478.493532,495
1765877478.4935381,495
1765877478.4935439,494
1765877478.49355,494
1765877478.493556,495
1765877478.4935622,495
1765877478.4935691,495
1765877478.4935749,496
1765877478.493581,495
1765877478.493587,495
1765877478.493595,496
1765877478.493602,496
1765877478.493608,496
1765877478.4936142,496
1765877478.49362,497
1765877478.493626,497
1765877478.493632,497
1765877478.4936378,497
1765877478.493644,497
1765877478.49365,497
1765877478.4936562,496
1765877478.4936619,497
1765877478.493668,497
1765877478.493674,497
1765877478.4936802,496
1765877478.493686,497
1765877478.493692,497
1765877478.4936981,497
1765877478.4937038,496
1765877478.49371,496
1765877478.493716,495
1765877478.4937222,496
1765877478.493728,497
1765877478.493734,496
1765877478.49374,495
1765877478.4937458,495
1765877478.493752,496
1765877478.49376,496
1765877478.493768,496
1765877478.4937742,496
1765877478.49378,496
1765877478.493786,495
1765877478.493792,495
1765877478.4937978,496
1765877478.493804,496
1765877478.493809,496
1765877478.493815,497
1765877478.493821,497
1765877478.493828,497
1765877478.493833,498
1765877478.493839,497
1765877478.493845,497
1765877478.493851,496
1765877478.493857,496
1765877478.4938629,496
1765877478.493869,496
1765877478.493875,496
1765877478.493881,497
1765877478.493887,498
1765877478.4938931,498
1765877478.493899,498
1765877478.4939048,497
1765877478.493911,495
1765877478.493918,493
1765877478.4939258,492
1765877478.493932,494
1765877478.493938,495
1765877478.4939442,495
1765877478.49395,495
1765877478.493956,496
1765877478.493962,496
1765877478.4939678,496
1765877478.493974,495
1765877478.49398,496
1765877478.4939861,498
1765877478.4939919,499
1765877478.493998,497
1765877478.494004,497
1765877478.4940102,495
1765877478.494091,496
1765877478.494109,496
1765877478.494122,495
1765877478.494134,495
1765877478.494147,495
1765877478.4941592,495
1765877478.494171,495
1765877478.494185,495
1765877478.494198,495
1765877478.49421,495
1765877478.494223,495
1765877478.4942489,496
1765877478.494262,497
1765877478.4942741,495
1765877478.494286,496
1765877478.4942982,497
1765877478.49431,497
1765877478.494323,497
1765877478.494335,497
1765877478.494347,498
1765877478.494359,497
1765877478.4943712,496
1765877478.494383,494
1765877478.4943948,493
1765877478.4944088,494
1765877478.494422,495
1765877478.494434,496
1765877478.494446,496
1765877478.494459,496
1765877478.4944708,496
1765877478.494483,497
1765877478.494495,497
1765877478.494507,497
1765877478.494519,497
1765877478.494532,496
1765877478.4945438,495
1765877478.494556,495
1765877478.494572,495
1765877478.494584,495
1765877478.494596,496
1765877478.494608,495
1765877478.494619,495
1765877478.494632,496
1765877478.494643,496
1765877478.494655,498
1765877478.494668,497
1765877478.4946802,496
1765877478.494692,496
1765877478.4947042,497
1765877478.494715,496
1765877478.4947278,495
1765877478.49474,494
1765877478.4947531,492
1765877478.494765,494
1765877478.4947772,495
1765877478.4947891,497
1765877478.4948008,498
1765877478.494813,498
1765877478.494825,498
1765877478.494837,498
1765877478.4948502,497
1765877478.494862,496
1765877478.494874,495
1765877478.4948878,496
1765877478.4949,496
1765877478.494912,496
1765877478.494924,497
1765877478.494936,496
1765877478.4949481,496
1765877478.494959,496
1765877478.4949708,497
1765877478.494983,497
1765877478.4949949,496
1765877478.495009,497
1765877478.495021,497
1765877478.495033,497
1765877478.4950452,497
1765877478.4950578,497
1765877478.495071,499
1765877478.495083,498
1765877478.495095,496
1765877478.495109,493
1765877478.495121,492
1765877478.495133,493
1765877478.4951448,494
1765877478.495157,495
1765877478.495169,495
1765877478.495183,496
1765877478.495195,496
1765877478.4952111,496
1765877478.4952252,495
1765877478.495237,495
1765877478.4952488,496
1765877478.495261,496
1765877478.4952729,496
1765877478.495285,496
1765877478.495297,496
1765877478.495308,496
1765877478.49532,496
1765877478.4953332,496
1765877478.4953442,496
1765877478.4953558,497
1765877478.495368,496
1765877478.49538,496
1765877478.495392,496
1765877478.495404,497
1765877478.4954162,496
1765877478.495432,496
1765877478.495444,496
1765877478.495456,496
1765877478.4954681,496
1765877478.49548,496
1765877478.495492,496
1765877478.495504,496
1765877478.4955158,496
1765877478.495531,495
1765877478.4955451,495
1765877478.495557,495
1765877478.495569,496
1765877478.495581,496
1765877478.495593,497
1765877478.495605,497
1765877478.495617,497
1765877478.495629,497
1765877478.495641,497
1765877478.4956532,495
1765877478.4956641,495
1765877478.495677,496
1765877478.495688,496
1765877478.495701,495
1765877478.495713,496
1765877478.4957252,495
1765877478.495738,496
1765877478.495751,496
1765877478.4957619,496
1765877478.495775,496
1765877478.495787,495
1765877478.495799,496
1765877478.495811,497
1765877478.4958239,496
1765877478.495836,496
1765877478.49585,495
1765877478.495863,496
1765877478.4958751,496
1765877478.495886,496
1765877478.495898,497
1765877478.49591,497
1765877478.4959219,497
1765877478.495934,498
1765877478.495946,496
1765877478.495958,497
1765877478.4959722,497
1765877478.495984,497
1765877478.495996,496
1765877478.496008,496
1765877478.49602,495
1765877478.496032,496
1765877478.496045,496
1765877478.496056,495
1765877478.496068,496
1765877478.4960809,496
1765877478.496093,496
1765877478.496105,496
1765877478.4961169,496
1765877478.496129,496
1765877478.496141,496
1765877478.496153,496
1765877478.496167,496
1765877478.4961789,495
1765877478.496191,495
1765877478.496203,496
1765877478.496215,496
1765877478.496227,496
1765877478.4962392,496
1765877478.4962509,495
1765877478.496263,495
1765877478.496275,496
1765877478.496286,495
1765877478.496298,496
1765877478.496311,496
1765877478.496323,495
1765877478.496334,495
1765877478.496346,495
1765877478.496358,496
1765877478.4963698,496
1765877478.496383,496
1765877478.496395,497
1765877478.496407,495
1765877478.496419,496
1765877478.496431,496
1765877478.496444,496
1765877478.4964569,496
1765877478.496469,496
1765877478.496484,496
1765877478.4964962,496
1765877478.496508,495
1765877478.49652,496
1765877478.496533,496
1765877478.496545,495
1765877478.496557,496
1765877478.4965692,496
1765877478.496581,496
1765877478.496593,496
1765877478.496605,495
1765877478.496617,495
1765877478.496629,495
1765877478.496641,495
1765877478.496654,495
1765877478.4966662,496
1765877478.4966779,496
1765877478.49669,496
1765877478.496702,495
1765877478.4967139,496
1765877478.496726,496
1765877478.496738,496
1765877478.49675,496
1765877478.496762,497
1765877478.496774,496
1765877478.4967859,497
1765877478.4968178,497
1765877478.496831,496
1765877478.496843,497
1765877478.496855,497
1765877478.4968672,497
1765877478.496879,497
1765877478.496892,497
1765877478.496904,497
1765877478.496916,497
1765877478.496928,497
1765877478.4969401,497
1765877478.496952,496
1765877478.496964,496
1765877478.496976,495
1765877478.4969878,496
1765877478.497,496
1765877478.497012,496
1765877478.497024,496
1765877478.4970372,496
1765877478.4970481,496
1765877478.497061,496
1765877478.4970722,496
1765877478.4970849,495
1765877478.497097,496
1765877478.497109,496
1765877478.497121,496
1765877478.497136,496
1765877478.4971478,495
1765877478.497161,496
1765877478.4971719,495
1765877478.497185,496
1765877478.497196,496
1765877478.497209,496
1765877478.4972212,496
1765877478.497233,495
1765877478.4972448,495
1765877478.497257,495
1765877478.497269,496
1765877478.497281,496
1765877478.497293,495
1765877478.4973052,496
1765877478.497317,495
1765877478.497329,496
1765877478.497343,495
1765877478.497355,496
1765877478.4973671,495
1765877478.49738,496
1765877478.4973922,495
1765877478.4974039,495
1765877478.497416,496
1765877478.497428,495
1765877478.49744,496
1765877478.4974542,495
1765877478.497466,495
1765877478.4974778,495
1765877478.49749,496
1765877478.4975019,496
1765877478.497514,496
1765877478.4975271,496
1765877478.497538,496
1765877478.4975512,495
1765877478.497563,496
1765877478.4975748,495
1765877478.497587,496
1765877478.497599,495
1765877478.497611,495
1765877478.497623,495
1765877478.4976509,496
1765877478.497664,495
1765877478.4976761,496
1765877478.497688,495
1765877478.4977012,495
1765877478.4977129,496
1765877478.497725,495
1765877478.497738,496
1765877478.497751,496
1765877478.497764,496
1765877478.497779,496
1765877478.497795,495
1765877478.497809,496
1765877478.4978209,496
1765877478.497833,495
1765877478.4978461,494
1765877478.497858,496
1765877478.49787,495
1765877478.4978828,495
1765877478.497895,495
1765877478.497907,495
1765877478.49792,496
1765877478.497932,496
1765877478.497944,496
1765877478.497955,496
1765877478.497986,496
1765877478.497998,495
1765877478.4980102,495
1765877478.4980218,495
1765877478.498035,496
1765877478.498046,496
1765877478.498058,495
1765877478.49807,496
1765877478.498083,495
1765877478.498095,496
1765877478.498107,496
1765877478.4981189,496
1765877478.498134,495
1765877478.498147,496
1765877478.4981592,496
1765877478.4981701,496
1765877478.498183,496
1765877478.498194,495
1765877478.498206,496
1765877478.498218,495
1765877478.49823,495
1765877478.4982421,496
1765877478.498254,495
1765877478.498267,496
1765877478.4982789,495
1765877478.498291,495
1765877478.498303,496
1765877478.498315,495
1765877478.498327,495
1765877478.4983401,496
1765877478.498351,495
1765877478.498364,496
1765877478.498375,496
1765877478.4983869,495
1765877478.4984,495
1765877478.4984121,496
1765877478.498424,495
1765877478.4984362,495
1765877478.4984498,496
1765877478.498463,495
1765877478.498475,495
1765877478.498487,495
1765877478.4984992,496
1765877478.498511,496
1765877478.498523,496
1765877478.498535,495
1765877478.4985468,496
1765877478.498614,496
1765877478.4986272,496
1765877478.498639,495
1765877478.4986508,496
1765877478.498664,496
1765877478.498676,495
1765877478.498688,495
1765877478.4987001,495
1765877478.498712,496
1765877478.498724,495
1765877478.4987361,495
1765877478.4987478,495
1765877478.49876,495
1765877478.498772,496
1765877478.498784,495
1765877478.498796,496
1765877478.4988081,495
1765877478.498822,495
1765877478.498834,495
1765877478.498846,495
1765877478.498859,495
1765877478.498871,496
1765877478.4988859,495
1765877478.498898,495
1765877478.49891,495
1765877478.4989219,495
1765877478.498934,495
1765877478.498946,495
1765877478.498958,496
1765877478.49897,495
1765877478.498982,495
1765877478.4989939,495
1765877478.499006,495
1765877478.499018,496
1765877478.49903,496
1765877478.499042,495
1765877478.4990551,495
1765877478.4990668,495
1765877478.499079,495
1765877478.499091,495
1765877478.499103,495
1765877478.499115,496
1765877478.4991271,495
1765877478.49914,495
1765877478.499153,495
1765877478.4991648,495
1765877478.499177,495
1765877478.499189,495
1765877478.499201,495
1765877478.499213,495
1765877478.4992251,495
1765877478.499237,495
1765877478.499249,496
1765877478.499261,495
1765877478.499274,495
1765877478.499286,495
1765877478.499298,495
1765877478.49931,496
1765877478.4993222,495
1765877478.4993339,495
1765877478.499346,495
1765877478.499358,495
1765877478.49937,495
1765877478.499382,495
1765877478.4993951,495
1765877478.499407,495
1765877478.499419,495
1765877478.499431,496
1765877478.499444,496
1765877478.4994571,496
1765877478.4994712,496
1765877478.4994829,495
1765877478.499495,495
1765877478.499507,495
1765877478.4995189,495
1765877478.499531,495
1765877478.499543,496
1765877478.499556,496
1765877478.4995682,495
1765877478.49958,495
1765877478.4995918,496
1765877478.499604,495
1765877478.499616,495
1765877478.499628,495
1765877478.49964,495
1765877478.499653,495
1765877478.4996648,495
1765877478.499677,495
1765877478.4996889,495
1765877478.499701,495
1765877478.499713,496
1765877478.499725,496
1765877478.499737,495
1765877478.4997492,495
1765877478.4997618,496
1765877478.499861,496
1765877478.499889,495
1765877478.499902,495
1765877478.499914,495
1765877478.499927,495
1765877478.499939,496
1765877478.4999511,495
1765877478.4999628,495
1765877478.499975,496
1765877478.499988,495
1765877478.5,495
1765877478.500012,495
1765877478.500024,495
1765877478.500036,495
1765877478.500048,496
1765877478.5000598,497
1765877478.500072,496
1765877478.500084,496
1765877478.500096,495
1765877478.500135,494
1765877478.50015,495
1765877478.500163,495
1765877478.500176,495
1765877478.5001879,495
1765877478.5002,495
1765877478.500213,495
1765877478.5002282,495
1765877478.5002408,495
1765877478.500253,495
1765877478.500265,495
1765877478.500278,495
1765877478.5002902,495
1765877478.500302,495
1765877478.500314,496
1765877478.500326,496
1765877478.5003378,496
1765877478.50035,495
1765877478.500362,496
1765877478.500374,496
1765877478.500387,496
1765877478.500399,496
1765877478.5004108,495
1765877478.500423,495
1765877478.5004349,495
1765877478.500447,495
1765877478.500459,495
1765877478.500472,495
1765877478.500484,495
1765877478.500496,495
1765877478.5005078,495
1765877478.50052,495
1765877478.500533,495
1765877478.500549,496
1765877478.500562,496
1765877478.5005739,496
1765877478.500586,496
1765877478.500598,496
1765877478.50061,496
1765877478.500623,496
1765877478.5006359,496
1765877478.500649,495
1765877478.500663,495
1765877478.500675,495
1765877478.5006878,496
1765877478.5007,495
1765877478.500712,496
1765877478.500724,495
1765877478.500736,496
1765877478.500771,495
1765877478.500778,495
1765877478.5007849,495
1765877478.500791,496
1765877478.500797,495
1765877478.500803,495
1765877478.500809,495
1765877478.5008152,495
1765877478.5008209,495
1765877478.5008268,495
1765877478.5008352,496
1765877478.500842,496
1765877478.500848,496
1765877478.500854,496
1765877478.50086,495
1765877478.500866,495
1765877478.500872,495
1765877478.500878,496
1765877478.500886,495
1765877478.500892,495
1765877478.5008981,495
1765877478.500903,496
1765877478.500909,496
1765877478.500915,495
1765877478.500921,495
1765877478.500927,495
1765877478.5009332,495
1765877478.500939,495
1765877478.5009449,495
1765877478.500951,496
1765877478.500958,496
1765877478.500963,495
1765877478.500969,496
1765877478.500976,496
1765877478.500981,495
1765877478.5009868,495
1765877478.500993,494
1765877478.501001,495
1765877478.5010078,496
1765877478.501014,496
1765877478.50102,495
1765877478.5010262,495
1765877478.5010319,495
1765877478.501038,495
1765877478.501044,496
1765877478.50105,496
1765877478.501056,496
1765877478.501062,495
1765877478.501068,495
1765877478.5010738,494
1765877478.50108,495
1765877478.501086,495
1765877478.5010922,495
1765877478.501098,495
1765877478.501104,496
1765877478.50111,495
1765877478.5011158,495
1765877478.501122,495
1765877478.501128,496
1765877478.5011342,494
1765877478.5011399,495
1765877478.501146,495
1765877478.501152,496
1765877478.501158,495
1765877478.5011652,496
1765877478.501172,496
1765877478.501178,497
1765877478.501184,497
1765877478.50119,496
1765877478.5011961,496
1765877478.5012019,496
1765877478.501208,496
1765877478.501214,497
1765877478.501268,497
1765877478.5012748,497
1765877478.50128,496
1765877478.5012858,497
1765877478.501293,497
1765877478.501299,496
1765877478.501305,497
1765877478.501312,496
1765877478.501319,495
1765877478.5013251,496
1765877478.5013309,495
1765877478.501337,496
1765877478.501343,496
1765877478.5013492,496
1765877478.501355,496
1765877478.501361,495
1765877478.501367,495
1765877478.5013728,495
1765877478.5013812,496
1765877478.5013871,496
1765877478.5013928,496
1765877478.501399,496
1765877478.501405,496
1765877478.501411,496
1765877478.501417,495
1765877478.5014231,495
1765877478.501429,495
1765877478.5014348,495
1765877478.501441,496
1765877478.501447,496
1765877478.5014532,496
1765877478.501458,496
1765877478.5014641,496
1765877478.5014699,496
1765877478.501476,496
1765877478.501483,496
1765877478.5014908,495
1765877478.501497,495
1765877478.501503,495
1765877478.5015092,495
1765877478.501515,495
1765877478.5015218,495
1765877478.501529,495
1765877478.501535,496
1765877478.5015411,496
1765877478.501548,495
1765877478.501555,495
1765877478.5015612,495
1765877478.501567,495
1765877478.501573,495
1765877478.501579,495
1765877478.501585,496
1765877478.50159,495
1765877478.501596,495
1765877478.501602,496
1765877478.501608,495
1765877478.501614,496
1765877478.50162,496
1765877478.501626,496
1765877478.501632,495
1765877478.501638,496
1765877478.5016441,495
1765877478.5016499,495
1765877478.501656,496
1765877478.501662,495
1765877478.5016682,495
1765877478.501674,496
1765877478.5016801,495
1765877478.501685,495
1765877478.5016909,496
1765877478.501697,496
1765877478.501705,496
1765877478.5017128,495
1765877478.501718,495
1765877478.501724,495
1765877478.50173,495
1765877478.501736,495
1765877478.5017421,495
1765877478.501748,495
1765877478.501754,495
1765877478.50176,495
1765877478.501766,495
1765877478.501772,496
1765877478.501778,495
1765877478.501784,495
1765877478.50179,496
1765877478.501796,495
1765877478.501802,495
1765877478.5018082,495
1765877478.5018141,496
1765877478.501819,495
1765877478.501825,495
1765877478.5018308,495
1765877478.501837,495
1765877478.501843,495
1765877478.5018492,495
1765877478.501855,495
1765877478.501861,496
1765877478.5018702,495
1765877478.501879,495
1765877478.501885,495
1765877478.5018911,495
1765877478.5018969,495
1765877478.501903,495
1765877478.501909,495
1765877478.501915,495
1765877478.501921,495
1765877478.501927,496
1765877478.501933,495
1765877478.501939,495
1765877478.501945,495
1765877478.501951,496
1765877478.5019572,495
1765877478.501963,496
1765877478.501968,496
1765877478.501974,495
1765877478.5019798,495
1765877478.501986,495
1765877478.501992,496
1765877478.5019982,495
1765877478.502004,495
1765877478.50201,495
1765877478.502016,495
1765877478.5020218,495
1765877478.5020318,496
1765877478.502039,495
1765877478.502045,496
1765877478.502051,495
1765877478.502057,495
1765877478.502063,495
1765877478.502069,495
1765877478.5020769,495
1765877478.502083,495
1765877478.502089,495
1765877478.5020952,496
1765877478.502102,495
1765877478.5021088,495
1765877478.5021162,495
1765877478.502122,495
1765877478.5021281,495
1765877478.502134,495
1765877478.5021389,495
1765877478.502145,495
1765877478.502151,495
1765877478.502157,496
1765877478.502163,495
1765877478.5021691,495
1765877478.502175,495
1765877478.502181,495
1765877478.502187,496
1765877478.502193,495
1765877478.5022001,495
1765877478.502207,495
1765877478.502213,495
1765877478.502219,496
1765877478.502225,495
1765877478.5022311,495
1765877478.5022368,495
1765877478.502243,495
1765877478.502249,495
1765877478.5022552,495
1765877478.502261,495
1765877478.502267,495
1765877478.502272,495
1765877478.5022779,495
1765877478.502284,495
1765877478.50229,495
1765877478.502296,495
1765877478.502302,495
1765877478.5023081,495
1765877478.502314,496
1765877478.50232,495
1765877478.502326,495
1765877478.502332,495
1765877478.502338,495
1765877478.502344,495
1765877478.5023491,495
1765877478.502357,495
1765877478.502364,495
1765877478.50237,495
1765877478.502377,495
1765877478.5023842,495
1765877478.502392,496
1765877478.502399,495
1765877478.5024052,495
1765877478.5024111,496
1765877478.502416,495
1765877478.502423,496
1765877478.5024278,495
1765877478.502434,495
1765877478.50244,495
1765877478.5024462,496
1765877478.502452,495
1765877478.502458,496
1765877478.502464,495
1765877478.5024698,496
1765877478.502476,495
1765877478.502482,496
1765877478.5024881,495
1765877478.5024939,495
1765877478.5025,495
1765877478.502506,495
1765877478.5025122,495
1765877478.502518,495
1765877478.5025249,496
1765877478.502532,495
1765877478.502538,495
1765877478.502544,496
1765877478.5025501,495
1765877478.5025558,495
1765877478.502563,495
1765877478.502571,495
1765877478.502576,495
1765877478.502582,495
1765877478.5025878,495
1765877478.502594,495
1765877478.5026,496
1765877478.5026062,495
1765877478.5026119,495
1765877478.502618,495
1765877478.502624,496
1765877478.50263,495
1765877478.502636,495
1765877478.502642,495
1765877478.502648,495
1765877478.5026538,495
1765877478.50266,495
1765877478.502666,495
1765877478.502672,495
1765877478.502679,495
1765877478.502686,495
1765877478.5026932,496
1765877478.502701,496
1765877478.502707,495
1765877478.5027132,495
1765877478.502718,496
1765877478.5027242,495
1765877478.50273,495
1765877478.5027359,495
1765877478.502742,495
1765877478.502748,495
1765877478.502754,495
1765877478.50276,496
1765877478.5027661,495
1765877478.5027719,495
1765877478.502778,496
1765877478.502784,496
1765877478.50279,495
1765877478.502796,495
1765877478.502802,496
1765877478.502808,496
1765877478.502814,496
1765877478.50282,496
1765877478.502826,495
1765877478.5028322,495
1765877478.502837,495
1765877478.502843,496
1765877478.502851,496
1765877478.502858,495
1765877478.502864,496
1765877478.50287,495
1765877478.5028758,496
1765877478.502881,496
1765877478.502887,495
1765877478.502893,496
1765877478.502899,495
1765877478.5029051,496
1765877478.502911,495
1765877478.502917,496
1765877478.502923,496
1765877478.502929,495
1765877478.502935,496
1765877478.50294,495
1765877478.5029461,496
1765877478.502953,495
1765877478.5029602,495
1765877478.5029671,495
1765877478.5029728,495
1765877478.502979,495
1765877478.502985,496
1765877478.5029912,495
1765877478.502997,495
1765877478.503003,496
1765877478.503009,495
1765877478.503017,496
1765877478.503024,496
1765877478.50303,496
1765877478.503036,495
1765877478.503042,495
1765877478.503048,496
1765877478.5030541,496
1765877478.5030599,495
1765877478.503066,495
1765877478.503072,495
1765877478.503078,495
1765877478.503084,495
1765877478.50309,495
1765877478.503096,495
1765877478.503102,496
1765877478.503108,495
1765877478.503114,495
1765877478.50312,496
1765877478.503126,495
1765877478.5031319,495
1765877478.503138,495
1765877478.503144,496
1765877478.50315,495
1765877478.503156,496
1765877478.5031621,496
1765877478.503168,496
1765877478.5031738,495
1765877478.503191,496
1765877478.503197,496
1765877478.5032032,496
1765877478.5032089,495
1765877478.503215,496
1765877478.503221,495
1765877478.503227,495
1765877478.503233,496
1765877478.503239,496
1765877478.503245,495
1765877478.5032508,495
1765877478.503257,495
1765877478.503263,496
1765877478.5032692,495
1765877478.503275,495
1765877478.5032809,495
1765877478.503287,495
1765877478.503293,495
1765877478.503299,495
1765877478.503305,495
1765877478.5033112,495
1765877478.5033169,495
1765877478.5033228,495
1765877478.503329,496
1765877478.503335,495
1765877478.503341,496
1765877478.503349,495
1765877478.503356,495
1765877478.503362,495
1765877478.503368,496
1765877478.503374,495
1765877478.50338,495
1765877478.503386,496
1765877478.503392,496
1765877478.503398,495
1765877478.5034041,496
1765877478.5034099,496
1765877478.503416,496
1765877478.503422,495
1765877478.503428,495
1765877478.503434,496
1765877478.50344,495
1765877478.503446,496
1765877478.5034518,495
1765877478.503458,495
1765877478.503464,496
1765877478.5034702,495
1765877478.503476,496
1765877478.503482,495
1765877478.503488,495
1765877478.5034938,495
1765877478.5035,495
1765877478.503506,495
1765877478.503514,496
1765877478.50352,496
1765877478.503526,497
1765877478.503532,496
1765877478.503538,497
1765877478.503544,497
1765877478.50355,496
1765877478.503556,496
1765877478.503562,496
1765877478.503568,497
1765877478.5035741,496
1765877478.5035799,496
1765877478.503586,497
1765877478.503592,496
1765877478.503598,496
1765877478.503604,496
1765877478.5036101,495
1765877478.503616,497
1765877478.5036218,496
1765877478.503628,495
1765877478.503634,495
1765877478.5036402,496
1765877478.503646,495
1765877478.503652,496
1765877478.503658,496
1765877478.503664,495
1765877478.503671,496
1765877478.5036778,496
1765877478.503684,496
1765877478.50369,496
1765877478.503696,496
1765877478.503702,496
1765877478.503708,496
1765877478.503714,496
1765877478.50372,496
1765877478.5037272,495
1765877478.503733,496
1765877478.5037389,496
1765877478.503745,495
1765877478.5037498,495
1765877478.503757,495
1765877478.503762,496
1765877478.503768,495
1765877478.503775,496
1765877478.503781,495
1765877478.503787,495
1765877478.503793,495
1765877478.503799,496
1765877478.503804,496
1765877478.50381,496
1765877478.503816,495
1765877478.503822,496
1765877478.503828,495
1765877478.503836,495
1765877478.503843,495
1765877478.503849,496
1765877478.503855,496
1765877478.503861,496
1765877478.5038662,496
1765877478.503872,495
1765877478.5038779,496
1765877478.503884,495
1765877478.50389,496
1765877478.5038972,496
1765877478.503902,495
1765877478.503909,495
1765877478.5039139,495
1765877478.5039208,495
1765877478.503926,495
1765877478.503932,495
1765877478.503938,495
1765877478.503944,495
1765877478.50395,495
1765877478.503956,495
1765877478.503962,495
1765877478.503968,495
1765877478.503974,496
1765877478.50398,495
1765877478.503986,496
1765877478.503992,495
1765877478.504,496
1765877478.5040069,495
1765877478.504013,495
1765877478.504019,495
1765877478.504046,495
1765877478.5040839,495
1765877478.504113,495
1765877478.50412,495
1765877478.5041258,496
1765877478.504132,495
1765877478.504138,495
1765877478.504144,495
1765877478.50415,495
1765877478.5041559,495
1765877478.504162,496
1765877478.504168,495
1765877478.504174,495
1765877478.50418,496
1765877478.5041862,495
1765877478.504192,495
1765877478.5041978,496
1765877478.504204,496
1765877478.50421,495
1765877478.504216,495
1765877478.504222,495
1765877478.504228,496
1765877478.504234,495
1765877478.504242,495
1765877478.504249,495
1765877478.504255,495
1765877478.504261,495
1765877478.504266,496
1765877478.504272,496
1765877478.504278,495
1765877478.504284,495
1765877478.50429,496
1765877478.5042958,495
1765877478.504302,495
1765877478.504308,495
1765877478.5043142,496
1765877478.50432,496
1765877478.5043259,495
1765877478.504332,496
1765877478.504338,495
1765877478.504344,495
1765877478.504351,495
1765877478.504357,496
1765877478.504363,495
1765877478.5043688,495
1765877478.504375,495
1765877478.504381,495
1765877478.5043871,495
1765877478.5043929,496
1765877478.504399,495
1765877478.504406,495
1765877478.504413,495
1765877478.504419,495
1765877478.504425,495
1765877478.504431,494
1765877478.504437,495
1765877478.504443,495
1765877478.5044491,496
1765877478.5044549,495
1765877478.504461,495
1765877478.504467,495
1765877478.504473,495
1765877478.504479,496
1765877478.5044851,495
1765877478.504491,495
1765877478.5044968,495
1765877478.504503,495
1765877478.504509,495
1765877478.5045152,496
1765877478.504521,495
1765877478.504527,495
1765877478.504533,496
1765877478.5045388,495
1765877478.504545,495
1765877478.504551,495
1765877478.5045571,495
1765877478.504564,495
1765877478.504571,495
1765877478.504577,495
1765877478.504583,495
1765877478.504589,495
1765877478.504596,496
1765877478.504601,495
1765877478.504607,495
1765877478.5046132,496
1765877478.5046191,496
1765877478.5046248,495
1765877478.504631,495
1765877478.504637,495
1765877478.504643,495
1765877478.504649,495
1765877478.5046551,495
1765877478.504661,496
1765877478.5046668,495
1765877478.504673,495
1765877478.504679,496
1765877478.5046852,496
1765877478.504691,496
1765877478.504697,495
1765877478.504703,495
1765877478.504709,496
1765877478.504715,495
1765877478.504721,496
1765877478.504729,495
1765877478.5047371,496
1765877478.5047429,495
1765877478.504749,495
1765877478.504755,495
1765877478.504761,495
1765877478.504767,495
1765877478.5047731,495
1765877478.504779,495
1765877478.5047848,496
1765877478.504791,495
1765877478.504797,495
1765877478.5048032,495
1765877478.504809,496
1765877478.504815,496
1765877478.504821,495
1765877478.5048268,496
1765877478.504833,495
1765877478.504839,495
1765877478.5048451,496
1765877478.5048509,496
1765877478.504857,496
1765877478.504863,495
1765877478.5048692,495
1765877478.504875,495
1765877478.504881,495
1765877478.504888,494
1765877478.504895,495
1765877478.5049012,495
1765877478.504907,495
1765877478.5049129,495
1765877478.504919,495
1765877478.504925,496
1765877478.504931,496
1765877478.504937,496
1765877478.5049431,495
1765877478.504949,495
1765877478.5049548,495
1765877478.504961,495
1765877478.504967,495
1765877478.5049732,495
1765877478.504979,495
1765877478.504985,496
1765877478.504991,495
1765877478.504997,495
1765877478.505003,495
1765877478.505009,495
1765877478.5050151,495
1765877478.5050209,495
1765877478.505027,495
1765877478.505033,495
1765877478.5050392,494
1765877478.505044,495
1765877478.5050519,495
1765877478.505058,495
1765877478.505064,495
1765877478.5050712,495
1765877478.505077,495
1765877478.5050828,495
1765877478.505089,495
1765877478.505095,496
1765877478.5051,495
1765877478.505106,494
1765877478.5051122,495
1765877478.505118,495
1765877478.505124,494
1765877478.50513,495
1765877478.505136,495
1765877478.505142,494
1765877478.505148,495
1765877478.5051541,496
1765877478.5051599,495
1765877478.505167,495
1765877478.505173,495
1765877478.505179,495
1765877478.5051851,495
1765877478.5051908,495
1765877478.505197,495
1765877478.5052018,495
1765877478.505208,495
1765877478.505216,495
1765877478.5052228,495
1765877478.505229,495
1765877478.505235,495
1765877478.5052412,495
1765877478.5052469,495
1765877478.505253,495
1765877478.505259,495
1765877478.505265,495
1765877478.505271,495
1765877478.505277,495
1765877478.505283,496
1765877478.505289,495
1765877478.505295,495
1765877478.505301,495
1765877478.505307,494
1765877478.505313,494
1765877478.5053189,495
1765877478.505325,495
1765877478.505331,495
1765877478.505337,495
1765877478.505343,495
1765877478.5053492,495
1765877478.5053551,495
1765877478.5053608,495
1765877478.505367,495
1765877478.505373,494
1765877478.5053802,495
1765877478.505387,495
1765877478.5053928,495
1765877478.505399,495
1765877478.505405,495
1765877478.5054111,495
1765877478.5054169,495
1765877478.505423,495
1765877478.505429,494
1765877478.505435,495
1765877478.505441,495
1765877478.505447,495
1765877478.505453,495
1765877478.5054588,495
1765877478.505465,495
1765877478.505471,495
1765877478.5054772,495
1765877478.505483,495
1765877478.5054889,495
1765877478.505495,495
1765877478.505501,495
1765877478.505507,495
1765877478.505513,495
1765877478.5055192,495
1765877478.5055249,495
1765877478.5055308,496
1765877478.5055392,495
1765877478.505546,495
1765877478.5055518,495
1765877478.505558,495
1765877478.505564,495
1765877478.50557,495
1765877478.505576,495
1765877478.505582,495
1765877478.505588,495
1765877478.505594,495
1765877478.5056,495
1765877478.505606,495
1765877478.5056121,495
1765877478.5056179,495
1765877478.505624,494
1765877478.50563,495
1765877478.505636,495
1765877478.505642,495
1765877478.5056481,495
1765877478.505654,495
1765877478.5056598,495
1765877478.505666,495
1765877478.505672,494
1765877478.5056782,495
1765877478.505684,495
1765877478.50569,494
1765877478.505696,495
1765877478.505704,495
1765877478.505711,495
1765877478.505717,495
1765877478.5057228,495
1765877478.505729,495
1765877478.505735,495
1765877478.5057411,495
1765877478.5057468,495
1765877478.505753,495
1765877478.505759,495
1765877478.5057652,495
1765877478.50577,495
1765877478.5057778,495
1765877478.505785,495
1765877478.50579,495
1765877478.5057962,495
1765877478.505802,496
1765877478.5058079,496
1765877478.505814,496
1765877478.5058198,496
1765877478.505826,496
1765877478.505832,496
1765877478.5058382,496
1765877478.5058439,496
1765877478.50585,496
1765877478.505856,496
1765877478.505862,496
1765877478.5058692,496
1765877478.505876,496
1765877478.505882,497
1765877478.505888,496
1765877478.505894,496
1765877478.5059001,496
1765877478.5059059,496
1765877478.505912,495
1765877478.505918,496
1765877478.505924,495
1765877478.50593,495
1765877478.505936,495
1765877478.505942,495
1765877478.505949,495
1765877478.5059562,495
1765877478.505962,495
1765877478.505968,495
1765877478.505974,496
1765877478.50598,495
1765877478.505986,495
1765877478.505992,495
1765877478.5059981,496
1765877478.506003,495
1765877478.506009,495
1765877478.506015,495
1765877478.506021,495
1765877478.5060291,495
1765877478.506036,495
1765877478.506042,495
1765877478.506048,496
1765877478.506054,495
1765877478.5060601,495
1765877478.5060658,495
1765877478.506072,495
1765877478.506078,495
1765877478.5060842,495
1765877478.50609,495
1765877478.5060961,495
1765877478.506102,495
1765877478.5061078,496
1765877478.506114,495
1765877478.50612,495
1765877478.5061262,495
1765877478.506132,495
1765877478.506138,495
1765877478.506144,495
1765877478.5061498,495
1765877478.506156,495
1765877478.506162,495
1765877478.5061681,495
1765877478.5061738,495
1765877478.50618,496
1765877478.506186,495
1765877478.506193,495
1765877478.506201,495
1765877478.506207,495
1765877478.5062132,495
1765877478.506219,495
1765877478.5062249,495
1765877478.506231,495
1765877478.506237,496
1765877478.506243,495
1765877478.506249,496
1765877478.5062551,496
1765877478.50626,496
1765877478.5062668,495
1765877478.506272,495
1765877478.5062778,495
1765877478.506284,495
1765877478.50629,495
1765877478.5062962,496
1765877478.5063019,495
1765877478.506308,496
1765877478.506314,495
1765877478.5063198,494
1765877478.5063272,495
1765877478.5063329,495
1765877478.506339,495
1765877478.5063438,496
1765877478.50635,496
1765877478.506358,495
1765877478.5063648,495
1765877478.506371,495
1765877478.506377,495
1765877478.5063832,496
1765877478.506389,496
1765877478.5063949,495
1765877478.506401,495
1765877478.506407,495
1765877478.506413,495
1765877478.506419,495
1765877478.5064251,495
1765877478.5064309,495
1765877478.506437,495
1765877478.506443,495
1765877478.506449,495
1765877478.506455,496
1765877478.506461,495
1765877478.506467,495
1765877478.506473,495
1765877478.506479,496
1765877478.506485,496
1765877478.506491,496
1765877478.506497,496
1765877478.5065038,495
1765877478.50651,496
1765877478.506516,495
1765877478.5065222,495
1765877478.506528,495
1765877478.5065339,495
1765877478.50654,496
1765877478.506546,496
1765877478.506551,495
1765877478.506558,495
1765877478.5065632,494
1765877478.50657,495
1765877478.5065758,495
1765877478.506581,495
1765877478.5065868,494
1765877478.506594,495
1765877478.5066,495
1765877478.506606,495
1765877478.506612,495
1765877478.506618,495
1765877478.506624,495
1765877478.50663,495
1765877478.506635,495
1765877478.506641,495
1765877478.506648,495
1765877478.5066528,495
1765877478.50666,495
1765877478.506665,495
1765877478.5066721,495
1765877478.506677,495
1765877478.5066838,495
1765877478.50669,495
1765877478.506696,495
1765877478.5067022,495
1765877478.506708,495
1765877478.506714,494
1765877478.506722,494
1765877478.506728,495
1765877478.5067341,495
1765877478.5067399,495
1765877478.506746,495
1765877478.506752,496
1765877478.506758,495
1765877478.506764,495
1765877478.50677,495
1765877478.506776,495
1765877478.506782,495
1765877478.506788,495
1765877478.506794,495
1765877478.5068002,495
1765877478.5068061,495
1765877478.5068119,495
1765877478.506818,495
1765877478.506824,495
1765877478.50683,495
1765877478.506836,495
1765877478.5068421,495
1765877478.506848,495
1765877478.5068538,495
1765877478.50686,495
1765877478.506866,494
1765877478.5068722,494
1765877478.506878,494
1765877478.506884,494
1765877478.50689,494
1765877478.5068958,494
1765877478.506902,495
1765877478.506908,496
1765877478.5069141,495
1765877478.5069199,495
1765877478.506926,495
1765877478.506932,496
1765877478.5069382,495
1765877478.506943,495
1765877478.5069492,495
1765877478.506955,495
1765877478.5069618,495
1765877478.506968,495
1765877478.506974,495
1765877478.5069802,495
1765877478.506986,495
1765877478.506992,495
1765877478.506998,495
1765877478.507004,495
1765877478.50701,495
1765877478.507016,495
1765877478.5070221,495
1765877478.5070279,495
1765877478.507034,495
1765877478.50704,496
1765877478.507046,495
1765877478.507052,495
1765877478.507058,495
1765877478.507064,495
1765877478.50707,495
1765877478.507076,495
1765877478.507082,494
1765877478.507089,495
1765877478.507095,495
1765877478.5071008,495
1765877478.507107,495
1765877478.507113,495
1765877478.5071192,495
1765877478.507125,495
1765877478.5071309,495
1765877478.507137,495
1765877478.507143,495
1765877478.507149,495
1765877478.507155,495
1765877478.5071611,495
1765877478.507168,495
1765877478.5071738,495
1765877478.50718,495
1765877478.507186,495
1765877478.5071921,495
1765877478.5071979,495
1765877478.507204,495
1765877478.50721,495
1765877478.507216,495
1765877478.507222,495
1765877478.507228,495
1765877478.507234,495
1765877478.507241,495
1765877478.5072472,495
1765877478.507253,495
1765877478.507259,495
1765877478.507265,495
1765877478.5072708,495
1765877478.507277,495
1765877478.507283,495
1765877478.5072892,495
1765877478.507295,495
1765877478.507301,495
1765877478.507307,495
1765877478.507313,495
1765877478.507319,495
1765877478.507325,495
1765877478.5073311,495
1765877478.5073369,495
1765877478.507343,495
1765877478.507349,494
1765877478.507355,494
1765877478.507361,494
1765877478.507367,495
1765877478.507373,494
1765877478.507379,494
1765877478.507385,494
1765877478.507391,495
1765877478.5073972,494
1765877478.507403,494
1765877478.5074089,494
1765877478.507415,495
1765877478.507421,494
1765877478.507427,495
1765877478.507433,495
1765877478.5074391,495
1765877478.508255,495
1765877478.5092201,495
1765877478.510203,495
1765877478.511224,495
1765877478.5122151,495
1765877478.513206,495
1765877478.5142,495
1765877478.5152152,495
1765877478.5162072,495
1765877478.5171998,495
1765877478.518201,495
1765877478.519209,495
1765877478.520205,495
1765877478.521205,495
1765877478.522201,495
1765877478.523199,494
1765877478.524205,494
1765877478.5252008,495
1765877478.5262022,494
1765877478.527199,495
1765877478.528202,495
1765877478.529202,494
1765877478.5302,495
1765877478.531203,495
1765877478.532199,495
1765877478.53321,495
1765877478.534215,495
1765877478.535253,495
1765877478.536225,495
1765877478.537218,495
1765877478.538233,494
1765877478.5392299,494
1765877478.540236,495
1765877478.541226,494
1765877478.5422442,494
1765877478.543234,495
1765877478.544266,495
1765877478.545263,495
1765877478.546301,495
1765877478.54725,495
1765877478.5482721,495
1765877478.549255,495
1765877478.550256,495
1765877478.551281,495
1765877478.552275,495
1765877478.5532851,495
1765877478.5542772,495
1765877478.555294,495
1765877478.556278,495
1765877478.5572858,495
1765877478.558282,495
1765877478.559294,494
1765877478.560265,494
1765877478.561261,495
1765877478.562282,494
1765877478.563306,494
1765877478.564354,495
1765877478.565291,495
1765877478.566304,495
1765877478.567339,495
1765877478.5682938,495
1765877478.569304,495
1765877478.570348,495
1765877478.571318,495
1765877478.572306,495
1765877478.5733461,495
1765877478.574375,495
1765877478.575339,495
1765877478.5763872,495
1765877478.5773609,495
1765877478.5783548,495
1765877478.57932,495
1765877478.580336,496
1765877478.581378,496
1765877478.582345,495
1765877478.583343,495
1765877478.5843441,494
1765877478.5853581,495
1765877478.586408,495
1765877478.5874062,495
1765877478.588365,495
1765877478.589361,494
1765877478.590358,495
1765877478.591381,495
1765877478.592383,495
1765877478.593418,495
1765877478.594424,495
1765877478.595417,495
1765877478.596375,495
1765877478.597384,495
1765877478.5984378,495
1765877478.599434,495
1765877478.600438,495
1765877478.6014268,495
1765877478.602381,495
1765877478.603393,494
1765877478.6044018,495
1765877478.605429,495
1765877478.606403,496
1765877478.607408,496
1765877478.608423,496
1765877478.609466,497
1765877478.610453,496
1765877478.611409,496
1765877478.612418,496
1765877478.613471,496
1765877478.614476,497
1765877478.615484,497
1765877478.616481,496
1765877478.617428,497
1765877478.6185,497
1765877478.6194692,495
1765877478.620521,496
1765877478.621488,495
1765877478.622478,495
1765877478.62346,495
1765877478.624495,495
1765877478.6255,496
1765877478.626505,495
1765877478.627459,495
1765877478.628472,495
1765877478.629492,496
1765877478.630542,495
1765877478.631485,495
1765877478.632501,495
1765877478.633544,495
1765877478.634488,495
1765877478.635478,495
1765877478.6364748,495
1765877478.637481,495
1765877478.6384919,495
1765877478.639502,495
1765877478.6405098,495
1765877478.64156,495
1765877478.642557,496
1765877478.643563,495
1765877478.644554,495
1765877478.645516,495
1765877478.646517,495
1765877478.647518,495
1765877478.6485708,495
1765877478.6495192,495
1765877478.6505191,496
1765877478.651526,495
1765877478.652591,495
1765877478.6535869,495
1765877478.654537,495
1765877478.6555269,495
1765877478.6565802,495
1765877478.657587,495
1765877478.658574,495
1765877478.659568,495
1765877478.6605802,495
1765877478.661619,495
1765877478.662554,495
1765877478.6635652,495
1765877478.664556,495
1765877478.665608,495
1765877478.666572,495
1765877478.667573,495
1765877478.668575,495
1765877478.669631,495
1765877478.670584,495
1765877478.671584,495
1765877478.6726558,495
1765877478.673599,495
1765877478.674634,495
1765877478.6756392,495
1765877478.676652,495
1765877478.677643,495
1765877478.6786098,495
1765877478.679585,496
1765877478.680663,495
1765877478.6816268,495
1765877478.682658,495
1765877478.683669,495
1765877478.684614,495
1765877478.685615,495
1765877478.686641,495
1765877478.687649,495
1765877478.688641,495
1765877478.689623,495
1765877478.690628,495
1765877478.691674,495
1765877478.692649,495
1765877478.6936572,495
1765877478.6946619,494
1765877478.6956549,495
1765877478.6966689,495
1765877478.697661,495
1765877478.698646,496
1765877478.69966,496
1765877478.700695,496
1765877478.7017019,496
1765877478.702705,494
1765877478.7036958,494
1765877478.704716,494
1765877478.7057128,495
1765877478.706712,495
1765877478.70768,495
1765877478.70869,495
1765877478.709692,495
1765877478.710685,495
1765877478.711682,495
1765877478.712718,495
1765877478.713728,495
1765877478.714726,496
1765877478.7157178,496
1765877478.7167318,496
1765877478.717737,496
1765877478.718712,495
1765877478.719706,495
1765877478.7207308,495
1765877478.721737,496
1765877478.722722,495
1765877478.723726,495
1765877478.72474,496
1765877478.725724,495
1765877478.726727,495
1765877478.727744,495
1765877478.728776,495
1765877478.729743,495
1765877478.730765,495
1765877478.731769,495
1765877478.732765,495
1765877478.7337668,495
1765877478.7347698,495
1765877478.7357728,495
1765877478.736761,495
1765877478.737792,495
1765877478.7387898,495
1765877478.739787,494
1765877478.740789,494
1765877478.741787,495
1765877478.7427998,495
1765877478.743841,495
1765877478.744811,495
1765877478.745827,495
1765877478.7467918,495
1765877478.747825,495
1765877478.748796,495
1765877478.749793,495
1765877478.7508101,495
1765877478.751808,495
1765877478.752822,495
1765877478.753817,495
1765877478.754851,495
1765877478.755815,495
1765877478.756831,495
1765877478.757848,495
1765877478.758861,495
1765877478.759843,496
1765877478.7608361,495
1765877478.7618198,495
1765877478.76284,495
1765877478.7638369,495
1765877478.7648482,495
1765877478.765835,495
1765877478.766837,495
1765877478.767841,495
1765877478.768866,495
1765877478.769849,495
1765877478.7708821,495
1765877478.7718558,495
1765877478.772862,495
1765877478.773855,495
1765877478.7748501,495
1765877478.775873,495
1765877478.7768478,495
1765877478.777867,494
1765877478.778888,495
1765877478.779905,495
1765877478.780886,495
1765877478.7818902,495
1765877478.7828858,495
1765877478.783912,495
1765877478.784919,495
1765877478.785923,495
1765877478.786931,495
1765877478.787925,495
1765877478.788922,495
1765877478.789907,495
1765877478.790907,495
1765877478.7919092,495
1765877478.79291,495
1765877478.793917,495
1765877478.794914,496
1765877478.795923,496
1765877478.796941,495
1765877478.797924,495
1765877478.7989361,495
1765877478.799946,495
1765877478.8009448,495
1765877478.801955,496
1765877478.80295,495
1765877478.803942,496
1765877478.80495,495
1765877478.805936,495
1765877478.8069482,495
1765877478.807945,495
1765877478.8089778,495
1765877478.809959,495
1765877478.810986,495
1765877478.811968,495
1765877478.812981,495
1765877478.813984,496
1765877478.8149729,495
1765877478.8159611,495
1765877478.816996,495
1765877478.8179798,495
1765877478.818979,495
1765877478.819977,494
1765877478.821003,495
1765877478.822026,495
1765877478.822996,496
1765877478.8239942,495
1765877478.825017,495
1765877478.8260229,495
1765877478.827051,495
1765877478.828099,495
1765877478.8290381,496
1765877478.8300421,496
1765877478.831033,496
1765877478.83203,495
1765877478.833039,495
1765877478.834034,495
1765877478.8350332,496
1765877478.8360288,495
1765877478.8370419,495
1765877478.838043,495
1765877478.8390772,496
1765877478.8400772,496
1765877478.841075,496
1765877478.8420742,495
1765877478.843081,495
1765877478.8440619,495
1765877478.845047,496
1765877478.846084,495
1765877478.847056,495
1765877478.848075,495
1765877478.849061,496
1765877478.850074,495
1765877478.8510761,495
1765877478.852077,495
1765877478.8530939,495
1765877478.8541,495
1765877478.8550909,496
1765877478.8560908,496
1765877478.857099,496
1765877478.8581052,496
1765877478.859104,497
1765877478.8601038,497
1765877478.861109,497
1765877478.862118,497
1765877478.863124,497
1765877478.864119,496
1765877478.865128,496
1765877478.866136,495
1765877478.8671339,496
1765877478.868138,496
1765877478.86914,496
1765877478.870322,496
1765877478.8712032,495
1765877478.872183,495
1765877478.873163,495
1765877478.8742442,495
1765877478.8752398,495
1765877478.876235,495
1765877478.877218,495
1765877478.878229,494
1765877478.879253,495
1765877478.8802402,494
1765877478.881244,495
1765877478.8822641,496
1765877478.883233,497
1765877478.884233,495
1765877478.885219,495
1765877478.886227,496
1765877478.887239,497
1765877478.888214,497
1765877478.889245,497
1765877478.890239,496
1765877478.8912268,496
1765877478.892229,495
1765877478.8932118,496
1765877478.8942158,496
1765877478.895226,496
1765877478.896228,496
1765877478.897231,496
1765877478.898219,496
1765877478.899227,496
1765877478.90021,496
1765877478.901214,496
1765877478.9022248,496
1765877478.903241,495
1765877478.904256,495
1765877478.905259,495
1765877478.9062421,498
1765877478.907238,500
1765877478.9082592,500
1765877478.90927,503
1765877478.91027,503
1765877478.911328,503
1765877478.912292,503
1765877478.913276,502
1765877478.9142778,499
1765877478.915285,495
1765877478.916286,495
1765877478.91728,495
1765877478.918282,493
1765877478.9192672,493
1765877478.920275,494
1765877478.9213,495
1765877478.922302,495
1765877478.9232872,496
1765877478.924282,497
1765877478.925295,497
1765877478.926303,497
1765877478.927306,498
1765877478.928302,496
1765877478.9293282,495
1765877478.930322,496
1765877478.9313211,495
1765877478.932318,495
1765877478.933304,494
1765877478.934318,494
1765877478.935328,495
1765877478.936327,496
1765877478.937335,496
1765877478.9383419,498
1765877478.939331,499
1765877478.9403331,502
1765877478.941346,505
1765877478.942345,509
1765877478.943338,509
1765877478.9443462,509
1765877478.945351,507
1765877478.9463658,504
1765877478.9473522,499
1765877478.948361,495
1765877478.9493608,499
1765877478.950367,499
1765877478.951355,494
1765877478.9523818,491
1765877478.953413,491
1765877478.954431,490
1765877478.955384,495
1765877478.956373,497
1765877478.957383,499
1765877478.958379,501
1765877478.959393,499
1765877478.960387,497
1765877478.961401,494
1765877478.962403,493
1765877478.963395,495
1765877478.964395,496
1765877478.9654028,497
1765877478.966408,499
1765877478.967413,496
1765877478.968415,496
1765877478.9694269,497
1765877478.970433,497
1765877478.971432,501
1765877478.972446,506
1765877478.973427,507
1765877478.974425,509
1765877478.975436,509
1765877478.9764469,510
1765877478.977437,515
1765877478.9784489,513
1765877478.979454,509
1765877478.9804502,493
1765877478.981448,487
1765877478.982464,488
1765877478.9834602,492
1765877478.984454,495
1765877478.985446,502
1765877478.98647,508
1765877478.9874601,511
1765877478.988468,508
1765877478.989472,506
1765877478.990477,509
1765877478.9914932,502
1765877478.992494,494
1765877478.993506,493
1765877478.9945018,496
1765877478.995538,497
1765877478.996541,493
1765877478.997511,487
1765877478.9984992,489
1765877478.999509,492
1765877479.000521,494
1765877479.001507,495
1765877479.002512,496
1765877479.003555,494
1765877479.004547,492
1765877479.005554,492
1765877479.006528,495
1765877479.007547,500
1765877479.008537,503
1765877479.00953,506
1765877479.0105321,513
1765877479.011543,512
1765877479.0125482,513
1765877479.013551,518
1765877479.0145652,517
1765877479.015543,502
1765877479.016549,487
1765877479.017552,487
1765877479.018569,487
1765877479.0195699,492
1765877479.02057,495
1765877479.021569,497
1765877479.0225658,497
1765877479.023573,499
1765877479.024579,499
1765877479.025583,493
1765877479.026588,490
1765877479.0275981,492
1765877479.028605,496
1765877479.0295959,499
1765877479.030586,501
1765877479.0315971,503
1765877479.032622,507
1765877479.033607,505
1765877479.034604,499
1765877479.0356202,501
1765877479.0366368,503
1765877479.0376499,502
1765877479.038651,495
1765877479.039639,491
1765877479.0406358,493
1765877479.041644,491
1765877479.042645,490
1765877479.0436218,491
1765877479.0446332,492
1765877479.0456479,493
1765877479.0466812,493
1765877479.047647,495
1765877479.048656,495
1765877479.049658,496
1765877479.050646,497
1765877479.05165,499
1765877479.0526621,502
1765877479.053673,506
1765877479.054662,506
1765877479.055666,510
1765877479.056673,505
1765877479.057663,496
1765877479.058679,488
1765877479.059675,492
1765877479.060679,497
1765877479.061693,495
1765877479.0627031,498
1765877479.063684,498
1765877479.064699,493
1765877479.0657122,494
1765877479.066695,498
1765877479.067703,495
1765877479.068707,496
1765877479.0697129,496
1765877479.0707269,498
1765877479.0717099,495
1765877479.0727308,495
1765877479.0737169,498
1765877479.074719,499
1765877479.075711,501
1765877479.0767412,499
1765877479.077756,501
1765877479.0787609,498
1765877479.079803,497
1765877479.080768,501
1765877479.081744,503
1765877479.0827441,501
1765877479.0837429,496
1765877479.084746,497
1765877479.0857558,495
1765877479.0867798,492
1765877479.08775,496
1765877479.088793,500
1765877479.089765,501
1765877479.090761,501
1765877479.091774,503
1765877479.092772,500
1765877479.093793,490
1765877479.094805,491
1765877479.095816,497
1765877479.09681,498
1765877479.0978088,499
1765877479.098788,499
1765877479.099806,496
1765877479.100805,495
1765877479.1017978,496
1765877479.1027951,493
1765877479.103817,492
1765877479.1048162,494
1765877479.105807,494
1765877479.10681,493
1765877479.107816,492
1765877479.1088178,497
1765877479.109827,502
1765877479.110827,504
1765877479.1118212,505
1765877479.1128268,504
1765877479.1138308,497
1765877479.114822,491
1765877479.1158211,491
1765877479.1168451,493
1765877479.117843,495
1765877479.1188412,494
1765877479.1199539,495
1765877479.120887,496
1765877479.12187,497
1765877479.122855,498
1765877479.123841,496
1765877479.1248682,497
1765877479.125851,503
1765877479.126847,509
1765877479.127854,511
1765877479.1288729,508
1765877479.1298828,504
1765877479.1308732,500
1765877479.131901,495
1765877479.132886,485
1765877479.133881,489
1765877479.134882,491
1765877479.135875,492
1765877479.1368918,491
1765877479.13789,493
1765877479.138906,494
1765877479.1399019,495
1765877479.140888,495
1765877479.1419241,494
1765877479.1429381,494
1765877479.1439412,494
1765877479.144959,496
1765877479.145951,497
1765877479.146963,495
1765877479.147959,497
1765877479.148947,495
1765877479.149939,496
1765877479.150964,496
1765877479.1519418,496
1765877479.152958,495
1765877479.153951,494
1765877479.1549718,494
1765877479.1559832,494
1765877479.156946,495
1765877479.15796,495
1765877479.1589918,496
1765877479.159997,496
1765877479.161022,499
1765877479.1620858,500
1765877479.16305,502
1765877479.164068,502
1765877479.164991,499
1765877479.165985,494
1765877479.166968,498
1765877479.16798,499
1765877479.168973,498
1765877479.1699772,497
1765877479.170977,496
1765877479.171984,490
1765877479.172988,491
1765877479.173991,495
1765877479.174981,495
1765877479.17599,494
1765877479.177015,496
1765877479.178068,495
1765877479.179005,494
1765877479.180007,494
1765877479.181003,495
1765877479.182017,495
1765877479.183017,494
1765877479.1840131,495
1765877479.185023,499
1765877479.186016,502
1765877479.1870341,504
1765877479.188052,504
1765877479.1890419,504
1765877479.190042,501
1765877479.1910431,494
1765877479.192069,497
1765877479.1930501,496
1765877479.194029,496
1765877479.1950452,491
1765877479.19606,491
1765877479.197056,494
1765877479.198071,497
1765877479.199073,495
1765877479.2000809,497
1765877479.201076,500
1765877479.202085,500
1765877479.203103,499
1765877479.2040992,500
1765877479.2051,500
1765877479.206105,498
1765877479.2070882,494
1765877479.2080908,492
1765877479.2090921,496
1765877479.210104,498
1765877479.211086,497
1765877479.212117,496
1765877479.213121,496
1765877479.2141209,497
1765877479.215111,495
1765877479.2161121,492
1765877479.2172842,491
1765877479.2181382,493
1765877479.2191172,492
1765877479.2201889,493
1765877479.2212129,493
1765877479.222265,494
1765877479.2232552,496
1765877479.224169,497
1765877479.225245,498
1765877479.2261498,498
1765877479.227262,496
1765877479.228287,497
1765877479.229293,496
1765877479.2302651,495
1765877479.2312582,495
1765877479.232251,495
1765877479.233239,498
1765877479.2342331,497
1765877479.235255,495
1765877479.236216,496
1765877479.23723,494
1765877479.238393,494
1765877479.239244,494
1765877479.240244,493
1765877479.241229,494
1765877479.2422662,494
1765877479.24326,495
1765877479.244264,495
1765877479.245389,495
1765877479.246327,495
1765877479.247286,495
1765877479.248256,496
1765877479.249265,498
1765877479.2502232,501
1765877479.2512221,506
1765877479.252218,511
1765877479.253243,510
1765877479.2542348,501
1765877479.2552378,488
1765877479.2562292,488
1765877479.257261,491
1765877479.258264,492
1765877479.259317,492
1765877479.2603068,492
1765877479.261292,494
1765877479.262301,493
1765877479.2632608,494
1765877479.264269,494
1765877479.265281,494
1765877479.266283,495
1765877479.267243,495
1765877479.268268,494
1765877479.269283,494
1765877479.270304,495
1765877479.271293,495
1765877479.272305,495
1765877479.2733219,497
1765877479.274276,498
1765877479.275307,497
1765877479.276308,497
1765877479.277311,496
1765877479.27832,494
1765877479.279346,494
1765877479.2803452,493
1765877479.281336,494
1765877479.282321,494
1765877479.283322,495
1765877479.284331,496
1765877479.2853189,495
1765877479.2863302,494
1765877479.28735,494
1765877479.2884102,494
1765877479.289341,496
1765877479.290345,497
1765877479.291368,498
1765877479.292375,500
1765877479.293345,507
1765877479.294347,509
1765877479.295336,515
1765877479.296373,517
1765877479.297346,510
1765877479.2983549,501
1765877479.29937,497
1765877479.3003478,497
1765877479.301388,495
1765877479.30259,487
1765877479.3034182,483
1765877479.304375,484
1765877479.3053849,484
1765877479.3063831,488
1765877479.3073978,492
1765877479.3084118,494
1765877479.309386,494
1765877479.310394,493
1765877479.311397,493
1765877479.312408,493
1765877479.313427,494
1765877479.314434,494
1765877479.315475,494
1765877479.316431,496
1765877479.3173969,495
1765877479.3184052,494
1765877479.3193758,494
1765877479.320415,495
1765877479.321425,494
1765877479.3224268,494
1765877479.323435,495
1765877479.324445,495
1765877479.325427,495
1765877479.326431,494
1765877479.327434,495
1765877479.3284512,494
1765877479.329503,495
1765877479.330473,495
1765877479.3315609,496
1765877479.332463,496
1765877479.333473,496
1765877479.334471,496
1765877479.3354409,497
1765877479.336469,496
1765877479.3374689,496
1765877479.338472,497
1765877479.3394701,496
1765877479.3404748,496
1765877479.341473,495
1765877479.3424609,496
1765877479.3435268,496
1765877479.344497,497
1765877479.345498,496
1765877479.346477,498
1765877479.3474638,498
1765877479.348473,499
1765877479.349498,500
1765877479.350485,497
1765877479.351475,496
1765877479.352476,498
1765877479.353517,498
1765877479.354512,499
1765877479.355526,498
1765877479.356509,495
1765877479.357506,495
1765877479.358506,497
1765877479.359514,495
1765877479.360502,493
1765877479.361533,493
1765877479.362546,492
1765877479.363536,495
1765877479.364512,496
1765877479.3655229,496
1765877479.3665438,494
1765877479.367522,495
1765877479.368542,497
1765877479.3695931,497
1765877479.370655,498
1765877479.371608,497
1765877479.372562,494
1765877479.373541,497
1765877479.374557,499
1765877479.375537,499
1765877479.376539,498
1765877479.377567,494
1765877479.378568,494
1765877479.379586,496
1765877479.380594,493
1765877479.381581,492
1765877479.382612,494
1765877479.3836129,493
1765877479.384696,494
1765877479.385618,494
1765877479.386629,494
1765877479.387653,494
1765877479.38864,494
1765877479.389627,494
1765877479.390623,495
1765877479.3916538,494
1765877479.392639,495
1765877479.3936498,494
1765877479.394675,495
1765877479.395654,495
1765877479.396618,494
1765877479.39766,494
1765877479.3986619,495
1765877479.399659,495
1765877479.400657,495
1765877479.401675,494
1765877479.402673,495
1765877479.4037151,495
1765877479.4046469,494
1765877479.40566,495
1765877479.406636,495
1765877479.407678,495
1765877479.4086819,495
1765877479.409685,495
1765877479.410763,496
1765877479.411742,498
1765877479.412705,499
1765877479.4137769,501
1765877479.41467,504
1765877479.415713,503
1765877479.416779,502
1765877479.4177148,500
1765877479.4187,496
1765877479.419717,495
1765877479.420725,498
1765877479.42173,498
1765877479.422712,495
1765877479.423717,491
1765877479.4247339,491
1765877479.4257128,490
1765877479.426743,492
1765877479.427736,493
1765877479.4287481,493
1765877479.4299278,494
1765877479.430752,494
1765877479.431743,494
1765877479.4327471,495
1765877479.43376,494
1765877479.4347389,495
1765877479.4357388,497
1765877479.436754,501
1765877479.4378781,503
1765877479.4387689,505
1765877479.43974,504
1765877479.440748,495
1765877479.441751,488
1765877479.442724,489
1765877479.443765,494
1765877479.4448152,493
1765877479.445908,492
1765877479.446769,493
1765877479.447784,494
1765877479.44875,494
1765877479.4497879,494
1765877479.450794,494
1765877479.451794,494
1765877479.452804,494
1765877479.45389,494
1765877479.454821,494
1765877479.4557922,494
1765877479.456799,494
1765877479.457778,495
1765877479.458774,495
1765877479.4597938,494
1765877479.4607968,495
1765877479.461795,497
1765877479.462811,500
1765877479.463798,503
1765877479.4647942,502
1765877479.465802,502
1765877479.466848,501
1765877479.467817,493
1765877479.4687989,492
1765877479.469795,491
1765877479.470796,492
1765877479.471821,493
1765877479.4728372,494
1765877479.4738119,493
1765877479.474807,493
1765877479.4758132,494
1765877479.476822,495
1765877479.477846,494
1765877479.478843,494
1765877479.4798322,494
1765877479.480829,495
1765877479.481843,495
1765877479.4828641,495
1765877479.483872,495
1765877479.484858,495
