timestamp,emg_value
1765877600.6565812,497
1765877600.6566489,497
1765877600.6566641,498
1765877600.656678,497
1765877600.65669,498
1765877600.656704,497
1765877600.656717,497
1765877600.6567302,497
1765877600.6567428,497
1765877600.656756,497
1765877600.656768,497
1765877600.656781,497
1765877600.656794,498
1765877600.656807,498
1765877600.6568189,497
1765877600.656832,497
1765877600.656845,498
1765877600.6568582,498
1765877600.6568708,497
1765877600.656884,497
1765877600.656896,497
1765877600.656909,497
1765877600.6569211,497
1765877600.6569421,498
1765877600.6569548,497
1765877600.656974,499
1765877600.6569889,501
1765877600.657002,500
1765877600.657015,500
1765877600.6570282,499
1765877600.6570408,499
1765877600.657054,497
1765877600.6570659,496
1765877600.6570802,497
1765877600.657092,495
1765877600.657105,494
1765877600.6571178,496
1765877600.657131,498
1765877600.657144,498
1765877600.6571572,498
1765877600.6571698,499
1765877600.657183,500
1765877600.657196,500
1765877600.6572092,499
1765877600.6572218,496
1765877600.657234,493
1765877600.657247,496
1765877600.65726,496
1765877600.657273,496
1765877600.657286,496
1765877600.657299,497
1765877600.657314,497
1765877600.6573288,497
1765877600.657343,498
1765877600.657355,497
1765877600.6573682,497
1765877600.657381,498
1765877600.657394,497
1765877600.657407,497
1765877600.657419,498
1765877600.657432,498
1765877600.6574452,498
1765877600.6574569,497
1765877600.6574678,498
1765877600.6574788,498
1765877600.657556,496
1765877600.657567,497
1765877600.657578,498
1765877600.657589,497
1765877600.657601,498
1765877600.657612,497
1765877600.657623,497
1765877600.657634,497
1765877600.657645,497
1765877600.657656,498
1765877600.6576672,498
1765877600.6576781,498
1765877600.657722,497
1765877600.657738,497
1765877600.657751,497
1765877600.657762,498
1765877600.657773,497
1765877600.657784,497
1765877600.6577952,497
1765877600.6578062,497
1765877600.6578171,497
1765877600.657828,497
1765877600.657839,498
1765877600.65785,498
1765877600.657862,497
1765877600.657873,497
1765877600.657884,497
1765877600.6578948,497
1765877600.657911,497
1765877600.6579242,497
1765877600.6579351,498
1765877600.6579468,498
1765877600.6579578,498
1765877600.657969,497
1765877600.65798,497
1765877600.657991,498
1765877600.6580029,498
1765877600.658014,497
1765877600.658025,497
1765877600.658039,498
1765877600.6580522,498
1765877600.6580632,497
1765877600.6580741,497
1765877600.658085,497
1765877600.658158,498
1765877600.658169,498
1765877600.65818,497
1765877600.6581912,497
1765877600.6582022,498
1765877600.6582131,499
1765877600.658224,500
1765877600.6582348,501
1765877600.658247,502
1765877600.658258,501
1765877600.658269,500
1765877600.65828,495
1765877600.6582909,497
1765877600.658302,497
1765877600.658313,496
1765877600.658324,497
1765877600.658335,496
1765877600.658346,497
1765877600.658358,497
1765877600.658369,497
1765877600.658391,496
1765877600.658402,495
1765877600.658418,497
1765877600.658429,496
1765877600.6584399,497
1765877600.658452,496
1765877600.658463,497
1765877600.658474,497
1765877600.658485,496
1765877600.658496,497
1765877600.658508,497
1765877600.658519,496
1765877600.65853,496
1765877600.658541,497
1765877600.6585522,498
1765877600.6585631,497
1765877600.658574,499
1765877600.658585,500
1765877600.6585972,501
1765877600.6586082,499
1765877600.658619,496
1765877600.65863,497
1765877600.6586409,498
1765877600.658653,499
1765877600.658664,498
1765877600.658675,497
1765877600.658686,499
1765877600.658698,499
1765877600.658711,497
1765877600.658723,498
1765877600.658734,497
1765877600.658745,497
1765877600.6587572,496
1765877600.658768,496
1765877600.658779,496
1765877600.6587899,497
1765877600.6588008,499
1765877600.6588118,499
1765877600.658824,499
1765877600.658835,499
1765877600.658846,498
1765877600.658858,495
1765877600.658869,496
1765877600.658881,496
1765877600.6589031,496
1765877600.658914,497
1765877600.658925,497
1765877600.658936,497
1765877600.658947,498
1765877600.6589582,498
1765877600.65897,498
1765877600.658981,498
1765877600.658992,497
1765877600.6590028,497
1765877600.6590168,498
1765877600.659029,498
1765877600.65904,499
1765877600.659051,499
1765877600.659062,498
1765877600.659073,496
1765877600.659084,496
1765877600.659095,497
1765877600.659106,498
1765877600.659117,497
1765877600.659128,497
1765877600.6591392,497
1765877600.659151,498
1765877600.659162,498
1765877600.659173,498
1765877600.6591842,498
1765877600.659195,497
1765877600.659206,498
1765877600.659217,497
1765877600.659229,498
1765877600.65924,497
1765877600.659251,497
1765877600.659262,497
1765877600.659273,497
1765877600.6592839,497
1765877600.659296,497
1765877600.659307,498
1765877600.659322,497
1765877600.6593332,498
1765877600.659344,498
1765877600.659355,498
1765877600.659366,497
1765877600.6593769,498
1765877600.6593878,498
1765877600.6594,498
1765877600.659411,498
1765877600.659422,500
1765877600.659433,500
1765877600.6594439,499
1765877600.659456,498
1765877600.659467,495
1765877600.659478,497
1765877600.659489,497
1765877600.6595001,496
1765877600.659511,497
1765877600.659523,497
1765877600.659534,497
1765877600.6595452,497
1765877600.6595562,497
1765877600.659567,497
1765877600.659586,497
1765877600.6595972,498
1765877600.6596081,498
1765877600.659622,497
1765877600.6596339,495
1765877600.6596448,496
1765877600.659656,499
1765877600.659668,500
1765877600.659679,501
1765877600.65969,501
1765877600.659702,498
1765877600.659713,496
1765877600.659724,495
1765877600.659735,497
1765877600.659746,497
1765877600.659758,497
1765877600.659769,499
1765877600.65978,500
1765877600.659791,500
1765877600.6598022,498
1765877600.659814,496
1765877600.6598248,496
1765877600.6598358,498
1765877600.659847,497
1765877600.659858,497
1765877600.659869,497
1765877600.65988,498
1765877600.659892,498
1765877600.659903,497
1765877600.659916,497
1765877600.659929,497
1765877600.65994,498
1765877600.6599522,499
1765877600.659963,499
1765877600.6599739,498
1765877600.6599848,498
1765877600.659997,497
1765877600.660008,497
1765877600.660019,498
1765877600.66003,498
1765877600.6600409,498
1765877600.660053,498
1765877600.660064,497
1765877600.6600761,497
1765877600.660087,498
1765877600.660098,498
1765877600.660109,498
1765877600.66012,497
1765877600.660131,497
1765877600.6601431,497
1765877600.660154,497
1765877600.6601658,497
1765877600.660177,498
1765877600.660188,498
1765877600.6601999,498
1765877600.6602108,498
1765877600.660228,497
1765877600.6602392,498
1765877600.660251,497
1765877600.6602619,497
1765877600.6602728,498
1765877600.660285,497
1765877600.660296,498
1765877600.660307,497
1765877600.660318,498
1765877600.6603289,498
1765877600.660341,498
1765877600.660352,497
1765877600.660363,498
1765877600.660374,498
1765877600.660386,498
1765877600.660397,498
1765877600.660408,498
1765877600.660419,499
1765877600.6604311,499
1765877600.660442,498
1765877600.660463,499
1765877600.660474,499
1765877600.660485,499
1765877600.6604958,499
1765877600.660507,500
1765877600.660519,498
1765877600.660533,498
1765877600.660544,499
1765877600.6605551,498
1765877600.660567,498
1765877600.660578,499
1765877600.660589,500
1765877600.6606,499
1765877600.660612,499
1765877600.660623,499
1765877600.660634,498
1765877600.660646,496
1765877600.660657,497
1765877600.660668,498
1765877600.6606789,498
1765877600.6606898,498
1765877600.660701,499
1765877600.660713,496
1765877600.660724,497
1765877600.660735,498
1765877600.660747,497
1765877600.660758,498
1765877600.660769,497
1765877600.6607811,498
1765877600.660792,498
1765877600.660803,499
1765877600.660814,499
1765877600.6608279,499
1765877600.66084,497
1765877600.660852,497
1765877600.660863,496
1765877600.660874,496
1765877600.660885,498
1765877600.660896,498
1765877600.660907,498
1765877600.660919,497
1765877600.6609302,497
1765877600.6609411,498
1765877600.660952,497
1765877600.660964,498
1765877600.6609752,496
1765877600.6609862,497
1765877600.6609972,498
1765877600.6610088,497
1765877600.6610198,497
1765877600.661031,497
1765877600.661042,498
1765877600.661054,497
1765877600.6610649,497
1765877600.661076,497
1765877600.661087,497
1765877600.661098,497
1765877600.66111,498
1765877600.661123,497
1765877600.661136,497
1765877600.6611469,498
1765877600.6611578,497
1765877600.6611688,498
1765877600.66118,498
1765877600.661192,498
1765877600.661203,498
1765877600.6612139,498
1765877600.6612248,498
1765877600.661236,497
1765877600.661248,497
1765877600.661259,497
1765877600.66127,497
1765877600.661281,496
1765877600.661293,497
1765877600.661304,497
1765877600.661315,497
1765877600.6613262,497
1765877600.6613371,497
1765877600.661348,497
1765877600.661359,497
1765877600.661371,497
1765877600.661382,496
1765877600.661393,497
1765877600.661404,497
1765877600.6614149,497
1765877600.6614301,496
1765877600.661442,496
1765877600.661453,497
1765877600.661464,497
1765877600.6614752,498
1765877600.6614861,498
1765877600.661497,498
1765877600.661512,497
1765877600.6615229,497
1765877600.661535,497
1765877600.661546,497
1765877600.661557,498
1765877600.661568,497
1765877600.661579,497
1765877600.66159,497
1765877600.661601,497
1765877600.661612,497
1765877600.661623,497
1765877600.661634,497
1765877600.6616452,497
1765877600.661657,497
1765877600.661668,497
1765877600.661679,497
1765877600.66169,497
1765877600.6617012,497
1765877600.661713,497
1765877600.661727,497
1765877600.661739,497
1765877600.66175,497
1765877600.661761,497
1765877600.661772,497
1765877600.661783,497
1765877600.661794,497
1765877600.6618052,497
1765877600.6618161,498
1765877600.661828,497
1765877600.661839,497
1765877600.6618502,497
1765877600.6618612,497
1765877600.6618729,497
1765877600.6618838,498
1765877600.6618948,497
1765877600.661907,497
1765877600.661918,497
1765877600.661929,497
1765877600.6619399,497
1765877600.661951,497
1765877600.661962,497
1765877600.661974,497
1765877600.661985,497
1765877600.6619961,497
1765877600.662007,497
1765877600.6620212,497
1765877600.662034,497
1765877600.662045,497
1765877600.662056,497
1765877600.662068,497
1765877600.6620789,497
1765877600.66209,497
1765877600.662101,497
1765877600.662112,496
1765877600.662123,497
1765877600.662134,497
1765877600.6621451,497
1765877600.662157,497
1765877600.662168,497
1765877600.662179,497
1765877600.6621902,497
1765877600.6622012,497
1765877600.6622121,497
1765877600.6622238,497
1765877600.6622348,497
1765877600.662246,498
1765877600.662257,497
1765877600.662268,497
1765877600.662279,496
1765877600.6622899,497
1765877600.662302,497
1765877600.662316,497
1765877600.6623292,497
1765877600.6623402,497
1765877600.6623511,497
1765877600.662362,497
1765877600.662373,496
1765877600.662385,497
1765877600.662396,497
1765877600.662407,496
1765877600.662418,497
1765877600.6624289,497
1765877600.662441,497
1765877600.662452,497
1765877600.662463,496
1765877600.662474,497
1765877600.662485,497
1765877600.662496,497
1765877600.662508,497
1765877600.662519,497
1765877600.66253,497
1765877600.6625412,497
1765877600.662552,497
1765877600.662564,496
1765877600.662575,497
1765877600.6625862,496
1765877600.6625972,497
1765877600.662608,496
1765877600.662624,497
1765877600.662635,496
1765877600.662646,497
1765877600.662658,496
1765877600.662669,497
1765877600.6626801,496
1765877600.662691,497
1765877600.662702,497
1765877600.662713,497
1765877600.662724,497
1765877600.662735,497
1765877600.6627462,497
1765877600.6627572,497
1765877600.6627688,496
1765877600.6627798,497
1765877600.662791,497
1765877600.662802,497
1765877600.662813,497
1765877600.6628249,497
1765877600.662836,497
1765877600.662847,497
1765877600.662858,497
1765877600.66287,496
1765877600.662883,496
1765877600.662894,497
1765877600.662905,497
1765877600.662921,497
1765877600.662933,497
1765877600.662944,497
1765877600.662955,497
1765877600.662967,497
1765877600.662978,497
1765877600.6629891,497
1765877600.663,497
1765877600.663012,497
1765877600.6630871,496
1765877600.663177,497
1765877600.663191,496
1765877600.663203,497
1765877600.6632152,497
1765877600.6632261,497
1765877600.663237,497
1765877600.6632488,497
1765877600.66326,496
1765877600.663271,497
1765877600.663282,496
1765877600.663293,497
1765877600.6633039,497
1765877600.663315,497
1765877600.663327,497
1765877600.663338,497
1765877600.663349,496
1765877600.6633642,497
1765877600.6633768,497
1765877600.663388,496
1765877600.6633978,496
1765877600.663407,496
1765877600.663417,497
1765877600.663427,497
1765877600.663436,498
1765877600.663446,497
1765877600.663456,497
1765877600.663466,497
1765877600.663476,497
1765877600.663486,496
1765877600.663496,497
1765877600.663506,497
1765877600.6635149,497
1765877600.663525,496
1765877600.663535,496
1765877600.663546,496
1765877600.6635551,497
1765877600.6635652,497
1765877600.663639,497
1765877600.6636531,496
1765877600.663664,497
1765877600.663674,497
1765877600.6636841,497
1765877600.6636941,497
1765877600.663709,497
1765877600.663719,497
1765877600.663729,497
1765877600.66374,496
1765877600.66375,497
1765877600.66376,497
1765877600.6637702,497
1765877600.6637802,497
1765877600.66379,497
1765877600.6638,498
1765877600.66381,497
1765877600.66382,497
1765877600.66383,497
1765877600.663841,497
1765877600.663851,496
1765877600.663868,497
1765877600.663879,497
1765877600.663889,497
1765877600.663899,497
1765877600.6639092,497
1765877600.663918,497
1765877600.663928,497
1765877600.663938,497
1765877600.663948,497
1765877600.663958,497
1765877600.663969,497
1765877600.6639822,497
1765877600.663994,497
1765877600.664004,497
1765877600.664014,497
1765877600.664024,497
1765877600.6640341,497
1765877600.6640441,497
1765877600.664054,497
1765877600.664064,496
1765877600.664073,495
1765877600.664084,496
1765877600.664094,497
1765877600.664104,498
1765877600.664114,498
1765877600.664124,497
1765877600.6641338,496
1765877600.6641438,497
1765877600.664154,496
1765877600.664164,495
1765877600.664174,497
1765877600.664184,496
1765877600.664194,497
1765877600.6642041,497
1765877600.6642141,497
1765877600.664224,497
1765877600.664234,497
1765877600.664244,497
1765877600.664257,498
1765877600.664268,498
1765877600.664278,498
1765877600.664288,498
1765877600.664298,498
1765877600.664308,496
1765877600.6643178,496
1765877600.6643279,496
1765877600.6643379,496
1765877600.6643488,497
1765877600.6643589,496
1765877600.6643689,497
1765877600.664379,497
1765877600.6643891,497
1765877600.6643991,496
1765877600.66441,496
1765877600.6644201,497
1765877600.664429,497
1765877600.664439,497
1765877600.664449,497
1765877600.66446,497
1765877600.66447,497
1765877600.66448,496
1765877600.66449,497
1765877600.6645,497
1765877600.66451,497
1765877600.6645231,496
1765877600.664545,497
1765877600.664576,497
1765877600.6645901,497
1765877600.664602,497
1765877600.664612,498
1765877600.664622,498
1765877600.664632,499
1765877600.664642,498
1765877600.664652,498
1765877600.6646621,499
1765877600.664672,498
1765877600.664682,499
1765877600.664692,498
1765877600.664702,498
1765877600.664711,498
1765877600.664726,498
1765877600.664736,498
1765877600.664746,498
1765877600.664756,499
1765877600.6647658,499
1765877600.6647758,497
1765877600.6647859,498
1765877600.6647959,498
1765877600.664806,498
1765877600.6648152,497
1765877600.6648262,497
1765877600.66484,497
1765877600.66485,497
1765877600.6648588,497
1765877600.664869,497
1765877600.664879,497
1765877600.664889,497
1765877600.6648982,498
1765877600.664908,497
1765877600.664918,498
1765877600.664928,497
1765877600.664937,497
1765877600.664947,497
1765877600.664957,497
1765877600.6649668,497
1765877600.664976,497
1765877600.6649861,497
1765877600.6649961,497
1765877600.6650062,496
1765877600.6650162,497
1765877600.665026,497
1765877600.665036,497
1765877600.665046,497
1765877600.665056,497
1765877600.665066,497
1765877600.665076,497
1765877600.665086,497
1765877600.665099,497
1765877600.665111,497
1765877600.665121,498
1765877600.665131,497
1765877600.665141,498
1765877600.665151,498
1765877600.665161,498
1765877600.665171,497
1765877600.665181,497
1765877600.665191,496
1765877600.6652002,497
1765877600.66521,496
1765877600.66522,496
1765877600.66523,497
1765877600.66524,497
1765877600.66525,498
1765877600.66526,497
1765877600.66527,497
1765877600.66528,497
1765877600.6652899,497
1765877600.6653,497
1765877600.66531,497
1765877600.66532,497
1765877600.665329,497
1765877600.665339,497
1765877600.665349,497
1765877600.665359,497
1765877600.6653728,497
1765877600.665384,497
1765877600.6653938,497
1765877600.6654038,498
1765877600.6654148,497
1765877600.6654248,497
1765877600.6654358,497
1765877600.6654458,497
1765877600.665456,497
1765877600.665466,497
1765877600.665476,497
1765877600.665486,497
1765877600.6654952,497
1765877600.665505,497
1765877600.665515,497
1765877600.665525,497
1765877600.665535,497
1765877600.665545,497
1765877600.665555,497
1765877600.665565,497
1765877600.665575,497
1765877600.6655848,497
1765877600.6655948,496
1765877600.665605,496
1765877600.665615,497
1765877600.665625,497
1765877600.665637,497
1765877600.665649,497
1765877600.665659,498
1765877600.6656692,497
1765877600.6656792,497
1765877600.665689,497
1765877600.665698,497
1765877600.665709,497
1765877600.6657448,497
1765877600.665756,497
1765877600.665765,497
1765877600.665775,498
1765877600.665785,497
1765877600.665796,497
1765877600.665806,497
1765877600.665816,497
1765877600.665826,497
1765877600.665836,497
1765877600.665846,497
1765877600.665856,497
1765877600.665866,496
1765877600.665875,497
1765877600.665885,497
1765877600.665895,497
1765877600.665905,497
1765877600.6659148,497
1765877600.665925,497
1765877600.665938,497
1765877600.665948,497
1765877600.665958,497
1765877600.665967,497
1765877600.665977,497
1765877600.6659882,497
1765877600.665998,497
1765877600.6660092,497
1765877600.666019,497
1765877600.666028,497
1765877600.666038,497
1765877600.666048,498
1765877600.666058,497
1765877600.666069,497
1765877600.666079,497
1765877600.666089,497
1765877600.6661,497
1765877600.66611,497
1765877600.66612,497
1765877600.666131,497
1765877600.666141,497
1765877600.6661508,498
1765877600.6661608,498
1765877600.6661708,497
1765877600.666181,497
1765877600.666191,497
1765877600.6662028,497
1765877600.666215,497
1765877600.666225,497
1765877600.666235,497
1765877600.6662452,496
1765877600.666255,497
1765877600.666265,497
1765877600.666275,497
1765877600.666284,497
1765877600.666294,497
1765877600.666304,497
1765877600.666314,497
1765877600.666324,497
1765877600.666334,497
1765877600.666344,496
1765877600.666354,497
1765877600.6663628,497
1765877600.666373,498
1765877600.666383,497
1765877600.666393,497
1765877600.666403,497
1765877600.666413,497
1765877600.666423,497
1765877600.666433,497
1765877600.666443,498
1765877600.666453,497
1765877600.666463,497
1765877600.666476,497
1765877600.666486,497
1765877600.666496,497
1765877600.666506,497
1765877600.666516,497
1765877600.6665258,497
1765877600.666535,497
1765877600.666545,497
1765877600.666555,497
1765877600.6665652,497
1765877600.6665752,497
1765877600.666584,497
1765877600.666594,497
1765877600.666604,496
1765877600.666614,497
1765877600.666624,497
1765877600.666634,497
1765877600.6666439,497
1765877600.6666539,497
1765877600.666664,498
1765877600.666674,497
1765877600.666683,497
1765877600.666694,497
1765877600.666704,497
1765877600.6667142,497
1765877600.6667252,497
1765877600.666739,497
1765877600.66675,497
1765877600.66676,497
1765877600.66677,497
1765877600.66678,497
1765877600.6667898,496
1765877600.6668,497
1765877600.66681,497
1765877600.66682,497
1765877600.666829,497
1765877600.6668391,497
1765877600.6668491,498
1765877600.666859,498
1765877600.666869,497
1765877600.666879,497
1765877600.666889,497
1765877600.666898,497
1765877600.6669078,497
1765877600.6669178,497
1765877600.666928,496
1765877600.666938,497
1765877600.6669471,497
1765877600.6669571,498
1765877600.6669672,497
1765877600.666977,498
1765877600.666987,498
1765877600.666999,497
1765877600.667011,498
1765877600.66702,497
1765877600.66703,497
1765877600.66704,497
1765877600.66705,497
1765877600.66706,497
1765877600.667069,497
1765877600.667079,497
1765877600.667089,497
1765877600.667099,497
1765877600.667109,497
1765877600.667119,497
1765877600.667128,497
1765877600.667138,498
1765877600.667148,497
1765877600.6671581,498
1765877600.667168,498
1765877600.667177,497
1765877600.667187,497
1765877600.667197,497
1765877600.667207,497
1765877600.6672158,497
1765877600.667226,498
1765877600.667236,498
1765877600.667246,497
1765877600.667258,498
1765877600.6672692,497
1765877600.66728,496
1765877600.6672902,497
1765877600.667299,497
1765877600.667309,497
1765877600.667319,498
1765877600.667329,498
1765877600.667339,497
1765877600.667349,497
1765877600.6673589,497
1765877600.667369,498
1765877600.667379,497
1765877600.667388,497
1765877600.667398,497
1765877600.667408,497
1765877600.667418,497
1765877600.667428,497
1765877600.667438,497
1765877600.667448,497
1765877600.667458,497
1765877600.667468,497
1765877600.667477,497
1765877600.667487,496
1765877600.667497,497
1765877600.667507,497
1765877600.667517,498
1765877600.667532,498
1765877600.667542,497
1765877600.667552,497
1765877600.667562,497
1765877600.667572,498
1765877600.667582,497
1765877600.667592,496
1765877600.6676009,497
1765877600.667611,497
1765877600.6676211,497
1765877600.6676311,497
1765877600.6676412,497
1765877600.6676512,498
1765877600.667661,497
1765877600.667671,497
1765877600.667681,497
1765877600.667691,497
1765877600.667701,498
1765877600.667711,497
1765877600.667721,497
1765877600.6677608,497
1765877600.667864,497
1765877600.667876,496
1765877600.667886,497
1765877600.667896,497
1765877600.667947,497
1765877600.6679978,497
1765877600.66801,497
1765877600.66802,497
1765877600.668031,497
1765877600.668041,497
1765877600.668051,497
1765877600.668061,497
1765877600.6680708,497
1765877600.6680808,497
1765877600.6680908,497
1765877600.668101,497
1765877600.6681101,497
1765877600.668121,498
1765877600.668212,497
1765877600.668231,497
1765877600.668242,497
1765877600.668252,497
1765877600.668262,497
1765877600.668272,497
1765877600.668282,497
1765877600.668292,497
1765877600.668302,497
1765877600.668312,497
1765877600.668322,497
1765877600.668332,497
1765877600.668342,497
1765877600.668355,497
1765877600.6683662,497
1765877600.668376,497
1765877600.668386,497
1765877600.668396,497
1765877600.668406,497
1765877600.668416,497
1765877600.668426,497
1765877600.668436,497
1765877600.668446,497
1765877600.6684558,497
1765877600.6684659,497
1765877600.668475,497
1765877600.6684852,497
1765877600.6684952,498
1765877600.6685052,497
1765877600.668515,497
1765877600.668525,498
1765877600.668535,498
1765877600.668545,497
1765877600.668554,498
1765877600.668565,499
1765877600.6685739,499
1765877600.6685839,499
1765877600.668594,498
1765877600.668604,498
1765877600.668614,498
1765877600.668627,498
1765877600.668637,498
1765877600.6686468,498
1765877600.6686568,499
1765877600.6686668,499
1765877600.668677,499
1765877600.668687,498
1765877600.6686962,498
1765877600.668706,498
1765877600.668716,498
1765877600.668726,497
1765877600.668736,498
1765877600.668746,497
1765877600.668756,498
1765877600.6687648,498
1765877600.6687748,498
1765877600.6687849,497
1765877600.6687949,498
1765877600.6688042,497
1765877600.6688142,497
1765877600.668824,497
1765877600.668834,498
1765877600.668844,497
1765877600.668854,497
1765877600.668864,497
1765877600.668876,497
1765877600.668888,498
1765877600.668899,498
1765877600.668909,497
1765877600.668919,497
1765877600.668929,498
1765877600.668939,497
1765877600.668949,497
1765877600.668958,497
1765877600.668968,497
1765877600.668978,498
1765877600.668988,498
1765877600.668998,497
1765877600.6690078,497
1765877600.669017,497
1765877600.669027,497
1765877600.669037,497
1765877600.669047,497
1765877600.6690571,497
1765877600.669066,497
1765877600.669076,497
1765877600.669086,497
1765877600.669096,497
1765877600.669106,498
1765877600.669117,497
1765877600.669127,497
1765877600.669137,497
1765877600.669146,497
1765877600.669159,497
1765877600.669169,498
1765877600.669179,497
1765877600.6691892,497
1765877600.669199,497
1765877600.669209,497
1765877600.669218,496
1765877600.669228,497
1765877600.669238,497
1765877600.669248,497
1765877600.669257,497
1765877600.669268,497
1765877600.669278,497
1765877600.669287,497
1765877600.669298,497
1765877600.669308,497
1765877600.669318,497
1765877600.669328,497
1765877600.6693382,497
1765877600.669348,497
1765877600.669358,497
1765877600.669369,497
1765877600.669378,497
1765877600.669386,497
1765877600.669395,497
1765877600.6694038,497
1765877600.669415,497
1765877600.669426,497
1765877600.6694348,497
1765877600.669444,497
1765877600.6694531,498
1765877600.6694632,497
1765877600.669472,497
1765877600.669481,497
1765877600.6694899,497
1765877600.669499,497
1765877600.669508,497
1765877600.669517,497
1765877600.669526,497
1765877600.669554,497
1765877600.6695628,497
1765877600.669572,497
1765877600.6695821,498
1765877600.669591,497
1765877600.6696,496
1765877600.669609,497
1765877600.669618,497
1765877600.669627,497
1765877600.669636,497
1765877600.669645,497
1765877600.6696541,497
1765877600.669663,497
1765877600.669675,497
1765877600.669685,497
1765877600.669694,497
1765877600.669703,497
1765877600.6697118,497
1765877600.6697211,497
1765877600.66973,497
1765877600.669739,497
1765877600.669748,497
1765877600.669757,498
1765877600.669766,498
1765877600.669775,497
1765877600.669784,497
1765877600.6697931,497
1765877600.669802,498
1765877600.6698098,497
1765877600.6698189,497
1765877600.6698282,497
1765877600.669837,497
1765877600.669846,497
1765877600.6698549,498
1765877600.669864,497
1765877600.669873,497
1765877600.669882,497
1765877600.669891,497
1765877600.6699,498
1765877600.669908,497
1765877600.669919,497
1765877600.66993,497
1765877600.6699378,497
1765877600.669947,497
1765877600.6699562,497
1765877600.669965,497
1765877600.669974,497
1765877600.669983,497
1765877600.669992,497
1765877600.6700008,497
1765877600.67001,496
1765877600.670018,497
1765877600.670027,497
1765877600.670036,497
1765877600.670045,497
1765877600.670054,497
1765877600.670063,497
1765877600.670072,497
1765877600.6700811,497
1765877600.67009,497
1765877600.670099,497
1765877600.670107,497
1765877600.6701162,497
1765877600.670125,497
1765877600.670134,497
1765877600.670143,497
1765877600.670153,497
1765877600.670163,497
1765877600.670172,497
1765877600.670181,497
1765877600.67019,497
1765877600.6701992,497
1765877600.670208,497
1765877600.670217,497
1765877600.6702259,497
1765877600.670235,497
1765877600.670244,497
1765877600.670252,497
1765877600.670261,498
1765877600.67027,497
1765877600.670279,497
1765877600.6702878,497
1765877600.6702971,497
1765877600.670306,497
1765877600.670315,497
1765877600.670324,497
1765877600.670333,497
1765877600.670341,497
1765877600.67035,497
1765877600.6703591,497
1765877600.670368,497
1765877600.670377,496
1765877600.6703858,497
1765877600.6703959,496
1765877600.6704068,496
1765877600.6704159,497
1765877600.6704252,497
1765877600.670433,497
1765877600.6704419,497
1765877600.670451,498
1765877600.67046,497
1765877600.670469,498
1765877600.670478,497
1765877600.670487,497
1765877600.670496,497
1765877600.670505,497
1765877600.670513,496
1765877600.6705222,497
1765877600.670531,497
1765877600.67054,497
1765877600.670549,497
1765877600.670558,497
1765877600.6705668,497
1765877600.670576,497
1765877600.6705852,497
1765877600.670594,497
1765877600.670602,496
1765877600.670611,497
1765877600.67062,497
1765877600.670631,496
1765877600.670641,497
1765877600.67065,497
1765877600.670659,496
1765877600.6706681,496
1765877600.670701,497
1765877600.67071,497
1765877600.670719,497
1765877600.670728,497
1765877600.6707368,496
1765877600.670746,497
1765877600.6707551,497
1765877600.670764,497
1765877600.670789,496
1765877600.670798,497
1765877600.6708071,497
1765877600.670816,496
1765877600.670825,497
1765877600.6708338,497
1765877600.670843,497
1765877600.6708522,496
1765877600.670861,497
1765877600.670881,497
1765877600.670891,497
1765877600.6708999,497
1765877600.670909,497
1765877600.670918,497
1765877600.67093,497
1765877600.670939,497
1765877600.670948,497
1765877600.670957,497
1765877600.670966,497
1765877600.670975,497
1765877600.670984,497
1765877600.6709929,497
1765877600.6710021,497
1765877600.67101,497
1765877600.671019,497
1765877600.671028,497
1765877600.671037,497
1765877600.6710458,497
1765877600.671055,497
1765877600.6710641,496
1765877600.671072,497
1765877600.671081,497
1765877600.67109,497
1765877600.671099,497
1765877600.671108,497
1765877600.671117,497
1765877600.671165,497
1765877600.6711738,496
1765877600.671183,497
1765877600.6711922,496
1765877600.6712031,496
1765877600.6712132,496
1765877600.671221,496
1765877600.6712298,497
1765877600.671239,497
1765877600.671248,497
1765877600.671257,497
1765877600.671266,497
1765877600.671275,497
1765877600.671284,497
1765877600.671293,496
1765877600.6713011,497
1765877600.6713102,497
1765877600.671319,497
1765877600.671328,496
1765877600.671337,497
1765877600.671346,497
1765877600.6713548,498
1765877600.671364,497
1765877600.6713731,497
1765877600.671382,497
1765877600.671391,496
1765877600.6713998,497
1765877600.671409,496
1765877600.6714182,497
1765877600.671427,497
1765877600.671438,497
1765877600.671448,497
1765877600.671457,497
1765877600.6714659,497
1765877600.671475,497
1765877600.671484,497
1765877600.671493,497
1765877600.671502,497
1765877600.671511,497
1765877600.671519,498
1765877600.6715279,497
1765877600.671537,497
1765877600.6715462,497
1765877600.671555,497
1765877600.671564,497
1765877600.671573,497
1765877600.671582,497
1765877600.6715908,497
1765877600.6716,497
1765877600.6716092,496
1765877600.671618,497
1765877600.671627,497
1765877600.6716359,496
1765877600.671645,497
1765877600.671654,497
1765877600.671663,497
1765877600.671672,496
1765877600.671683,496
1765877600.6716921,496
1765877600.671701,496
1765877600.67171,496
1765877600.6717188,497
1765877600.6717281,497
1765877600.6717372,497
1765877600.671745,497
1765877600.671754,497
1765877600.671763,496
1765877600.671772,496
1765877600.671781,497
1765877600.6717901,497
1765877600.671799,497
1765877600.671808,496
1765877600.671817,496
1765877600.671826,497
1765877600.671835,497
1765877600.671844,497
1765877600.671853,497
1765877600.6718678,497
1765877600.6718771,497
1765877600.671886,497
1765877600.671895,496
1765877600.671904,496
1765877600.671913,497
1765877600.6719239,497
1765877600.671934,497
1765877600.671943,497
1765877600.6719518,497
1765877600.671961,496
1765877600.6719701,497
1765877600.671979,498
1765877600.671988,498
1765877600.6719968,498
1765877600.672006,497
1765877600.6720152,498
1765877600.672024,498
1765877600.672033,498
1765877600.672042,498
1765877600.672051,498
1765877600.67206,497
1765877600.672068,498
1765877600.672077,498
1765877600.672086,498
1765877600.672095,498
1765877600.672104,497
1765877600.672113,498
1765877600.672122,497
1765877600.67213,498
1765877600.672139,498
1765877600.672148,498
1765877600.6721568,497
1765877600.672169,497
1765877600.672178,497
1765877600.6721869,497
1765877600.6721961,497
1765877600.672205,497
1765877600.672213,497
1765877600.672222,497
1765877600.672231,497
1765877600.672241,497
1765877600.67225,497
1765877600.6722581,497
1765877600.672267,497
1765877600.672276,497
1765877600.6722848,497
1765877600.672294,497
1765877600.6723032,497
1765877600.672312,497
1765877600.672321,497
1765877600.67233,497
1765877600.672339,496
1765877600.672349,497
1765877600.672357,497
1765877600.672367,496
1765877600.6723762,497
1765877600.672384,497
1765877600.672394,496
1765877600.672405,497
1765877600.672415,497
1765877600.672423,496
1765877600.6724322,497
1765877600.672441,497
1765877600.67245,497
1765877600.6724591,497
1765877600.672468,496
1765877600.6724758,496
1765877600.672485,496
1765877600.6724942,496
1765877600.672503,497
1765877600.672512,497
1765877600.6725209,497
1765877600.672529,497
1765877600.672538,497
1765877600.672547,497
1765877600.672556,497
1765877600.672565,496
1765877600.672574,497
1765877600.6725829,496
1765877600.672592,496
1765877600.672601,497
1765877600.67261,497
1765877600.672619,497
1765877600.672628,496
1765877600.672638,497
1765877600.672649,497
1765877600.672658,497
1765877600.672666,497
1765877600.6726751,496
1765877600.672684,497
1765877600.672693,497
1765877600.6727018,497
1765877600.672711,497
1765877600.67272,496
1765877600.672729,496
1765877600.672738,496
1765877600.672747,496
1765877600.672755,497
1765877600.6727638,496
1765877600.6727731,497
1765877600.6727822,496
1765877600.672791,496
1765877600.6728,497
1765877600.672809,497
1765877600.672817,497
1765877600.672826,497
1765877600.672835,497
1765877600.672844,496
1765877600.672852,497
1765877600.6728609,496
1765877600.67287,496
1765877600.6728818,497
1765877600.672891,496
1765877600.6729002,496
1765877600.672909,496
1765877600.672918,496
1765877600.672927,496
1765877600.672936,497
1765877600.6729448,496
1765877600.672954,497
1765877600.672962,497
1765877600.672971,496
1765877600.67298,497
1765877600.672989,497
1765877600.672998,497
1765877600.673007,497
1765877600.673015,497
1765877600.673024,497
1765877600.673033,497
1765877600.6730418,497
1765877600.6730509,497
1765877600.6730602,497
1765877600.673069,497
1765877600.673077,496
1765877600.673086,496
1765877600.673095,497
1765877600.6731038,497
1765877600.6731148,497
1765877600.673124,496
1765877600.6731331,496
1765877600.673142,496
1765877600.673151,497
1765877600.6731598,496
1765877600.673169,496
1765877600.6731782,497
1765877600.673187,497
1765877600.6731951,496
1765877600.673204,496
1765877600.673213,496
1765877600.6732218,497
1765877600.6732311,497
1765877600.67324,496
1765877600.673249,496
1765877600.673258,496
1765877600.673267,496
1765877600.6732779,496
1765877600.673287,496
1765877600.673296,496
1765877600.673304,497
1765877600.6733131,497
1765877600.673322,497
1765877600.673331,497
1765877600.6733398,496
1765877600.6733499,497
1765877600.6733599,497
1765877600.6733692,497
1765877600.673378,497
1765877600.673387,497
1765877600.6733959,497
1765877600.673404,496
1765877600.673413,496
1765877600.673422,496
1765877600.6734312,496
1765877600.67344,496
1765877600.673449,496
1765877600.6734579,497
1765877600.673467,497
1765877600.673476,497
1765877600.673484,497
1765877600.673493,497
1765877600.673502,497
1765877600.673511,496
1765877600.67352,497
1765877600.673534,497
1765877600.673543,497
1765877600.6735518,497
1765877600.673561,497
1765877600.6735702,497
1765877600.673578,497
1765877600.6735868,497
1765877600.673599,497
1765877600.6736078,497
1765877600.673617,496
1765877600.673625,497
1765877600.673634,497
1765877600.673643,497
1765877600.673652,496
1765877600.673663,496
1765877600.673672,497
1765877600.6736808,497
1765877600.67369,497
1765877600.6736991,497
1765877600.673707,497
1765877600.673716,497
1765877600.673725,497
1765877600.673734,497
1765877600.673743,497
1765877600.673752,496
1765877600.6737611,497
1765877600.67377,497
1765877600.673779,497
1765877600.6737878,497
1765877600.6737971,497
1765877600.6738062,496
1765877600.673815,496
1765877600.6738229,497
1765877600.673834,497
1765877600.6738439,496
1765877600.673853,497
1765877600.673862,496
1765877600.673871,496
1765877600.67388,497
1765877600.673889,496
1765877600.673898,497
1765877600.6739058,497
1765877600.673915,497
1765877600.6739242,496
1765877600.673933,497
1765877600.673942,497
1765877600.673951,496
1765877600.673959,496
1765877600.673968,497
1765877600.6739771,497
1765877600.673986,497
1765877600.673995,497
1765877600.674004,497
1765877600.674012,496
1765877600.674021,496
1765877600.67403,497
1765877600.6740391,497
1765877600.674048,496
1765877600.674064,497
1765877600.674075,496
1765877600.6740851,496
1765877600.674094,496
1765877600.674103,496
1765877600.674112,497
1765877600.674121,497
1765877600.674134,496
1765877600.674143,497
1765877600.674152,496
1765877600.674161,496
1765877600.67417,496
1765877600.674179,497
1765877600.6741881,497
1765877600.674197,497
1765877600.674206,497
1765877600.6742148,497
1765877600.6742241,497
1765877600.6742332,497
1765877600.674242,496
1765877600.674251,497
1765877600.67426,497
1765877600.674269,497
1765877600.6742778,496
1765877600.674287,497
1765877600.6742961,497
1765877600.674305,496
1765877600.674314,496
1765877600.674325,496
1765877600.674334,497
1765877600.6743429,496
1765877600.6743522,497
1765877600.674361,496
1765877600.67437,497
1765877600.674379,496
1765877600.674388,496
1765877600.674397,496
1765877600.6744058,496
1765877600.674415,497
1765877600.6744242,496
1765877600.674433,496
1765877600.6744409,497
1765877600.6744509,497
1765877600.67446,496
1765877600.674468,496
1765877600.674477,497
1765877600.674486,496
1765877600.674495,496
1765877600.674504,496
1765877600.6745129,497
1765877600.6745222,497
1765877600.674531,496
1765877600.67454,496
1765877600.674549,496
1765877600.67456,496
1765877600.67457,496
1765877600.674579,497
1765877600.674588,497
1765877600.674597,497
1765877600.674606,496
1765877600.6746151,497
1765877600.674624,497
1765877600.674633,496
1765877600.6746418,497
1765877600.674651,496
1765877600.6746602,497
1765877600.674669,497
1765877600.674677,496
1765877600.674687,497
1765877600.674696,497
1765877600.6747048,497
1765877600.674714,497
1765877600.6747231,496
1765877600.674732,497
1765877600.674741,496
1765877600.6747499,497
1765877600.674758,496
1765877600.674767,496
1765877600.674776,496
1765877600.6747851,497
1765877600.674794,497
1765877600.674806,497
1765877600.674815,497
1765877600.674824,497
1765877600.6748328,496
1765877600.6748421,496
1765877600.6748512,497
1765877600.67486,496
1765877600.674869,497
1765877600.674878,496
1765877600.674887,497
1765877600.6748958,496
1765877600.674905,497
1765877600.6749141,497
1765877600.674923,497
1765877600.674932,496
1765877600.6749408,497
1765877600.67495,497
1765877600.6749592,496
1765877600.674968,497
1765877600.674977,497
1765877600.674986,496
1765877600.674995,496
1765877600.675004,496
1765877600.675013,496
1765877600.6750221,496
1765877600.675031,497
1765877600.6750422,496
1765877600.675052,496
1765877600.675061,496
1765877600.67507,497
1765877600.6750789,497
1765877600.675088,497
1765877600.675097,497
1765877600.675106,497
1765877600.675115,497
1765877600.675124,497
1765877600.675133,497
1765877600.6751418,497
1765877600.675151,497
1765877600.6751602,497
1765877600.675169,497
1765877600.675178,497
1765877600.675186,497
1765877600.675195,498
1765877600.675204,498
1765877600.675213,498
1765877600.675222,497
1765877600.675231,498
1765877600.67524,498
1765877600.6752489,498
1765877600.6752572,498
1765877600.675265,498
1765877600.675275,498
1765877600.675285,498
1765877600.675293,498
1765877600.675301,498
1765877600.675309,498
1765877600.675317,498
1765877600.675325,498
1765877600.675333,497
1765877600.6753411,497
1765877600.67535,496
1765877600.675358,497
1765877600.675366,497
1765877600.675374,497
1765877600.675383,496
1765877600.675391,497
1765877600.6753988,497
1765877600.6754072,497
1765877600.675416,496
1765877600.675424,497
1765877600.675432,497
1765877600.67544,497
1765877600.6754482,497
1765877600.675456,496
1765877600.675464,496
1765877600.6754718,497
1765877600.675481,497
1765877600.675489,497
1765877600.675499,497
1765877600.675508,497
1765877600.675516,496
1765877600.675524,497
1765877600.675532,496
1765877600.67554,496
1765877600.675549,497
1765877600.6755571,497
1765877600.675565,496
1765877600.675573,496
1765877600.675581,496
1765877600.675589,496
1765877600.675597,497
1765877600.675606,497
1765877600.6756139,496
1765877600.675622,496
1765877600.67563,496
1765877600.6756392,496
1765877600.675647,496
1765877600.675655,497
1765877600.675663,496
1765877600.675671,496
1765877600.675679,497
1765877600.6756868,497
1765877600.6756961,497
1765877600.675704,496
1765877600.675714,496
1765877600.675723,496
1765877600.675731,496
1765877600.6757388,496
1765877600.6757472,497
1765877600.675755,496
1765877600.675764,496
1765877600.675772,496
1765877600.67578,496
1765877600.675788,496
1765877600.675796,497
1765877600.675804,496
1765877600.675812,496
1765877600.67582,496
1765877600.675828,496
1765877600.675837,496
1765877600.6758451,497
1765877600.675853,496
1765877600.675861,497
1765877600.675869,497
1765877600.6758778,496
1765877600.6758862,497
1765877600.675894,497
1765877600.675902,496
1765877600.67591,496
1765877600.675919,497
1765877600.675928,496
1765877600.675939,496
1765877600.675947,496
1765877600.675955,496
1765877600.675963,496
1765877600.675972,496
1765877600.67598,497
1765877600.675988,497
1765877600.6759958,497
1765877600.6760042,496
1765877600.676013,496
1765877600.676021,497
1765877600.676029,497
1765877600.676037,496
1765877600.676045,496
1765877600.676054,496
1765877600.6760619,497
1765877600.67607,496
1765877600.676078,496
1765877600.676086,497
1765877600.676094,496
1765877600.6761029,496
1765877600.6761112,496
1765877600.676119,496
1765877600.676127,496
1765877600.6761348,496
1765877600.6761432,496
1765877600.6761541,496
1765877600.676163,496
1765877600.676171,496
1765877600.67618,497
1765877600.676188,497
1765877600.676196,496
1765877600.676204,496
1765877600.676212,496
1765877600.6762218,496
1765877600.676234,496
1765877600.6762428,496
1765877600.676251,497
1765877600.67626,496
1765877600.676268,496
1765877600.676276,497
1765877600.6762838,497
1765877600.6762922,496
1765877600.676301,497
1765877600.676309,497
1765877600.676317,496
1765877600.676325,497
1765877600.676333,496
1765877600.676341,496
1765877600.676349,496
1765877600.676357,496
1765877600.6763651,496
1765877600.6763752,496
1765877600.676385,496
1765877600.676393,497
1765877600.676401,496
1765877600.676409,496
1765877600.676418,496
1765877600.676426,496
1765877600.6764338,497
1765877600.6764421,497
1765877600.67645,496
1765877600.676458,496
1765877600.676466,497
1765877600.676474,497
1765877600.6764832,497
1765877600.676491,497
1765877600.676499,497
1765877600.676507,496
1765877600.676515,497
1765877600.676523,496
1765877600.676532,496
1765877600.67654,496
1765877600.676548,496
1765877600.676556,497
1765877600.676564,497
1765877600.676573,497
1765877600.6765811,496
1765877600.676589,496
1765877600.676599,496
1765877600.676608,496
1765877600.676616,496
1765877600.6766238,496
1765877600.6766331,496
1765877600.676641,497
1765877600.6766489,497
1765877600.676657,497
1765877600.676665,496
1765877600.676673,497
1765877600.676681,496
1765877600.676689,497
1765877600.676697,496
1765877600.6767051,498
1765877600.676713,496
1765877600.6767209,496
1765877600.6767302,496
1765877600.676738,496
1765877600.676746,496
1765877600.676754,497
1765877600.676762,497
1765877600.67677,496
1765877600.676778,497
1765877600.676786,496
1765877600.6767948,496
1765877600.676803,496
1765877600.6768131,496
1765877600.676822,496
1765877600.67683,496
1765877600.6768389,497
1765877600.6768472,497
1765877600.676855,496
1765877600.676863,496
1765877600.6768708,496
1765877600.6768792,496
1765877600.676887,496
1765877600.676895,496
1765877600.676903,496
1765877600.676911,496
1765877600.676919,496
1765877600.676928,496
1765877600.676936,496
1765877600.6769438,496
1765877600.6769521,496
1765877600.67696,496
1765877600.6769679,496
1765877600.6769762,497
1765877600.676985,497
1765877600.6769931,497
1765877600.677001,497
1765877600.6770089,497
1765877600.6770182,496
1765877600.677026,497
1765877600.677034,496
1765877600.677042,496
1765877600.67705,496
1765877600.677058,496
1765877600.677066,496
1765877600.677075,497
1765877600.6770828,497
1765877600.6770911,496
1765877600.677099,497
1765877600.6771069,496
1765877600.677116,496
1765877600.677124,497
1765877600.6771321,496
1765877600.67714,496
1765877600.6771479,496
1765877600.6771562,496
1765877600.677165,497
1765877600.677173,497
1765877600.677181,496
1765877600.677189,496
1765877600.677197,497
1765877600.677205,496
1765877600.677214,496
1765877600.6772218,496
1765877600.6772301,497
1765877600.677238,496
1765877600.6772459,496
1765877600.677255,496
1765877600.677263,496
1765877600.6772711,496
1765877600.677279,496
1765877600.6772878,496
1765877600.6772962,496
1765877600.677304,497
1765877600.677312,497
1765877600.67732,496
1765877600.6773279,496
1765877600.6773372,496
1765877600.677345,497
1765877600.677354,496
1765877600.677363,497
1765877600.6773708,496
1765877600.6773791,496
1765877600.677388,496
1765877600.677396,497
1765877600.677404,497
1765877600.677412,497
1765877600.6774201,496
1765877600.677429,497
1765877600.6774368,497
1765877600.6774452,497
1765877600.677453,496
1765877600.677461,496
1765877600.677469,496
1765877600.6774771,496
1765877600.6774862,497
1765877600.677494,496
1765877600.677502,496
1765877600.6775098,496
1765877600.6775181,496
1765877600.677527,497
1765877600.677535,496
1765877600.677543,496
1765877600.677551,497
1765877600.6775591,496
1765877600.677567,497
1765877600.6775758,496
1765877600.677584,496
1765877600.677592,496
1765877600.677601,496
1765877600.677609,496
1765877600.6776168,496
1765877600.6776252,496
1765877600.677634,496
1765877600.6776419,496
1765877600.67765,496
1765877600.677658,496
1765877600.677666,497
1765877600.677674,496
1765877600.677682,496
1765877600.677691,496
1765877600.677699,496
1765877600.677707,497
1765877600.677715,496
1765877600.677723,496
1765877600.677732,496
1765877600.67774,496
1765877600.677748,496
1765877600.6777558,496
1765877600.6777642,496
1765877600.677773,496
1765877600.677781,496
1765877600.677789,496
1765877600.677797,497
1765877600.677805,496
1765877600.677814,496
1765877600.6778219,496
1765877600.67783,497
1765877600.677838,496
1765877600.677846,496
1765877600.677854,496
1765877600.677863,496
1765877600.677871,496
1765877600.677879,496
1765877600.677887,496
1765877600.677896,496
1765877600.677904,496
1765877600.677912,496
1765877600.677921,495
1765877600.677929,496
1765877600.6779368,496
1765877600.6779451,496
1765877600.677953,496
1765877600.677962,496
1765877600.67797,495
1765877600.677978,496
1765877600.6779861,496
1765877600.677995,495
1765877600.6780028,496
1765877600.678011,496
1765877600.678019,496
1765877600.678228,496
1765877600.678236,496
1765877600.678244,496
1765877600.6782532,496
1765877600.678261,496
1765877600.678269,495
1765877600.678278,496
1765877600.678286,496
1765877600.678294,496
1765877600.678302,496
1765877600.67831,496
1765877600.678318,496
1765877600.678327,495
1765877600.678335,495
1765877600.6783428,496
1765877600.6783512,495
1765877600.67836,496
1765877600.678368,496
1765877600.678376,496
1765877600.678384,496
1765877600.6783922,496
1765877600.678401,496
1765877600.6784089,497
1765877600.6784189,498
1765877600.678427,498
1765877600.678435,498
1765877600.678443,497
1765877600.678451,497
1765877600.67846,497
1765877600.678468,497
1765877600.678476,497
1765877600.678484,497
1765877600.6784918,497
1765877600.6785011,497
1765877600.678509,497
1765877600.678517,497
1765877600.678525,496
1765877600.678533,496
1765877600.678541,497
1765877600.67855,497
1765877600.6785579,497
1765877600.678566,496
1765877600.678574,496
1765877600.678582,496
1765877600.678591,496
1765877600.6785989,496
1765877600.678839,496
1765877600.6798341,496
1765877600.680866,496
1765877600.681843,496
1765877600.682833,496
1765877600.68386,496
1765877600.684892,496
1765877600.685888,496
1765877600.686856,496
1765877600.687924,496
1765877600.688878,496
1765877600.6898959,496
1765877600.690867,496
1765877600.69188,496
1765877600.692907,496
1765877600.6939058,496
1765877600.6948638,496
1765877600.695881,496
1765877600.696921,496
1765877600.697897,496
1765877600.698878,496
1765877600.699915,496
1765877600.700922,496
1765877600.701946,496
1765877600.702938,496
1765877600.703906,496
1765877600.7049549,495
1765877600.705954,496
1765877600.7069619,496
1765877600.708027,496
1765877600.708977,496
1765877600.709951,496
1765877600.710954,495
1765877600.7119691,496
1765877600.71296,496
1765877600.713968,497
1765877600.714977,496
1765877600.715934,496
1765877600.7169259,496
1765877600.717932,496
1765877600.718945,495
1765877600.719944,496
1765877600.7210271,496
1765877600.7220428,496
1765877600.723069,496
1765877600.724035,496
1765877600.725065,497
1765877600.7260668,496
1765877600.7270641,497
1765877600.7280362,496
1765877600.729032,496
1765877600.7300658,496
1765877600.731067,496
1765877600.7320378,495
1765877600.7331,496
1765877600.7340422,496
1765877600.7350678,496
1765877600.736062,496
1765877600.737064,496
1765877600.738065,496
1765877600.73908,496
1765877600.740048,497
1765877600.741102,496
1765877600.7420642,497
1765877600.743069,496
1765877600.744044,496
1765877600.7450318,496
1765877600.7460659,496
1765877600.747079,496
1765877600.7480772,496
1765877600.749054,496
1765877600.7500448,496
1765877600.751078,496
1765877600.752088,496
1765877600.7530382,496
1765877600.754048,496
1765877600.755114,496
1765877600.756078,496
1765877600.7570891,496
1765877600.758058,496
1765877600.7590542,496
1765877600.760063,496
1765877600.761058,496
1765877600.7620952,496
1765877600.7631161,496
1765877600.7641091,496
1765877600.765116,497
1765877600.766117,496
1765877600.767091,496
1765877600.7681348,496
1765877600.7691479,496
1765877600.7701771,496
1765877600.771147,496
1765877600.7721689,496
1765877600.77314,497
1765877600.7741299,497
1765877600.775192,496
1765877600.776201,497
1765877600.777144,497
1765877600.778122,496
1765877600.7792351,497
1765877600.780162,497
1765877600.781153,496
1765877600.782154,497
1765877600.783165,497
1765877600.784155,496
1765877600.785145,497
1765877600.786174,496
1765877600.787169,497
1765877600.788165,496
1765877600.789176,496
1765877600.7901812,496
1765877600.791209,497
1765877600.792203,497
1765877600.793171,497
1765877600.7941709,496
1765877600.795181,497
1765877600.796179,497
1765877600.797179,498
1765877600.798186,497
1765877600.799178,498
1765877600.800179,496
1765877600.801175,496
1765877600.80221,496
1765877600.803173,495
1765877600.804183,496
1765877600.8051882,496
1765877600.8061938,496
1765877600.807193,496
1765877600.80821,496
1765877600.8092108,497
1765877600.810223,498
1765877600.811212,498
1765877600.812202,498
1765877600.8132212,498
1765877600.8142211,498
1765877600.815236,498
1765877600.8162181,496
1765877600.8172228,495
1765877600.818244,495
1765877600.819235,495
1765877600.820223,496
1765877600.821252,496
1765877600.822249,496
1765877600.823241,497
1765877600.8242528,498
1765877600.825255,498
1765877600.8262458,498
1765877600.827258,497
1765877600.8282619,498
1765877600.829281,501
1765877600.83027,502
1765877600.831273,502
1765877600.832302,501
1765877600.83331,498
1765877600.8342872,495
1765877600.835271,493
1765877600.836294,493
1765877600.837323,496
1765877600.8383071,496
1765877600.8393128,496
1765877600.840301,496
1765877600.841303,495
1765877600.842277,496
1765877600.843285,495
1765877600.844301,495
1765877600.8453429,496
1765877600.846313,498
1765877600.847323,498
1765877600.8483012,499
1765877600.849349,499
1765877600.8503501,499
1765877600.851325,500
1765877600.852345,501
1765877600.8533518,497
1765877600.854343,496
1765877600.8553169,502
1765877600.8563242,506
1765877600.857354,505
1765877600.858355,502
1765877600.859353,496
1765877600.860362,496
1765877600.861395,496
1765877600.862366,491
1765877600.8633878,492
1765877600.8643641,495
1765877600.86538,497
1765877600.866393,498
1765877600.867367,498
1765877600.868373,500
1765877600.8693728,497
1765877600.870375,498
1765877600.871397,496
1765877600.872422,497
1765877600.8734279,497
1765877600.874411,496
1765877600.875422,492
1765877600.8764591,492
1765877600.877423,494
1765877600.878422,496
1765877600.879443,497
1765877600.880424,498
1765877600.8814569,499
1765877600.882451,501
1765877600.883466,500
1765877600.884468,496
1765877600.885448,495
1765877600.886438,494
1765877600.887456,494
1765877600.8884459,494
1765877600.889429,495
1765877600.8904378,496
1765877600.891445,496
1765877600.8924658,495
1765877600.893467,495
1765877600.894465,496
1765877600.895448,496
1765877600.8964639,497
1765877600.897449,498
1765877600.89844,498
1765877600.899453,498
1765877600.90046,501
1765877600.901464,501
1765877600.902465,503
1765877600.9035242,501
1765877600.904483,497
1765877600.905515,496
1765877600.906532,497
1765877600.907539,497
1765877600.908522,494
1765877600.9095192,492
1765877600.910511,494
1765877600.911558,494
1765877600.912556,495
1765877600.9135518,494
1765877600.9145548,494
1765877600.915545,495
1765877600.916529,498
1765877600.917602,504
1765877600.9185688,508
1765877600.919611,510
1765877600.920591,512
1765877600.921567,512
1765877600.922594,502
1765877600.92357,495
1765877600.924582,494
1765877600.925573,491
1765877600.926584,491
1765877600.927588,492
1765877600.92856,493
1765877600.92957,492
1765877600.930594,492
1765877600.931574,493
1765877600.932571,493
1765877600.933585,493
1765877600.934595,495
1765877600.935591,495
1765877600.9365702,496
1765877600.937563,498
1765877600.938563,501
1765877600.939578,501
1765877600.940587,501
1765877600.941579,498
1765877600.9426088,498
1765877600.943588,498
1765877600.944576,499
1765877600.9456031,501
1765877600.9466062,495
1765877600.9476428,488
1765877600.948596,491
1765877600.949632,491
1765877600.950637,493
1765877600.951624,496
1765877600.952648,496
1765877600.953623,496
1765877600.954626,495
1765877600.955637,495
1765877600.956653,496
1765877600.957715,496
1765877600.958667,496
1765877600.95967,496
1765877600.960636,495
1765877600.961628,495
1765877600.962629,495
1765877600.963626,495
1765877600.964625,495
1765877600.965633,496
1765877600.966642,496
1765877600.967666,496
1765877600.968647,496
1765877600.96965,496
1765877600.970655,496
1765877600.971661,498
1765877600.972656,498
1765877600.9736571,497
1765877600.974648,498
1765877600.975659,499
1765877600.976662,500
1765877600.977673,500
1765877600.9786801,501
1765877600.979669,494
1765877600.9806662,492
1765877600.981668,494
1765877600.982673,495
1765877600.983698,496
1765877600.984672,496
1765877600.9856782,496
1765877600.98669,497
1765877600.987684,499
1765877600.988706,500
1765877600.9896991,502
1765877600.99071,503
1765877600.9917178,496
1765877600.9927092,493
1765877600.993709,491
1765877600.994731,491
1765877600.995726,495
1765877600.996738,496
1765877600.9977221,500
1765877600.99875,504
1765877600.999785,502
1765877601.000764,496
1765877601.00173,498
1765877601.002752,498
1765877601.003767,498
1765877601.004767,500
1765877601.00579,497
1765877601.006784,490
1765877601.007791,494
1765877601.008781,495
1765877601.009844,495
1765877601.0107899,495
1765877601.0118341,494
1765877601.012827,496
1765877601.013796,499
1765877601.014786,503
1765877601.0157871,500
1765877601.016789,501
1765877601.017785,499
1765877601.01879,491
1765877601.019798,488
1765877601.020802,492
1765877601.021803,496
1765877601.022784,500
1765877601.023809,500
1765877601.024821,497
1765877601.025824,496
1765877601.026797,497
1765877601.0278,497
1765877601.0288289,498
1765877601.029827,497
1765877601.0308301,497
1765877601.03184,496
1765877601.032829,496
1765877601.033818,496
1765877601.0348318,494
1765877601.035845,496
1765877601.036865,495
1765877601.037856,495
1765877601.038864,496
1765877601.0398579,496
1765877601.04086,495
1765877601.041915,495
1765877601.042898,495
1765877601.0438871,498
1765877601.044885,500
1765877601.04589,504
1765877601.046892,503
1765877601.047891,499
1765877601.0489159,496
1765877601.0498939,494
1765877601.050896,495
1765877601.051902,498
1765877601.0529459,497
1765877601.053994,495
1765877601.0549178,494
1765877601.055894,492
1765877601.056882,493
1765877601.057887,495
1765877601.058889,495
1765877601.059919,496
1765877601.0609338,496
1765877601.061944,495
1765877601.06294,495
1765877601.0639539,497
1765877601.064959,501
1765877601.065933,506
1765877601.0669272,509
1765877601.067926,506
1765877601.068912,502
1765877601.069924,497
1765877601.07094,489
1765877601.071946,491
1765877601.072939,494
1765877601.073941,492
1765877601.07495,491
1765877601.075955,493
1765877601.076972,496
1765877601.07797,495
1765877601.078977,495
1765877601.079978,495
1765877601.0809758,494
1765877601.082082,495
1765877601.0830898,495
1765877601.084016,496
1765877601.085002,496
1765877601.0860748,495
1765877601.0870771,496
1765877601.088075,496
1765877601.089059,496
1765877601.090058,496
1765877601.0910652,497
1765877601.0920792,497
1765877601.09306,496
1765877601.09406,497
1765877601.0950882,496
1765877601.096063,496
1765877601.097065,496
1765877601.098063,496
1765877601.0990632,497
1765877601.100063,497
1765877601.101086,498
1765877601.102078,497
1765877601.103078,493
1765877601.104085,496
1765877601.105079,498
1765877601.1060748,500
1765877601.107074,502
1765877601.108068,501
1765877601.109059,497
1765877601.11004,498
1765877601.111049,495
1765877601.112052,496
1765877601.113038,496
1765877601.1140459,493
1765877601.1150389,496
1765877601.1160371,498
1765877601.1170502,500
1765877601.118051,498
1765877601.11907,494
1765877601.1200662,496
1765877601.121057,497
1765877601.122072,494
1765877601.123135,491
1765877601.12413,495
1765877601.1252139,495
1765877601.126115,494
1765877601.1270971,494
1765877601.128093,496
1765877601.129069,496
1765877601.130116,496
1765877601.1310878,497
1765877601.13208,499
1765877601.133095,499
1765877601.134099,496
1765877601.1351092,495
1765877601.136092,498
1765877601.1371038,499
1765877601.138113,496
1765877601.139112,493
1765877601.140121,490
1765877601.141137,494
1765877601.142111,495
1765877601.143129,496
1765877601.144133,495
1765877601.145151,496
1765877601.1461482,495
1765877601.147197,495
1765877601.1481228,496
1765877601.149162,496
1765877601.150151,500
1765877601.151186,501
1765877601.152169,501
1765877601.15318,499
1765877601.1541739,496
1765877601.155156,490
1765877601.15616,493
1765877601.157182,494
1765877601.158176,494
1765877601.159167,494
1765877601.160171,495
1765877601.161161,496
1765877601.162199,496
1765877601.163185,498
1765877601.164205,500
1765877601.16524,501
1765877601.1662369,501
1765877601.167216,494
1765877601.1681979,491
1765877601.169209,494
1765877601.1702259,497
1765877601.1711879,495
1765877601.172195,497
1765877601.173196,497
1765877601.174238,496
1765877601.17524,494
1765877601.176237,497
1765877601.177227,498
1765877601.178238,498
1765877601.179219,498
1765877601.180235,497
1765877601.181269,492
1765877601.182291,494
1765877601.183255,494
1765877601.184264,494
1765877601.185246,494
1765877601.186288,495
1765877601.187298,495
1765877601.1882792,495
1765877601.189285,495
1765877601.190269,495
1765877601.191329,495
1765877601.192277,497
1765877601.193286,497
1765877601.194277,497
1765877601.195271,498
1765877601.196297,496
1765877601.197321,497
1765877601.198333,497
1765877601.199341,494
1765877601.20034,494
1765877601.201348,495
1765877601.20233,495
1765877601.2033222,496
1765877601.204304,495
1765877601.205308,494
1765877601.2063098,496
1765877601.207378,495
1765877601.208381,495
1765877601.209339,495
1765877601.210319,495
1765877601.211326,496
1765877601.2123148,496
1765877601.213326,495
1765877601.214334,495
1765877601.215324,496
1765877601.216347,496
1765877601.217335,497
1765877601.2183318,497
1765877601.219351,495
1765877601.22034,493
1765877601.221366,495
1765877601.222392,495
1765877601.223344,495
1765877601.22436,494
1765877601.225368,495
1765877601.226339,499
1765877601.227343,501
1765877601.2283509,503
1765877601.229375,506
1765877601.23037,503
1765877601.231369,496
1765877601.232372,498
1765877601.233394,494
1765877601.2344,494
1765877601.23539,498
1765877601.2363899,495
1765877601.237398,494
1765877601.238754,493
1765877601.23947,491
1765877601.240413,492
1765877601.241421,492
1765877601.2424262,493
1765877601.2434502,495
1765877601.244447,495
1765877601.245444,495
1765877601.246453,495
1765877601.2474508,495
1765877601.2484841,494
1765877601.249495,494
1765877601.25046,494
1765877601.251523,496
1765877601.252492,497
1765877601.2534888,497
1765877601.254488,497
1765877601.25551,495
1765877601.256504,495
1765877601.2574878,495
1765877601.258477,495
1765877601.259538,496
1765877601.2605171,496
1765877601.261515,495
1765877601.262495,495
1765877601.2635,497
1765877601.264629,497
1765877601.265557,496
1765877601.266569,493
1765877601.267541,494
1765877601.268474,495
1765877601.269544,495
1765877601.2705128,495
1765877601.271508,495
1765877601.272504,495
1765877601.2735229,495
1765877601.274556,496
1765877601.2755089,495
1765877601.27652,495
1765877601.277507,494
1765877601.278518,495
1765877601.279517,495
1765877601.280514,495
1765877601.281514,495
1765877601.2825248,494
1765877601.283533,495
1765877601.2845418,495
1765877601.285559,495
1765877601.286538,496
1765877601.287544,495
1765877601.288556,495
1765877601.289548,494
1765877601.290702,494
1765877601.291588,494
1765877601.292626,495
1765877601.293599,495
1765877601.2945652,495
1765877601.2956212,495
1765877601.2965949,496
1765877601.297584,496
1765877601.29863,496
1765877601.299636,498
1765877601.3006122,499
1765877601.301601,500
1765877601.302615,498
1765877601.303689,499
1765877601.3045871,503
1765877601.305561,504
1765877601.306575,501
1765877601.307619,490
1765877601.3086212,489
1765877601.309629,495
1765877601.310622,495
1765877601.311636,496
1765877601.312621,496
1765877601.3136299,492
1765877601.31467,492
1765877601.3156,493
1765877601.316622,494
1765877601.317617,494
1765877601.3186429,495
1765877601.3196428,495
1765877601.320622,495
1765877601.32164,495
1765877601.322631,495
1765877601.323658,495
1765877601.324646,496
1765877601.325651,494
1765877601.326657,495
1765877601.32766,495
1765877601.328643,496
1765877601.329659,494
1765877601.3306592,494
1765877601.331688,496
1765877601.332691,494
1765877601.333697,494
1765877601.334672,495
1765877601.3356721,495
1765877601.336669,495
1765877601.337675,495
1765877601.338729,495
1765877601.3397,496
1765877601.340683,496
1765877601.341696,495
1765877601.3427498,495
1765877601.3436959,495
1765877601.3447092,495
1765877601.345702,496
1765877601.346712,498
1765877601.3477702,499
1765877601.348771,495
1765877601.3497422,495
1765877601.350741,497
1765877601.351732,497
1765877601.352723,497
1765877601.3537312,496
1765877601.354731,493
1765877601.355723,492
1765877601.3567412,494
1765877601.357741,494
1765877601.358762,493
1765877601.359783,495
1765877601.360773,496
1765877601.361783,496
1765877601.362804,495
1765877601.36378,495
1765877601.3647811,494
1765877601.365806,494
1765877601.3668082,494
1765877601.367786,494
1765877601.36881,495
1765877601.369802,495
1765877601.370856,495
1765877601.3717928,495
1765877601.373352,495
1765877601.373989,496
1765877601.374992,496
1765877601.375906,497
1765877601.377011,497
1765877601.377886,499
1765877601.378837,501
1765877601.379796,500
1765877601.380816,498
1765877601.381811,497
1765877601.382833,493
1765877601.3838432,496
1765877601.384893,499
1765877601.3859332,499
1765877601.386962,500
1765877601.3878489,502
1765877601.388851,499
1765877601.389834,494
1765877601.390843,497
1765877601.391878,498
1765877601.392826,495
1765877601.393924,492
1765877601.39487,495
1765877601.395872,497
1765877601.396884,494
1765877601.39788,493
1765877601.398869,496
1765877601.399887,495
1765877601.40088,494
1765877601.4018822,494
1765877601.402874,495
1765877601.4038432,495
1765877601.4048798,496
1765877601.4058619,495
1765877601.406851,496
1765877601.407883,496
1765877601.408889,496
1765877601.4099042,496
1765877601.41089,497
1765877601.4119081,497
1765877601.412877,496
1765877601.4139168,494
1765877601.415048,493
1765877601.4160252,495
1765877601.4169338,494
1765877601.417912,495
1765877601.418922,495
1765877601.4199018,496
1765877601.420917,496
1765877601.421914,496
1765877601.422915,495
1765877601.4239209,495
1765877601.424957,496
1765877601.42593,496
1765877601.426952,495
1765877601.427975,494
1765877601.428937,495
1765877601.429944,496
1765877601.430965,495
1765877601.4319649,495
1765877601.432947,494
1765877601.433954,494
1765877601.434958,496
1765877601.43596,495
1765877601.436959,496
1765877601.437966,496
1765877601.438956,496
1765877601.439955,495
1765877601.4409668,493
1765877601.441979,494
1765877601.443064,494
1765877601.4439669,495
1765877601.445062,495
1765877601.44606,497
1765877601.4470458,497
1765877601.448053,496
1765877601.449054,494
1765877601.450082,495
1765877601.451055,494
1765877601.452071,495
1765877601.453078,495
1765877601.454056,495
1765877601.45508,496
1765877601.456168,496
1765877601.457151,496
1765877601.458108,495
1765877601.459079,496
1765877601.460108,495
1765877601.461078,495
1765877601.4620569,495
1765877601.4630778,495
1765877601.464088,495
1765877601.465099,494
1765877601.466078,494
1765877601.467098,496
1765877601.468089,496
1765877601.469082,497
1765877601.4700851,497
1765877601.471071,493
1765877601.472117,493
1765877601.473103,494
1765877601.4740741,495
1765877601.4751208,498
1765877601.476095,502
1765877601.4770792,502
1765877601.478127,504
1765877601.4790819,502
1765877601.480064,489
1765877601.481125,491
1765877601.482084,494
1765877601.483104,493
1765877601.4840991,493
1765877601.485122,494
1765877601.486176,494
1765877601.487162,494
1765877601.488142,495
1765877601.489134,495
1765877601.490135,494
1765877601.4912262,494
1765877601.4921548,494
1765877601.4931571,495
1765877601.494166,495
1765877601.495172,495
1765877601.4962292,496
1765877601.4971478,495
1765877601.498153,493
1765877601.4991848,493
1765877601.5001888,495
1765877601.5011652,496
1765877601.5021539,496
1765877601.503157,497
1765877601.504236,496
1765877601.505172,495
1765877601.5061738,495
1765877601.5071821,495
1765877601.508171,495
1765877601.509194,495
1765877601.5101812,495
1765877601.511298,495
1765877601.512683,495
1765877601.513205,495
1765877601.514294,494
1765877601.515211,495
1765877601.516364,493
1765877601.5172029,494
1765877601.518249,495
1765877601.5192032,495
1765877601.5201778,495
1765877601.5212412,495
1765877601.522311,495
1765877601.523225,496
1765877601.524201,495
1765877601.525267,496
1765877601.526207,497
1765877601.527222,496
1765877601.528223,498
1765877601.529292,499
1765877601.530215,496
1765877601.531224,491
1765877601.532219,493
1765877601.533282,494
1765877601.534358,494
1765877601.5352829,494
1765877601.536227,495
1765877601.5374012,495
1765877601.538263,494
1765877601.5392761,494
1765877601.540289,495
1765877601.541273,495
1765877601.542238,495
1765877601.543241,497
1765877601.544236,500
1765877601.545268,499
1765877601.546324,498
1765877601.5472739,496
1765877601.548256,491
1765877601.549304,492
1765877601.550295,493
1765877601.551318,494
1765877601.55229,494
1765877601.553279,495
1765877601.554295,495
1765877601.555286,495
1765877601.556281,495
1765877601.557274,494
1765877601.55829,494
1765877601.559307,494
1765877601.560331,494
1765877601.561314,494
1765877601.562349,496
1765877601.563338,496
1765877601.564377,496
1765877601.5652852,496
1765877601.5663319,495
1765877601.567326,494
1765877601.56834,493
1765877601.569342,494
1765877601.570303,496
1765877601.57132,496
1765877601.572345,499
1765877601.573295,498
1765877601.574423,499
1765877601.57535,497
1765877601.576382,495
1765877601.577377,496
1765877601.578357,498
1765877601.579361,498
1765877601.580365,495
1765877601.5813482,490
1765877601.582349,494
1765877601.583759,496
1765877601.584419,496
1765877601.585431,498
1765877601.586425,498
1765877601.5873878,494
1765877601.588387,494
1765877601.589387,494
1765877601.590399,493
1765877601.591404,494
1765877601.5924008,494
1765877601.5933928,494
1765877601.594422,493
1765877601.5953999,493
1765877601.596448,494
1765877601.597464,494
1765877601.598455,495
1765877601.599488,494
1765877601.6004229,494
1765877601.601436,494
1765877601.602416,494
1765877601.6034079,494
1765877601.604408,494
1765877601.605417,495
1765877601.606409,494
1765877601.607428,495
1765877601.60847,495
1765877601.609438,496
1765877601.6104152,495
1765877601.611425,496
1765877601.612437,495
1765877601.613447,495
1765877601.6144562,495
1765877601.615533,495
1765877601.616649,495
1765877601.61745,495
1765877601.618459,494
1765877601.619466,494
1765877601.620477,494
1765877601.621475,495
1765877601.622473,494
1765877601.62348,495
1765877601.624481,496
1765877601.625555,495
1765877601.626533,494
1765877601.6275148,495
1765877601.628785,496
1765877601.6295419,497
1765877601.630527,496
1765877601.631522,494
1765877601.6324968,492
1765877601.633518,493
1765877601.63452,494
1765877601.635634,495
1765877601.6365519,495
1765877601.637524,495
1765877601.638537,494
1765877601.6395268,494
1765877601.6405041,494
1765877601.641548,495
1765877601.643001,495
1765877601.643553,495
1765877601.644536,494
1765877601.6455731,494
1765877601.646555,495
1765877601.647568,494
1765877601.648818,494
1765877601.649567,496
1765877601.650559,497
1765877601.651594,497
1765877601.6526022,499
1765877601.6535869,498
1765877601.654572,496
1765877601.655572,496
1765877601.656567,496
