timestamp,emg_value
1765877607.33645,494
1765877607.336478,493
1765877607.336493,496
1765877607.3365,496
1765877607.3365068,494
1765877607.336525,495
1765877607.3365319,495
1765877607.336538,494
1765877607.336545,494
1765877607.336552,495
1765877607.336559,496
1765877607.336565,494
1765877607.336573,495
1765877607.33658,495
1765877607.336587,496
1765877607.3365939,494
1765877607.336601,495
1765877607.3366132,494
1765877607.33662,493
1765877607.336631,494
1765877607.336638,494
1765877607.3366442,494
1765877607.336651,494
1765877607.336658,494
1765877607.3366652,494
1765877607.336682,494
1765877607.3366919,495
1765877607.3366988,495
1765877607.336705,495
1765877607.336712,495
1765877607.336719,494
1765877607.336725,495
1765877607.336732,495
1765877607.336742,495
1765877607.336749,494
1765877607.336756,495
1765877607.336763,495
1765877607.336769,495
1765877607.336776,495
1765877607.3367832,495
1765877607.33679,495
1765877607.3368,495
1765877607.336807,495
1765877607.336813,495
1765877607.33682,494
1765877607.3368268,495
1765877607.336833,494
1765877607.33684,495
1765877607.336847,495
1765877607.336854,495
1765877607.33686,495
1765877607.3368719,495
1765877607.336884,495
1765877607.3368971,495
1765877607.3369029,495
1765877607.3369112,495
1765877607.336917,495
1765877607.3369238,495
1765877607.336931,495
1765877607.3369431,495
1765877607.33695,495
1765877607.336957,495
1765877607.3369632,495
1765877607.33697,495
1765877607.336977,495
1765877607.337019,497
1765877607.3370261,496
1765877607.3370318,497
1765877607.337039,497
1765877607.337046,497
1765877607.3370519,492
1765877607.337059,493
1765877607.337066,495
1765877607.3370728,495
1765877607.33708,495
1765877607.337087,497
1765877607.3370938,499
1765877607.33711,499
1765877607.3371189,497
1765877607.337128,493
1765877607.337135,492
1765877607.337142,493
1765877607.337149,494
1765877607.337156,494
1765877607.337163,495
1765877607.337169,494
1765877607.337176,494
1765877607.337183,494
1765877607.33719,494
1765877607.337196,494
1765877607.337203,495
1765877607.3372102,495
1765877607.337217,495
1765877607.337225,495
1765877607.337238,494
1765877607.337245,494
1765877607.3372521,493
1765877607.337258,493
1765877607.337265,494
1765877607.3372722,494
1765877607.337279,494
1765877607.337285,495
1765877607.337292,495
1765877607.3372989,495
1765877607.337306,496
1765877607.337323,495
1765877607.3373299,495
1765877607.337337,495
1765877607.337344,494
1765877607.3373709,495
1765877607.337377,495
1765877607.3373928,495
1765877607.3374,495
1765877607.3374069,495
1765877607.337413,495
1765877607.33742,495
1765877607.337427,495
1765877607.337434,495
1765877607.33744,496
1765877607.337447,497
1765877607.337454,499
1765877607.337461,500
1765877607.337467,500
1765877607.337474,496
1765877607.337485,493
1765877607.337492,492
1765877607.337499,491
1765877607.337505,492
1765877607.337512,493
1765877607.3375401,493
1765877607.3375459,494
1765877607.337556,494
1765877607.337564,495
1765877607.3375711,495
1765877607.337578,496
1765877607.337584,496
1765877607.337591,496
1765877607.3375978,494
1765877607.3376052,494
1765877607.337612,495
1765877607.3376179,493
1765877607.337625,494
1765877607.337632,494
1765877607.3376389,494
1765877607.337645,495
1765877607.337652,496
1765877607.337659,496
1765877607.337666,495
1765877607.337672,494
1765877607.3376791,494
1765877607.337686,492
1765877607.337693,494
1765877607.3377001,495
1765877607.337706,496
1765877607.337713,495
1765877607.3377202,493
1765877607.337727,494
1765877607.337733,494
1765877607.337749,495
1765877607.337755,493
1765877607.337762,493
1765877607.33777,494
1765877607.337777,495
1765877607.337784,495
1765877607.33779,496
1765877607.3377972,495
1765877607.337804,495
1765877607.337811,495
1765877607.3378172,495
1765877607.337824,495
1765877607.337831,495
1765877607.3378382,494
1765877607.337845,494
1765877607.337857,494
1765877607.337864,494
1765877607.337871,494
1765877607.337877,495
1765877607.337884,494
1765877607.337891,494
1765877607.337898,494
1765877607.337905,495
1765877607.3379111,495
1765877607.337918,494
1765877607.3379252,494
1765877607.337934,495
1765877607.337944,494
1765877607.337951,494
1765877607.3379571,494
1765877607.337964,495
1765877607.337971,495
1765877607.3379781,495
1765877607.337984,495
1765877607.337991,495
1765877607.3379982,495
1765877607.338005,495
1765877607.3380108,495
1765877607.33802,495
1765877607.338026,495
1765877607.338033,495
1765877607.33804,495
1765877607.338047,495
1765877607.3380532,496
1765877607.3380601,496
1765877607.338067,496
1765877607.3380742,495
1765877607.3380811,494
1765877607.338088,495
1765877607.3380952,495
1765877607.338102,496
1765877607.3381078,496
1765877607.33812,494
1765877607.3381279,494
1765877607.338135,495
1765877607.338142,495
1765877607.338148,495
1765877607.338155,495
1765877607.338162,493
1765877607.338169,494
1765877607.338175,494
1765877607.338182,494
1765877607.3381891,494
1765877607.338196,494
1765877607.338202,495
1765877607.3382149,495
1765877607.338222,494
1765877607.338229,494
1765877607.338235,494
1765877607.338242,494
1765877607.338249,495
1765877607.338256,495
1765877607.338262,494
1765877607.338269,495
1765877607.3382761,495
1765877607.338283,494
1765877607.338295,494
1765877607.338302,494
1765877607.338309,494
1765877607.338319,494
1765877607.338327,494
1765877607.338333,495
1765877607.33834,495
1765877607.338347,495
1765877607.3383539,495
1765877607.338361,495
1765877607.338367,495
1765877607.338374,495
1765877607.338381,495
1765877607.338388,495
1765877607.3383949,495
1765877607.338402,496
1765877607.338408,495
1765877607.3384151,494
1765877607.338422,493
1765877607.338429,495
1765877607.3384361,497
1765877607.338443,498
1765877607.338449,498
1765877607.3384562,497
1765877607.338463,495
1765877607.33847,493
1765877607.338476,495
1765877607.3384829,494
1765877607.33849,496
1765877607.338499,497
1765877607.3385081,497
1765877607.338515,497
1765877607.338521,497
1765877607.338528,494
1765877607.3385348,492
1765877607.338542,493
1765877607.33855,495
1765877607.338557,496
1765877607.338563,495
1765877607.3385699,495
1765877607.3385768,497
1765877607.338584,496
1765877607.3385909,496
1765877607.3385978,495
1765877607.338604,495
1765877607.338611,496
1765877607.338618,496
1765877607.338625,495
1765877607.3386319,495
1765877607.338639,496
1765877607.338645,495
1765877607.338652,496
1765877607.338659,495
1765877607.338666,495
1765877607.3386729,495
1765877607.338679,495
1765877607.338688,495
1765877607.3386948,495
1765877607.338702,495
1765877607.3387089,496
1765877607.3387148,495
1765877607.338722,495
1765877607.338729,496
1765877607.338736,495
1765877607.338743,495
1765877607.338749,494
1765877607.338756,494
1765877607.338763,494
1765877607.33877,494
1765877607.338776,494
1765877607.338783,495
1765877607.33879,494
1765877607.338797,494
1765877607.338803,494
1765877607.3388102,495
1765877607.3388171,495
1765877607.338824,495
1765877607.3388338,496
1765877607.3388412,495
1765877607.338848,496
1765877607.338855,495
1765877607.3388622,495
1765877607.33887,495
1765877607.338878,495
1765877607.338885,495
1765877607.338892,494
1765877607.338899,495
1765877607.338905,494
1765877607.338918,496
1765877607.3389251,496
1765877607.338932,496
1765877607.338938,494
1765877607.338945,495
1765877607.3389518,497
1765877607.3389592,498
1765877607.338965,497
1765877607.3389719,497
1765877607.338979,496
1765877607.338986,493
1765877607.338992,495
1765877607.338999,495
1765877607.339006,493
1765877607.339013,493
1765877607.33902,494
1765877607.33903,493
1765877607.339037,494
1765877607.339044,495
1765877607.33905,495
1765877607.339057,494
1765877607.339066,495
1765877607.339073,494
1765877607.3390841,494
1765877607.339091,495
1765877607.3390982,494
1765877607.339104,495
1765877607.3391109,495
1765877607.339118,496
1765877607.339125,496
1765877607.3391309,496
1765877607.339138,496
1765877607.339144,495
1765877607.3391511,494
1765877607.339157,494
1765877607.339164,494
1765877607.33917,494
1765877607.339177,494
1765877607.339184,495
1765877607.33919,494
1765877607.339197,495
1765877607.3392031,495
1765877607.33921,495
1765877607.3392158,496
1765877607.3392231,495
1765877607.33923,494
1765877607.339236,495
1765877607.339243,496
1765877607.339252,496
1765877607.339259,496
1765877607.339265,495
1765877607.339272,495
1765877607.339278,496
1765877607.339285,496
1765877607.3392909,495
1765877607.339298,494
1765877607.339305,495
1765877607.3393111,495
1765877607.339318,494
1765877607.339324,495
1765877607.339335,495
1765877607.3393412,494
1765877607.339348,494
1765877607.339355,495
1765877607.339361,495
1765877607.3393679,495
1765877607.339375,495
1765877607.339382,495
1765877607.3393888,495
1765877607.339395,496
1765877607.339402,496
1765877607.3394089,496
1765877607.339416,495
1765877607.339422,495
1765877607.3394308,495
1765877607.3394392,496
1765877607.3394449,495
1765877607.3394518,495
1765877607.3394592,495
1765877607.339466,495
1765877607.339485,495
1765877607.339502,495
1765877607.339509,496
1765877607.339516,496
1765877607.339523,496
1765877607.33953,495
1765877607.339537,495
1765877607.339544,495
1765877607.339551,495
1765877607.339558,495
1765877607.339564,494
1765877607.339571,495
1765877607.3395782,496
1765877607.339585,495
1765877607.339592,494
1765877607.3395991,494
1765877607.339605,495
1765877607.339613,494
1765877607.33962,495
1765877607.339627,495
1765877607.339634,495
1765877607.3396428,495
1765877607.339651,495
1765877607.339658,495
1765877607.339664,495
1765877607.3396711,496
1765877607.339678,496
1765877607.339684,495
1765877607.339691,495
1765877607.3396978,495
1765877607.339705,495
1765877607.339711,495
1765877607.3397179,495
1765877607.339725,495
1765877607.339732,496
1765877607.3397381,495
1765877607.339745,496
1765877607.339752,495
1765877607.3397582,496
1765877607.339765,496
1765877607.339772,495
1765877607.3397791,495
1765877607.3397849,495
1765877607.3397918,495
1765877607.339799,495
1765877607.3398058,495
1765877607.339812,495
1765877607.3398201,495
1765877607.339828,495
1765877607.339835,495
1765877607.339842,495
1765877607.339848,495
1765877607.3398552,495
1765877607.339862,495
1765877607.339869,495
1765877607.3398762,495
1765877607.339883,495
1765877607.33989,495
1765877607.3398972,496
1765877607.3399029,495
1765877607.3399098,495
1765877607.339917,495
1765877607.339923,495
1765877607.3399308,495
1765877607.339937,495
1765877607.339944,495
1765877607.339951,495
1765877607.339958,495
1765877607.3399649,495
1765877607.339972,494
1765877607.339978,495
1765877607.339985,495
1765877607.339992,495
1765877607.339999,495
1765877607.3400068,495
1765877607.3400152,495
1765877607.340021,495
1765877607.3400278,495
1765877607.340035,496
1765877607.3400419,495
1765877607.3400478,495
1765877607.340055,495
1765877607.340062,495
1765877607.340068,495
1765877607.340075,495
1765877607.340082,495
1765877607.340089,495
1765877607.340096,495
1765877607.340102,495
1765877607.340109,495
1765877607.340116,495
1765877607.340123,495
1765877607.34013,495
1765877607.340136,495
1765877607.3401432,495
1765877607.34015,495
1765877607.3401558,495
1765877607.340163,495
1765877607.34017,496
1765877607.3401768,495
1765877607.34019,495
1765877607.3401978,496
1765877607.340204,495
1765877607.340211,496
1765877607.340218,495
1765877607.340224,495
1765877607.340231,496
1765877607.3402429,496
1765877607.34025,495
1765877607.340256,495
1765877607.340263,496
1765877607.34027,495
1765877607.340277,495
1765877607.3402839,495
1765877607.34029,495
1765877607.340297,495
1765877607.340304,495
1765877607.34031,496
1765877607.340317,495
1765877607.3403242,495
1765877607.340331,495
1765877607.340338,496
1765877607.340344,495
1765877607.3403509,495
1765877607.3403578,495
1765877607.340369,495
1765877607.3403761,496
1765877607.340385,496
1765877607.340393,495
1765877607.340399,495
1765877607.340406,496
1765877607.3404129,495
1765877607.34042,495
1765877607.340427,495
1765877607.3404338,495
1765877607.34044,495
1765877607.340447,496
1765877607.3404539,495
1765877607.340461,496
1765877607.340467,496
1765877607.3404741,495
1765877607.34048,495
1765877607.340487,495
1765877607.340498,496
1765877607.3405042,495
1765877607.340511,496
1765877607.340518,495
1765877607.3405252,495
1765877607.3405309,496
1765877607.340538,496
1765877607.340545,495
1765877607.3405519,495
1765877607.340558,495
1765877607.340565,495
1765877607.340575,496
1765877607.340582,496
1765877607.340588,495
1765877607.340595,495
1765877607.340607,495
1765877607.3406138,495
1765877607.340621,495
1765877607.340627,495
1765877607.340634,495
1765877607.340641,495
1765877607.3406541,496
1765877607.340661,495
1765877607.3406668,495
1765877607.3406742,495
1765877607.340681,495
1765877607.340688,495
1765877607.3406951,496
1765877607.340702,496
1765877607.340708,495
1765877607.340715,495
1765877607.3407218,495
1765877607.340734,495
1765877607.3407402,496
1765877607.340747,495
1765877607.340754,495
1765877607.3407612,495
1765877607.34077,496
1765877607.3407779,495
1765877607.340784,496
1765877607.340791,496
1765877607.340798,496
1765877607.340805,496
1765877607.340811,496
1765877607.340818,496
1765877607.340825,496
1765877607.340832,496
1765877607.340843,496
1765877607.3408499,496
1765877607.340857,496
1765877607.340864,496
1765877607.3408709,495
1765877607.340877,496
1765877607.340884,496
1765877607.340891,496
1765877607.340898,496
1765877607.340904,496
1765877607.3409111,496
1765877607.340918,495
1765877607.340929,496
1765877607.340936,496
1765877607.340943,496
1765877607.34095,496
1765877607.340965,495
1765877607.3409731,495
1765877607.3409789,495
1765877607.340986,496
1765877607.340993,495
1765877607.3409998,495
1765877607.341007,495
1765877607.341014,496
1765877607.3410208,496
1765877607.3410282,496
1765877607.341034,496
1765877607.3410408,496
1765877607.341048,496
1765877607.341054,496
1765877607.341061,497
1765877607.341068,496
1765877607.341075,496
1765877607.341082,496
1765877607.341088,496
1765877607.341095,496
1765877607.3411021,497
1765877607.341108,497
1765877607.341115,497
1765877607.3411222,498
1765877607.341129,497
1765877607.341135,497
1765877607.341142,497
1765877607.341151,497
1765877607.3411589,497
1765877607.341165,497
1765877607.341172,498
1765877607.341179,497
1765877607.341186,497
1765877607.341192,496
1765877607.3411992,496
1765877607.341206,497
1765877607.341213,496
1765877607.3412192,497
1765877607.341226,496
1765877607.341233,496
1765877607.3412402,496
1765877607.341246,496
1765877607.341253,496
1765877607.34126,496
1765877607.3412669,496
1765877607.341273,496
1765877607.34128,496
1765877607.341287,496
1765877607.3412979,496
1765877607.341305,496
1765877607.341312,495
1765877607.341318,496
1765877607.341325,497
1765877607.341332,496
1765877607.3413491,496
1765877607.341356,496
1765877607.341363,496
1765877607.3413692,496
1765877607.341393,496
1765877607.341402,495
1765877607.3414102,496
1765877607.341417,495
1765877607.3414242,495
1765877607.3414311,496
1765877607.341438,496
1765877607.341446,496
1765877607.3414521,496
1765877607.341459,496
1765877607.3414662,496
1765877607.341473,496
1765877607.34148,496
1765877607.3414872,496
1765877607.341493,495
1765877607.3414998,496
1765877607.341507,496
1765877607.3415139,495
1765877607.3415198,495
1765877607.341527,496
1765877607.341534,496
1765877607.341541,496
1765877607.34155,495
1765877607.341558,495
1765877607.3415658,496
1765877607.341572,495
1765877607.341579,496
1765877607.3415859,495
1765877607.341593,496
1765877607.341599,496
1765877607.3416378,496
1765877607.341681,496
1765877607.341689,495
1765877607.341695,496
1765877607.341702,495
1765877607.3417091,496
1765877607.341716,496
1765877607.341722,496
1765877607.341729,496
1765877607.3417358,495
1765877607.341742,496
1765877607.341749,496
1765877607.34176,497
1765877607.3417668,496
1765877607.341774,495
1765877607.341781,496
1765877607.3417878,496
1765877607.341794,496
1765877607.341803,495
1765877607.341811,496
1765877607.341818,496
1765877607.341825,496
1765877607.341832,496
1765877607.3418381,496
1765877607.341845,496
1765877607.341852,496
1765877607.341859,495
1765877607.341865,496
1765877607.3418722,495
1765877607.3418791,496
1765877607.341886,496
1765877607.3418958,496
1765877607.3419032,496
1765877607.3419101,496
1765877607.341917,495
1765877607.3419242,496
1765877607.341931,496
1765877607.3419368,496
1765877607.341944,496
1765877607.341981,496
1765877607.341989,496
1765877607.341995,495
1765877607.342002,496
1765877607.342009,496
1765877607.342016,496
1765877607.342025,496
1765877607.342033,496
1765877607.34204,496
1765877607.342047,496
1765877607.342054,496
1765877607.34206,496
1765877607.342067,496
1765877607.3420742,496
1765877607.342081,496
1765877607.342088,496
1765877607.3420942,496
1765877607.342101,496
1765877607.342108,496
1765877607.3421152,496
1765877607.342122,496
1765877607.342129,496
1765877607.342135,496
1765877607.3421419,495
1765877607.342149,495
1765877607.342156,495
1765877607.34217,496
1765877607.342177,496
1765877607.3422332,496
1765877607.34224,495
1765877607.342279,495
1765877607.3422878,496
1765877607.342295,495
1765877607.342305,496
1765877607.3423119,496
1765877607.342319,495
1765877607.342325,495
1765877607.342332,496
1765877607.342339,495
1765877607.342346,496
1765877607.3423529,496
1765877607.342359,496
1765877607.342366,496
1765877607.3423731,496
1765877607.3423848,496
1765877607.342392,496
1765877607.342399,496
1765877607.342405,496
1765877607.342412,495
1765877607.342419,495
1765877607.342425,495
1765877607.342432,495
1765877607.342439,495
1765877607.342446,496
1765877607.342453,496
1765877607.34246,496
1765877607.342466,495
1765877607.342473,495
1765877607.34248,496
1765877607.342488,495
1765877607.342495,496
1765877607.3425019,496
1765877607.342516,495
1765877607.3425229,496
1765877607.34253,496
1765877607.342536,496
1765877607.3425431,496
1765877607.34255,495
1765877607.342556,495
1765877607.3425632,496
1765877607.34257,496
1765877607.342577,495
1765877607.342583,495
1765877607.3425899,496
1765877607.342601,496
1765877607.3426108,496
1765877607.342617,496
1765877607.342624,496
1765877607.342637,496
1765877607.342648,495
1765877607.342654,496
1765877607.342666,496
1765877607.3426719,496
1765877607.342679,496
1765877607.342686,496
1765877607.3426921,495
1765877607.342701,496
1765877607.3427079,495
1765877607.3427148,496
1765877607.342726,496
1765877607.3427331,496
1765877607.34274,496
1765877607.342747,497
1765877607.342753,496
1765877607.3427598,496
1765877607.342771,496
1765877607.342777,496
1765877607.342784,496
1765877607.3427908,496
1765877607.342798,496
1765877607.342804,496
1765877607.3428109,496
1765877607.342818,495
1765877607.342825,496
1765877607.3428311,495
1765877607.342838,495
1765877607.342845,496
1765877607.3428512,496
1765877607.342858,496
1765877607.342865,496
1765877607.3428721,496
1765877607.3428779,496
1765877607.342887,496
1765877607.342895,496
1765877607.342901,496
1765877607.342908,496
1765877607.342915,495
1765877607.342921,496
1765877607.342928,496
1765877607.342935,496
1765877607.342941,496
1765877607.3429482,496
1765877607.342955,496
1765877607.3429608,496
1765877607.342968,496
1765877607.342975,496
1765877607.343005,496
1765877607.343015,496
1765877607.343026,496
1765877607.343037,496
1765877607.3430521,496
1765877607.343063,495
1765877607.34307,496
1765877607.343082,495
1765877607.343092,496
1765877607.3430989,495
1765877607.343106,496
1765877607.343113,495
1765877607.3431199,496
1765877607.343128,496
1765877607.343136,496
1765877607.343146,495
1765877607.343162,496
1765877607.343178,496
1765877607.343193,495
1765877607.3432078,496
1765877607.343224,495
1765877607.3432388,496
1765877607.343254,496
1765877607.343269,496
1765877607.343285,497
1765877607.3433,496
1765877607.343316,496
1765877607.343331,496
1765877607.3433468,496
1765877607.343363,496
1765877607.3433778,496
1765877607.343393,496
1765877607.343408,496
1765877607.343424,496
1765877607.3434398,495
1765877607.343455,496
1765877607.34347,496
1765877607.343487,496
1765877607.343502,496
1765877607.343521,496
1765877607.3435378,495
1765877607.343554,496
1765877607.3435688,496
1765877607.343585,496
1765877607.3436,496
1765877607.343615,496
1765877607.343631,496
1765877607.343646,496
1765877607.343661,496
1765877607.343677,495
1765877607.343692,496
1765877607.3437068,496
1765877607.3437288,496
1765877607.343744,496
1765877607.343764,495
1765877607.343779,495
1765877607.3437939,496
1765877607.3438091,496
1765877607.3438249,496
1765877607.34384,496
1765877607.3438551,495
1765877607.3438709,496
1765877607.343887,495
1765877607.3439019,495
1765877607.3439171,496
1765877607.34394,496
1765877607.343956,496
1765877607.3439722,496
1765877607.343987,496
1765877607.344003,496
1765877607.344018,496
1765877607.344034,496
1765877607.344049,495
1765877607.344065,496
1765877607.34408,496
1765877607.344096,496
1765877607.3441112,496
1765877607.344127,496
1765877607.3441422,496
1765877607.344157,495
1765877607.344173,496
1765877607.344188,496
1765877607.344203,496
1765877607.344218,495
1765877607.344239,495
1765877607.344254,495
1765877607.344269,496
1765877607.344285,496
1765877607.3443,496
1765877607.344316,495
1765877607.344331,496
1765877607.344346,496
1765877607.344366,495
1765877607.344382,496
1765877607.344407,496
1765877607.3444219,495
1765877607.344437,496
1765877607.344453,496
1765877607.3444679,496
1765877607.3444831,496
1765877607.344498,495
1765877607.344513,495
1765877607.344529,496
1765877607.344544,496
1765877607.3445592,496
1765877607.344574,495
1765877607.3445902,496
1765877607.344605,496
1765877607.344621,496
1765877607.34464,495
1765877607.344647,496
1765877607.344654,496
1765877607.344662,496
1765877607.3446689,496
1765877607.344676,496
1765877607.344683,496
1765877607.3446898,496
1765877607.344697,496
1765877607.344706,496
1765877607.344714,496
1765877607.344722,496
1765877607.3447292,496
1765877607.344736,496
1765877607.344743,497
1765877607.3447502,497
1765877607.344757,497
1765877607.344764,496
1765877607.3447711,496
1765877607.344778,497
1765877607.344785,497
1765877607.3447921,497
1765877607.344799,497
1765877607.344806,497
1765877607.344813,496
1765877607.34482,496
1765877607.344827,496
1765877607.344834,497
1765877607.344841,496
1765877607.344848,496
1765877607.344855,496
1765877607.344862,496
1765877607.3448699,496
1765877607.344877,496
1765877607.344884,496
1765877607.344893,496
1765877607.344901,496
1765877607.344908,496
1765877607.344915,496
1765877607.344922,496
1765877607.344929,496
1765877607.344936,496
1765877607.3449442,496
1765877607.3449512,496
1765877607.344958,496
1765877607.344966,496
1765877607.344977,496
1765877607.344984,496
1765877607.344992,496
1765877607.3449988,496
1765877607.345006,496
1765877607.345013,496
1765877607.3450198,496
1765877607.345027,496
1765877607.345034,495
1765877607.3450408,496
1765877607.345048,496
1765877607.3450549,495
1765877607.3450618,496
1765877607.3450692,496
1765877607.345076,496
1765877607.345083,496
1765877607.345094,495
1765877607.345101,496
1765877607.345112,495
1765877607.345119,495
1765877607.34513,495
1765877607.3451462,496
1765877607.345162,496
1765877607.3451772,495
1765877607.345192,495
1765877607.3452082,496
1765877607.345228,496
1765877607.345244,496
1765877607.345259,496
1765877607.345275,496
1765877607.345291,496
1765877607.3453062,496
1765877607.345321,496
1765877607.3453372,496
1765877607.345352,496
1765877607.345373,496
1765877607.3453948,495
1765877607.345411,495
1765877607.3454258,496
1765877607.345441,495
1765877607.3454561,495
1765877607.345472,496
1765877607.3454888,495
1765877607.345506,495
1765877607.345521,496
1765877607.345537,495
1765877607.345552,496
1765877607.345567,495
1765877607.345582,496
1765877607.345598,495
1765877607.3456142,496
1765877607.345629,496
1765877607.345644,496
1765877607.3456588,496
1765877607.345675,496
1765877607.34569,496
1765877607.345706,495
1765877607.3457222,496
1765877607.345737,496
1765877607.3457532,496
1765877607.345769,496
1765877607.345784,496
1765877607.345799,496
1765877607.345814,496
1765877607.34583,496
1765877607.345845,495
1765877607.3458612,496
1765877607.345876,496
1765877607.3458939,496
1765877607.345911,495
1765877607.3459258,495
1765877607.345942,495
1765877607.345957,495
1765877607.345972,496
1765877607.345988,495
1765877607.346008,496
1765877607.346024,496
1765877607.346039,496
1765877607.346055,496
1765877607.34607,495
1765877607.346085,495
1765877607.346101,496
1765877607.346116,496
1765877607.3461308,496
1765877607.346147,495
1765877607.346163,495
1765877607.346178,496
1765877607.346194,496
1765877607.346209,496
1765877607.346224,496
1765877607.346246,496
1765877607.346261,496
1765877607.3462799,496
1765877607.346296,496
1765877607.346314,496
1765877607.346331,495
1765877607.346347,495
1765877607.346362,496
1765877607.346378,496
1765877607.346393,496
1765877607.346414,495
1765877607.3464289,496
1765877607.346445,495
1765877607.3464599,496
1765877607.346476,496
1765877607.3464909,495
1765877607.3465059,495
1765877607.3465211,495
1765877607.3465369,496
1765877607.3465521,495
1765877607.34657,496
1765877607.3465862,496
1765877607.346601,496
1765877607.346617,495
1765877607.346636,495
1765877607.3466518,495
1765877607.346667,496
1765877607.3466828,496
1765877607.346698,496
1765877607.346713,496
1765877607.346735,496
1765877607.346752,496
1765877607.3467672,495
1765877607.346783,496
1765877607.3467982,495
1765877607.346813,496
1765877607.346829,494
1765877607.346844,495
1765877607.346859,495
1765877607.346874,495
1765877607.3468952,495
1765877607.346911,495
1765877607.346926,496
1765877607.346942,496
1765877607.346957,495
1765877607.346973,495
1765877607.346988,495
1765877607.347003,495
1765877607.347019,495
1765877607.3470342,495
1765877607.34705,496
1765877607.347065,495
1765877607.347081,495
1765877607.347096,496
1765877607.347112,495
1765877607.3471282,495
1765877607.347143,494
1765877607.347162,495
1765877607.347177,495
1765877607.347192,495
1765877607.3472068,496
1765877607.347223,495
1765877607.3472378,495
1765877607.347254,496
1765877607.347269,495
1765877607.347284,495
1765877607.347299,495
1765877607.3473148,495
1765877607.34733,495
1765877607.3473449,495
1765877607.3473659,496
1765877607.347382,496
1765877607.3473978,495
1765877607.347413,495
1765877607.347428,496
1765877607.347444,495
1765877607.347459,496
1765877607.347475,496
1765877607.34749,495
1765877607.3475049,496
1765877607.347521,495
1765877607.3475358,496
1765877607.347552,495
1765877607.347571,495
1765877607.3475862,496
1765877607.347601,495
1765877607.347617,496
1765877607.3476322,495
1765877607.347647,495
1765877607.347662,495
1765877607.347678,495
1765877607.3476942,495
1765877607.347709,495
1765877607.347724,495
1765877607.34774,495
1765877607.347755,495
1765877607.347771,495
1765877607.347786,495
1765877607.347801,495
1765877607.347816,495
1765877607.347832,495
1765877607.347847,496
1765877607.347862,495
1765877607.347878,495
1765877607.347894,495
1765877607.3479092,495
1765877607.347925,495
1765877607.3479402,495
1765877607.347956,495
1765877607.3479738,495
1765877607.347989,496
1765877607.348005,495
1765877607.34802,496
1765877607.348036,496
1765877607.3480508,495
1765877607.3481338,495
1765877607.3481522,495
1765877607.348187,495
1765877607.348203,495
1765877607.348219,496
1765877607.348234,496
1765877607.3482502,495
1765877607.348307,495
1765877607.34832,495
1765877607.348332,495
1765877607.348345,495
1765877607.348395,495
1765877607.3484359,496
1765877607.3484511,495
1765877607.348465,495
1765877607.348525,496
1765877607.348541,496
1765877607.348573,495
1765877607.3486028,495
1765877607.348617,495
1765877607.3486469,495
1765877607.348662,495
1765877607.348675,495
1765877607.348727,495
1765877607.3487418,495
1765877607.348756,495
1765877607.348769,495
1765877607.348782,496
1765877607.348795,495
1765877607.348804,495
1765877607.348811,495
1765877607.348819,495
1765877607.3488262,496
1765877607.348833,495
1765877607.34884,495
1765877607.3488472,495
1765877607.348854,495
1765877607.348861,495
1765877607.3488681,495
1765877607.348876,495
1765877607.348883,495
1765877607.34889,495
1765877607.348897,495
1765877607.348904,495
1765877607.348911,495
1765877607.348918,495
1765877607.348928,495
1765877607.3489358,496
1765877607.348943,496
1765877607.34895,495
1765877607.3489568,495
1765877607.3489652,495
1765877607.348972,495
1765877607.348979,495
1765877607.3489861,496
1765877607.348993,495
1765877607.349,495
1765877607.3490071,496
1765877607.349014,495
1765877607.349021,495
1765877607.349029,495
1765877607.349036,496
1765877607.349043,495
1765877607.34905,495
1765877607.349057,495
1765877607.3490639,495
1765877607.349071,495
1765877607.349078,496
1765877607.3490849,495
1765877607.3490932,495
1765877607.3491,495
1765877607.349107,496
1765877607.3491142,495
1765877607.349122,495
1765877607.349131,495
1765877607.349138,495
1765877607.3491452,495
1765877607.349152,495
1765877607.349159,495
1765877607.3491662,495
1765877607.349174,495
1765877607.34918,495
1765877607.3491871,495
1765877607.349195,495
1765877607.349202,495
1765877607.349209,496
1765877607.3492212,495
1765877607.349229,495
1765877607.34924,496
1765877607.349247,494
1765877607.349254,495
1765877607.349261,495
1765877607.349272,495
1765877607.34928,495
1765877607.349289,495
1765877607.349301,495
1765877607.349314,495
1765877607.349327,496
1765877607.34934,496
1765877607.3493602,496
1765877607.349374,494
1765877607.349387,495
1765877607.3494,495
1765877607.3494132,495
1765877607.349426,495
1765877607.349439,495
1765877607.349452,495
1765877607.349466,495
1765877607.349478,495
1765877607.349491,496
1765877607.349505,495
1765877607.349518,495
1765877607.349531,496
1765877607.349544,496
1765877607.349557,495
1765877607.34957,495
1765877607.3495831,496
1765877607.3495958,496
1765877607.349609,496
1765877607.349622,497
1765877607.349636,497
1765877607.349649,496
1765877607.349662,496
1765877607.349675,497
1765877607.349688,496
1765877607.3497012,496
1765877607.349719,496
1765877607.349733,496
1765877607.349746,496
1765877607.34976,496
1765877607.3497732,496
1765877607.349786,496
1765877607.349799,496
1765877607.349812,496
1765877607.349826,496
1765877607.349844,495
1765877607.3498628,495
1765877607.3498769,495
1765877607.34989,496
1765877607.349903,495
1765877607.349916,495
1765877607.3499289,495
1765877607.349942,495
1765877607.349955,495
1765877607.349968,495
1765877607.3499808,495
1765877607.349994,496
1765877607.350007,496
1765877607.3500202,495
1765877607.3500328,495
1765877607.350046,495
1765877607.350059,495
1765877607.350076,495
1765877607.350089,495
1765877607.350102,496
1765877607.350115,495
1765877607.3501282,496
1765877607.3501408,495
1765877607.350154,496
1765877607.350167,495
1765877607.3501801,495
1765877607.3501928,495
1765877607.350206,496
1765877607.350219,495
1765877607.3502321,495
1765877607.3502452,495
1765877607.3502579,495
1765877607.3502889,495
1765877607.350303,495
1765877607.350316,495
1765877607.35033,495
1765877607.350343,495
1765877607.3503559,495
1765877607.350369,495
1765877607.350382,495
1765877607.350396,496
1765877607.350409,495
1765877607.350422,495
1765877607.3504388,495
1765877607.350453,495
1765877607.3504739,495
1765877607.350539,495
1765877607.3505468,495
1765877607.3505542,496
1765877607.350562,495
1765877607.350569,495
1765877607.3505762,495
1765877607.350583,495
1765877607.35059,495
1765877607.3505971,495
1765877607.350623,496
1765877607.350631,495
1765877607.3506382,494
1765877607.350645,495
1765877607.350653,495
1765877607.35066,495
1765877607.3506932,495
1765877607.3507001,494
1765877607.35072,495
1765877607.350728,494
1765877607.3507352,495
1765877607.350742,495
1765877607.350749,495
1765877607.3507562,495
1765877607.3507671,495
1765877607.350775,496
1765877607.350782,496
1765877607.350789,495
1765877607.350796,496
1765877607.350803,496
1765877607.35081,496
1765877607.350817,496
1765877607.3508239,496
1765877607.3508322,495
1765877607.3508391,495
1765877607.350846,494
1765877607.3508532,494
1765877607.35086,494
1765877607.350872,495
1765877607.350879,495
1765877607.3508859,495
1765877607.350893,494
1765877607.3509,494
1765877607.3509068,494
1765877607.350914,495
1765877607.350921,495
1765877607.3509278,495
1765877607.350935,494
1765877607.350946,495
1765877607.3509529,495
1765877607.350962,495
1765877607.35097,495
1765877607.350977,496
1765877607.3509839,496
1765877607.350991,495
1765877607.350998,495
1765877607.351006,495
1765877607.3510132,495
1765877607.35102,495
1765877607.351027,495
1765877607.3510342,495
1765877607.351042,495
1765877607.351049,495
1765877607.3510559,494
1765877607.351064,495
1765877607.351071,495
1765877607.3510778,494
1765877607.351095,495
1765877607.3511019,495
1765877607.351109,495
1765877607.351116,495
1765877607.3511229,495
1765877607.351131,495
1765877607.351137,495
1765877607.351145,496
1765877607.351155,496
1765877607.3511622,496
1765877607.351171,496
1765877607.3511791,496
1765877607.35119,497
1765877607.351197,497
1765877607.3512042,496
1765877607.351211,496
1765877607.351218,495
1765877607.351226,494
1765877607.351233,494
1765877607.35124,494
1765877607.351247,494
1765877607.351254,494
1765877607.351261,494
1765877607.351268,495
1765877607.351275,495
1765877607.351282,495
1765877607.351289,495
1765877607.351296,495
1765877607.3513029,495
1765877607.35131,495
1765877607.351317,496
1765877607.351325,496
1765877607.3513322,496
1765877607.351339,495
1765877607.351346,496
1765877607.3513532,496
1765877607.351361,496
1765877607.35137,496
1765877607.351377,495
1765877607.3513842,495
1765877607.351391,495
1765877607.351398,495
1765877607.351412,494
1765877607.351419,495
1765877607.3514261,495
1765877607.351433,495
1765877607.35144,495
1765877607.351447,495
1765877607.351454,495
1765877607.3514612,495
1765877607.351468,495
1765877607.351475,495
1765877607.3514822,495
1765877607.351489,495
1765877607.351496,496
1765877607.3515031,496
1765877607.35151,496
1765877607.351517,496
1765877607.351524,496
1765877607.351531,495
1765877607.351538,495
1765877607.351545,495
1765877607.351552,495
1765877607.351561,495
1765877607.351569,495
1765877607.351576,495
1765877607.351583,495
1765877607.3515909,495
1765877607.351598,495
1765877607.351605,495
1765877607.3516119,496
1765877607.351619,496
1765877607.351626,496
1765877607.3516328,497
1765877607.35164,497
1765877607.351647,496
1765877607.351653,497
1765877607.35166,497
1765877607.351667,498
1765877607.351674,497
1765877607.351681,495
1765877607.351688,493
1765877607.351695,493
1765877607.351702,494
1765877607.351709,495
1765877607.351716,495
1765877607.351723,495
1765877607.3517299,495
1765877607.351737,496
1765877607.351744,496
1765877607.351753,497
1765877607.3517609,497
1765877607.3517718,498
1765877607.351786,497
1765877607.3518069,494
1765877607.351819,493
1765877607.3518322,494
1765877607.351845,494
1765877607.351858,495
1765877607.351871,494
1765877607.3518841,494
1765877607.351897,494
1765877607.3519099,494
1765877607.351922,495
1765877607.351935,495
1765877607.351948,495
1765877607.3519611,495
1765877607.3519738,496
1765877607.351987,496
1765877607.352,495
1765877607.352013,495
1765877607.352025,495
1765877607.352038,495
1765877607.352051,495
1765877607.352064,495
1765877607.352082,495
1765877607.352097,495
1765877607.352111,495
1765877607.3521228,495
1765877607.352139,496
1765877607.352152,496
1765877607.3521652,497
1765877607.352177,496
1765877607.352195,496
1765877607.352208,498
1765877607.352221,497
1765877607.352234,495
1765877607.352247,496
1765877607.35226,497
1765877607.352273,496
1765877607.3522859,494
1765877607.352298,494
1765877607.3523111,494
1765877607.352324,494
1765877607.352337,495
1765877607.35235,495
1765877607.352373,495
1765877607.352386,495
1765877607.352399,495
1765877607.352412,496
1765877607.3524249,495
1765877607.352437,496
1765877607.352452,496
1765877607.3524659,496
1765877607.352479,496
1765877607.352492,495
1765877607.35251,494
1765877607.352523,494
1765877607.352536,495
1765877607.352549,497
1765877607.352562,498
1765877607.3525739,497
1765877607.352587,496
1765877607.3526,496
1765877607.3526132,496
1765877607.3526258,495
1765877607.352639,495
1765877607.3526511,496
1765877607.352664,496
1765877607.352677,495
1765877607.35269,494
1765877607.352703,493
1765877607.352716,494
1765877607.352729,494
1765877607.352741,495
1765877607.3527539,495
1765877607.352767,495
1765877607.35278,495
1765877607.352793,495
1765877607.352809,494
1765877607.352822,494
1765877607.3528352,494
1765877607.3528478,493
1765877607.352861,495
1765877607.352874,495
1765877607.3528872,495
1765877607.3529,495
1765877607.352913,495
1765877607.352926,495
1765877607.352939,495
1765877607.352951,495
1765877607.352965,494
1765877607.352972,494
1765877607.352979,496
1765877607.352986,495
1765877607.352993,495
1765877607.353,495
1765877607.353007,496
1765877607.353014,496
1765877607.353021,495
1765877607.353028,496
1765877607.353035,495
1765877607.353042,495
1765877607.353049,496
1765877607.353056,496
1765877607.353067,496
1765877607.3530738,495
1765877607.353081,495
1765877607.353088,494
1765877607.353096,494
1765877607.3531032,494
1765877607.35311,493
1765877607.353117,493
1765877607.3531241,493
1765877607.353131,494
1765877607.353138,495
1765877607.3531451,496
1765877607.353152,496
1765877607.35316,495
1765877607.353167,494
1765877607.353174,495
1765877607.35318,495
1765877607.353188,496
1765877607.353195,496
1765877607.3532019,496
1765877607.353209,495
1765877607.353216,494
1765877607.3532228,494
1765877607.35323,495
1765877607.353237,495
1765877607.3532438,495
1765877607.3532522,495
1765877607.35326,495
1765877607.353267,496
1765877607.353274,495
1765877607.353281,495
1765877607.353288,496
1765877607.353295,495
1765877607.353302,494
1765877607.353309,494
1765877607.353316,493
1765877607.353323,493
1765877607.35333,493
1765877607.353337,495
1765877607.353344,497
1765877607.3533509,498
1765877607.3533592,497
1765877607.353366,497
1765877607.3533728,495
1765877607.3533802,495
1765877607.353388,496
1765877607.353395,496
1765877607.3534021,496
1765877607.353409,497
1765877607.353416,497
1765877607.353423,495
1765877607.35343,496
1765877607.353437,496
1765877607.353446,497
1765877607.353454,495
1765877607.353461,496
1765877607.353468,496
1765877607.353475,495
1765877607.353482,496
1765877607.353489,496
1765877607.353496,495
1765877607.353503,496
1765877607.35351,496
1765877607.353517,496
1765877607.353524,495
1765877607.353531,495
1765877607.353538,496
1765877607.353545,495
1765877607.3535519,495
1765877607.353559,495
1765877607.353566,495
1765877607.3535738,495
1765877607.353581,495
1765877607.3535879,496
1765877607.3535948,495
1765877607.353602,496
1765877607.35361,496
1765877607.353617,496
1765877607.353624,495
1765877607.353632,495
1765877607.353641,495
1765877607.3536482,496
1765877607.353655,495
1765877607.353662,496
1765877607.3536692,495
1765877607.353676,495
1765877607.353684,495
1765877607.3536909,495
1765877607.353698,495
1765877607.353705,495
1765877607.353712,495
1765877607.353719,495
1765877607.353726,495
1765877607.353733,495
1765877607.35374,495
1765877607.353747,494
1765877607.353754,495
1765877607.353761,495
1765877607.3537679,495
1765877607.353775,495
1765877607.353782,495
1765877607.3537889,495
1765877607.353796,495
1765877607.353803,495
1765877607.3538098,495
1765877607.353817,495
1765877607.353826,495
1765877607.353834,495
1765877607.3538408,495
1765877607.353848,495
1765877607.353855,494
1765877607.3538618,494
1765877607.353869,495
1765877607.3538759,495
1765877607.3538828,495
1765877607.35389,496
1765877607.353898,495
1765877607.353905,496
1765877607.353912,495
1765877607.353919,495
1765877607.353926,495
1765877607.353933,495
1765877607.35394,495
1765877607.353947,495
1765877607.353954,495
1765877607.353961,495
1765877607.3539689,495
1765877607.353976,496
1765877607.353983,496
1765877607.3539898,496
1765877607.353997,495
1765877607.354004,495
1765877607.354013,495
1765877607.354021,495
1765877607.354028,495
1765877607.354035,495
1765877607.354042,495
1765877607.354049,495
1765877607.354056,495
1765877607.354063,495
1765877607.35407,495
1765877607.3540769,495
1765877607.3540878,495
1765877607.3540952,495
1765877607.3541021,495
1765877607.35411,495
1765877607.3541172,495
1765877607.354124,495
1765877607.354135,496
1765877607.354142,495
1765877607.354149,495
1765877607.354156,495
1765877607.354164,496
1765877607.3541708,495
1765877607.354184,495
1765877607.354191,495
1765877607.354198,495
1765877607.354205,495
1765877607.354212,496
1765877607.354221,496
1765877607.354229,496
1765877607.354236,495
1765877607.354243,495
1765877607.35425,495
1765877607.3542569,495
1765877607.354264,495
1765877607.354271,495
1765877607.3542778,495
1765877607.354285,495
1765877607.354292,495
1765877607.3542988,495
1765877607.3543072,495
1765877607.354314,495
1765877607.354321,495
1765877607.3543282,496
1765877607.354335,495
1765877607.354342,495
1765877607.35435,495
1765877607.354357,495
1765877607.354364,496
1765877607.354371,495
1765877607.354378,495
1765877607.354385,495
1765877607.354392,495
1765877607.354399,495
1765877607.354408,495
1765877607.3544161,495
1765877607.354423,496
1765877607.35443,496
1765877607.354441,495
1765877607.3544478,495
1765877607.354455,495
1765877607.354462,495
1765877607.354469,495
1765877607.354476,495
1765877607.354483,496
1765877607.35449,495
1765877607.354497,495
1765877607.3545039,494
1765877607.354511,495
1765877607.354518,495
1765877607.3545249,495
1765877607.354532,495
1765877607.354539,496
1765877607.3545458,495
1765877607.354553,495
1765877607.35456,496
1765877607.3545668,495
1765877607.354574,495
1765877607.3545809,495
1765877607.3545878,495
1765877607.3545952,495
1765877607.354603,495
1765877607.3546119,495
1765877607.3546188,495
1765877607.354626,495
1765877607.3546329,495
1765877607.3546398,495
1765877607.354647,496
1765877607.354655,495
1765877607.354662,495
1765877607.354669,495
1765877607.354676,495
1765877607.354683,496
1765877607.35469,495
1765877607.354697,495
1765877607.354704,496
1765877607.354711,495
1765877607.354718,495
1765877607.3547251,495
1765877607.354732,495
1765877607.354739,495
1765877607.354746,495
1765877607.354753,496
1765877607.35476,495
1765877607.354767,495
1765877607.354774,495
1765877607.354781,495
1765877607.354789,495
1765877607.3547971,495
1765877607.354805,495
1765877607.354812,495
1765877607.354819,496
1765877607.354826,495
1765877607.354833,495
1765877607.35484,495
1765877607.354847,495
1765877607.3548539,496
1765877607.354861,495
1765877607.354868,495
1765877607.3548748,495
1765877607.354882,495
1765877607.354889,495
1765877607.3548958,496
1765877607.354903,495
1765877607.35491,496
1765877607.354917,495
1765877607.354924,495
1765877607.3549309,495
1765877607.354938,495
1765877607.354945,495
1765877607.3549519,495
1765877607.35496,495
1765877607.354966,495
1765877607.3549728,495
1765877607.354982,495
1765877607.35499,496
1765877607.354997,495
1765877607.3550038,495
1765877607.355011,495
1765877607.355018,495
1765877607.355026,495
1765877607.3550332,495
1765877607.35504,496
1765877607.355047,496
1765877607.3550541,495
1765877607.355061,495
1765877607.355068,495
1765877607.3550751,495
1765877607.355082,495
1765877607.35509,495
1765877607.355097,495
1765877607.355104,495
1765877607.355111,495
1765877607.355118,495
1765877607.355125,495
1765877607.3551319,495
1765877607.355139,495
1765877607.355146,495
1765877607.3551528,496
1765877607.35516,496
1765877607.355169,495
1765877607.355177,495
1765877607.355184,496
1765877607.355191,495
1765877607.355198,495
1765877607.355205,495
1765877607.355212,496
1765877607.355219,495
1765877607.355226,495
1765877607.355233,495
1765877607.3552399,496
1765877607.355247,496
1765877607.355254,496
1765877607.3552608,495
1765877607.355268,496
1765877607.355275,496
1765877607.3552818,496
1765877607.355289,496
1765877607.355296,496
1765877607.3553028,496
1765877607.35531,496
1765877607.3553169,496
1765877607.3553238,495
1765877607.3553312,496
1765877607.355343,495
1765877607.35535,495
1765877607.355357,495
1765877607.355365,495
1765877607.3553731,496
1765877607.35538,495
1765877607.355387,495
1765877607.355395,495
1765877607.355402,495
1765877607.355409,495
1765877607.355416,496
1765877607.355423,496
1765877607.355434,495
1765877607.3554409,495
1765877607.355448,495
1765877607.355455,495
1765877607.3554618,495
1765877607.355469,495
1765877607.355476,496
1765877607.3554828,495
1765877607.35549,495
1765877607.355497,496
1765877607.355504,495
1765877607.355511,495
1765877607.3555179,495
1765877607.355525,495
1765877607.355532,496
1765877607.3555388,495
1765877607.355546,496
1765877607.355553,495
1765877607.355562,495
1765877607.355569,495
1765877607.355576,495
1765877607.355583,495
1765877607.3555899,495
1765877607.355597,495
1765877607.355604,495
1765877607.3556108,495
1765877607.355618,495
1765877607.3556302,496
1765877607.355637,495
1765877607.355644,496
1765877607.3556511,496
1765877607.355658,495
1765877607.355665,495
1765877607.3556721,495
1765877607.355679,496
1765877607.355686,495
1765877607.355693,495
1765877607.3557,496
1765877607.355707,495
1765877607.355714,495
1765877607.355721,495
1765877607.355728,495
1765877607.355735,495
1765877607.355742,495
1765877607.3557508,495
1765877607.3557591,496
1765877607.355766,495
1765877607.355773,495
1765877607.3557801,496
1765877607.355787,496
1765877607.355794,495
1765877607.355801,496
1765877607.355808,495
1765877607.355815,495
1765877607.355822,495
1765877607.355829,495
1765877607.3558369,495
1765877607.355844,495
1765877607.355851,495
1765877607.3558578,495
1765877607.355865,495
1765877607.355872,495
1765877607.3558788,496
1765877607.355886,495
1765877607.355893,496
1765877607.3558998,495
1765877607.355907,496
1765877607.3559139,496
1765877607.3559208,495
1765877607.3559282,496
1765877607.3559349,496
1765877607.355944,496
1765877607.355952,495
1765877607.355959,495
1765877607.3559659,495
1765877607.355973,495
1765877607.35598,496
1765877607.3559868,495
1765877607.3559942,496
1765877607.3560011,496
1765877607.356008,496
1765877607.3560152,497
1765877607.356096,497
1765877607.356103,497
1765877607.35611,496
1765877607.356117,496
1765877607.356124,496
1765877607.356131,497
1765877607.356138,497
1765877607.356145,496
1765877607.356152,497
1765877607.35616,497
1765877607.3561668,497
1765877607.356174,497
1765877607.356181,497
1765877607.356189,496
1765877607.3561962,496
1765877607.356204,497
1765877607.356213,496
1765877607.35622,496
1765877607.3562272,497
1765877607.356234,496
1765877607.356241,496
1765877607.356253,496
1765877607.35626,496
1765877607.356267,495
1765877607.3562748,495
1765877607.356282,495
1765877607.356289,495
1765877607.3562958,495
1765877607.3563032,495
1765877607.356311,496
1765877607.356318,496
1765877607.3563251,496
1765877607.356332,496
1765877607.356339,496
1765877607.3563468,495
1765877607.356354,495
1765877607.356361,496
1765877607.3563688,496
1765877607.3563762,496
1765877607.356383,495
1765877607.35639,496
1765877607.3563972,496
1765877607.356407,496
1765877607.356415,495
1765877607.356422,496
1765877607.356429,496
1765877607.356436,495
1765877607.356443,495
1765877607.35645,495
1765877607.356457,496
1765877607.3564641,495
1765877607.356472,495
1765877607.356479,495
1765877607.3564858,496
1765877607.356493,496
1765877607.3565,496
1765877607.3565068,496
1765877607.356514,496
1765877607.356521,496
1765877607.356528,495
1765877607.356535,496
1765877607.3565419,496
1765877607.356549,496
1765877607.356556,495
1765877607.3565629,496
1765877607.35657,496
1765877607.356577,496
1765877607.3565838,495
1765877607.356593,496
1765877607.3566022,495
1765877607.356609,495
1765877607.356616,495
1765877607.3566232,495
1765877607.35663,495
1765877607.356637,495
1765877607.3566442,496
1765877607.356651,495
1765877607.356658,495
1765877607.3566651,495
1765877607.356672,495
1765877607.356679,495
1765877607.356686,495
1765877607.356693,495
1765877607.3567,495
1765877607.356707,495
1765877607.356714,495
1765877607.356721,496
1765877607.356728,495
1765877607.356735,496
1765877607.356742,495
1765877607.356748,496
1765877607.356756,496
1765877607.356763,495
1765877607.35677,496
1765877607.356777,495
1765877607.3567848,495
1765877607.3567932,495
1765877607.3568,495
1765877607.356807,496
1765877607.3568141,495
1765877607.356821,496
1765877607.356828,496
1765877607.3568351,496
1765877607.356842,495
1765877607.356849,496
1765877607.356856,496
1765877607.356863,496
1765877607.35687,495
1765877607.356877,495
1765877607.356884,495
1765877607.3568902,496
1765877607.356897,496
1765877607.356904,495
1765877607.3569112,495
1765877607.356918,495
1765877607.356925,495
1765877607.356933,495
1765877607.35694,496
1765877607.356947,495
1765877607.356954,496
1765877607.356961,495
1765877607.356968,496
1765877607.356977,495
1765877607.3569841,495
1765877607.356991,496
1765877607.356998,496
1765877607.3570051,496
1765877607.357012,496
1765877607.357019,496
1765877607.357026,495
1765877607.357033,495
1765877607.3570402,496
1765877607.357047,495
1765877607.357054,495
1765877607.3570611,495
1765877607.357068,495
1765877607.357075,495
1765877607.3570821,495
1765877607.35709,495
1765877607.357097,494
1765877607.357104,495
1765877607.357111,495
1765877607.357118,496
1765877607.357126,495
1765877607.3571332,495
1765877607.35714,495
1765877607.357147,495
1765877607.3571541,496
1765877607.357162,495
1765877607.3571699,495
1765877607.357177,495
1765877607.357184,496
1765877607.3571908,495
1765877607.357198,495
1765877607.357205,495
1765877607.3572118,496
1765877607.357219,495
1765877607.357226,495
1765877607.3572328,495
1765877607.35724,496
1765877607.3572469,495
1765877607.3572538,495
1765877607.357261,495
1765877607.3572679,495
1765877607.3572748,495
1765877607.3572822,496
1765877607.357289,496
1765877607.357297,495
1765877607.357304,495
1765877607.357311,495
1765877607.357318,495
1765877607.357325,495
1765877607.357332,496
1765877607.357339,495
1765877607.357346,495
1765877607.357354,495
1765877607.357363,495
1765877607.3573701,495
1765877607.357377,495
1765877607.357384,496
1765877607.357391,496
1765877607.357398,495
1765877607.357405,496
1765877607.357412,496
1765877607.357419,495
1765877607.357426,495
1765877607.357433,495
1765877607.35744,495
1765877607.357447,495
1765877607.357454,495
1765877607.357461,495
1765877607.357468,495
1765877607.357475,495
1765877607.357482,495
1765877607.3574889,495
1765877607.357496,495
1765877607.357503,495
1765877607.3575099,495
1765877607.357516,495
1765877607.357523,496
1765877607.35753,495
1765877607.3575392,495
1765877607.357547,495
1765877607.357554,495
1765877607.357561,495
1765877607.357568,495
1765877607.357575,496
1765877607.357582,496
1765877607.357589,495
1765877607.3575969,496
1765877607.357603,496
1765877607.35761,495
1765877607.357617,496
1765877607.357624,495
1765877607.357631,496
1765877607.357638,496
1765877607.357645,496
1765877607.357652,496
1765877607.3576589,496
1765877607.357666,496
1765877607.357674,496
1765877607.3576808,495
1765877607.357688,496
1765877607.3576949,496
1765877607.3577018,496
1765877607.3577101,495
1765877607.357717,495
1765877607.357724,495
1765877607.357734,495
1765877607.357742,496
1765877607.357749,496
1765877607.357756,495
1765877607.357764,496
1765877607.357771,495
1765877607.3577778,495
1765877607.357785,495
1765877607.357792,495
1765877607.3577988,495
1765877607.357806,496
1765877607.357813,496
1765877607.3578198,496
1765877607.3578272,495
1765877607.357834,495
1765877607.357841,495
1765877607.3578482,496
1765877607.357855,496
1765877607.357862,496
1765877607.3578691,495
1765877607.357876,495
1765877607.357883,495
1765877607.3578901,495
1765877607.357897,496
1765877607.357904,496
1765877607.357911,496
1765877607.35792,496
1765877607.357934,496
1765877607.357942,496
1765877607.357949,495
1765877607.3579562,495
1765877607.357963,496
1765877607.35797,495
1765877607.3579772,495
1765877607.357984,495
1765877607.357991,495
1765877607.3579981,495
1765877607.358005,496
1765877607.3580139,496
1765877607.358022,496
1765877607.3580291,495
1765877607.358036,495
1765877607.358043,496
1765877607.358052,495
1765877607.3580601,495
1765877607.358067,495
1765877607.3580742,496
1765877607.358083,495
1765877607.358092,496
1765877607.3581,495
1765877607.3581069,495
1765877607.358114,496
1765877607.3581262,496
1765877607.358134,496
1765877607.358141,496
1765877607.358148,496
1765877607.358155,495
1765877607.358162,495
1765877607.358169,495
1765877607.358176,495
1765877607.358183,495
1765877607.358191,496
1765877607.358198,495
1765877607.3582048,495
1765877607.358212,495
1765877607.358219,495
1765877607.3582258,496
1765877607.358233,496
1765877607.358242,496
1765877607.358249,496
1765877607.358256,495
1765877607.358263,496
1765877607.35827,495
1765877607.358277,496
1765877607.358284,495
1765877607.358291,496
1765877607.358298,495
1765877607.358306,496
1765877607.358314,495
1765877607.358322,495
1765877607.358329,495
1765877607.358337,496
1765877607.358347,496
1765877607.358358,495
1765877607.358369,496
1765877607.35838,495
1765877607.358391,496
1765877607.358402,495
1765877607.3584142,496
1765877607.3584251,496
1765877607.358436,496
1765877607.358447,496
1765877607.358458,495
1765877607.358469,496
1765877607.35848,495
1765877607.358491,495
1765877607.358502,495
1765877607.3585129,495
1765877607.3585238,495
1765877607.358536,495
1765877607.358547,496
1765877607.358558,496
1765877607.358569,496
1765877607.3585799,496
1765877607.358591,496
1765877607.3586051,495
1765877607.358616,496
1765877607.358627,496
1765877607.358639,496
1765877607.3586502,496
1765877607.3586612,496
1765877607.358672,496
1765877607.3586829,496
1765877607.3586938,496
1765877607.3587048,496
1765877607.358716,496
1765877607.358727,496
1765877607.358738,496
1765877607.358749,495
1765877607.3587599,496
1765877607.358772,496
1765877607.358783,496
1765877607.358794,496
1765877607.358805,496
1765877607.358816,495
1765877607.358827,496
1765877607.358838,497
1765877607.358849,497
1765877607.358861,498
1765877607.3588722,497
1765877607.3588831,497
1765877607.358897,497
1765877607.358909,497
1765877607.3589199,497
1765877607.3589308,497
1765877607.358942,497
1765877607.358954,497
1765877607.3589702,497
1765877607.3589811,497
1765877607.3589919,497
1765877607.3590028,497
1765877607.3590138,496
1765877607.359025,496
1765877607.359036,496
1765877607.359047,497
1765877607.359058,497
1765877607.3590689,496
1765877607.3590798,496
1765877607.359092,496
1765877607.359103,495
1765877607.359114,497
1765877607.359124,496
1765877607.359136,496
1765877607.359147,496
1765877607.359158,496
1765877607.359169,496
1765877607.35918,496
1765877607.359193,496
1765877607.359205,496
1765877607.3592162,497
1765877607.359227,495
1765877607.359238,496
1765877607.3592489,496
1765877607.3592598,496
1765877607.359272,496
1765877607.359283,496
1765877607.359294,497
1765877607.359305,496
1765877607.3593159,496
1765877607.359327,496
1765877607.359338,496
1765877607.359349,496
1765877607.359361,496
1765877607.3593721,496
1765877607.359383,496
1765877607.359394,496
1765877607.359406,496
1765877607.3594172,496
1765877607.3594282,496
1765877607.3594391,496
1765877607.35945,496
1765877607.3594618,496
1765877607.359478,496
1765877607.359489,496
1765877607.3595,496
1765877607.3595111,496
1765877607.359522,496
1765877607.359534,496
1765877607.359545,496
1765877607.3595562,496
1765877607.3595672,496
1765877607.3595788,496
1765877607.3595898,496
1765877607.3596008,495
1765877607.359612,496
1765877607.359623,497
1765877607.359634,495
1765877607.359645,496
1765877607.3596559,495
1765877607.359667,495
1765877607.359678,496
1765877607.359689,496
1765877607.359701,496
1765877607.359712,496
1765877607.359723,495
1765877607.359734,495
1765877607.359745,496
1765877607.359756,496
1765877607.3597682,496
1765877607.3597791,496
1765877607.35979,495
1765877607.359802,496
1765877607.3598132,496
1765877607.359824,495
1765877607.359835,495
1765877607.3598459,496
1765877607.3598568,496
1765877607.359869,496
1765877607.35988,496
1765877607.359891,496
1765877607.359902,496
1765877607.3599129,496
1765877607.359924,496
1765877607.359936,496
1765877607.359947,497
1765877607.359958,496
1765877607.3599691,496
1765877607.35998,496
1765877607.359991,496
1765877607.360002,496
1765877607.360014,496
1765877607.3600252,496
1765877607.3600361,496
1765877607.360047,496
1765877607.360058,496
1765877607.360069,496
1765877607.3600798,496
1765877607.360091,496
1765877607.360102,496
1765877607.360113,496
1765877607.3601239,496
1765877607.360136,496
1765877607.360147,495
1765877607.360158,496
1765877607.360169,495
1765877607.36018,496
1765877607.360192,495
1765877607.360203,496
1765877607.360214,496
1765877607.360225,496
1765877607.360236,496
1765877607.3602471,496
1765877607.360259,496
1765877607.36027,495
1765877607.3602822,496
1765877607.3602931,496
1765877607.360304,496
1765877607.3603148,496
1765877607.360325,496
1765877607.3603342,496
1765877607.3603442,496
1765877607.3603551,495
1765877607.3603652,496
1765877607.360374,496
1765877607.360384,495
1765877607.360394,496
1765877607.360404,496
1765877607.360414,496
1765877607.360424,496
1765877607.3604338,495
1765877607.3604438,495
1765877607.3604531,496
1765877607.3604639,496
1765877607.360474,496
1765877607.3604841,496
1765877607.3604941,496
1765877607.3605042,496
1765877607.3605142,495
1765877607.360524,495
1765877607.360534,496
1765877607.360543,495
1765877607.360553,495
1765877607.360571,496
1765877607.3605812,496
1765877607.3605912,495
1765877607.3606012,495
1765877607.36061,495
1765877607.36062,495
1765877607.36063,496
1765877607.36064,496
1765877607.3606489,495
1765877607.360659,495
1765877607.360669,495
1765877607.360679,495
1765877607.360689,495
1765877607.360699,495
1765877607.3607092,495
1765877607.3607192,495
1765877607.360729,495
1765877607.360738,495
1765877607.360748,495
1765877607.360759,496
1765877607.360769,495
1765877607.360779,496
1765877607.360789,495
1765877607.360799,495
1765877607.360808,495
1765877607.360818,495
1765877607.360828,495
1765877607.360838,495
1765877607.360848,495
1765877607.3608582,496
1765877607.360868,495
1765877607.360878,495
1765877607.360888,495
1765877607.360898,496
1765877607.360907,495
1765877607.360917,495
1765877607.3609269,496
1765877607.3609369,496
1765877607.360947,495
1765877607.360957,496
1765877607.360966,496
1765877607.360976,495
1765877607.360986,495
1765877607.360996,495
1765877607.361006,495
1765877607.361016,495
1765877607.361026,495
1765877607.361036,496
1765877607.361046,495
1765877607.361056,495
1765877607.361065,495
1765877607.361075,495
1765877607.361085,495
1765877607.361095,496
1765877607.361105,495
1765877607.361115,495
1765877607.3611252,496
1765877607.361135,496
1765877607.361145,495
1765877607.361155,495
1765877607.361495,496
1765877607.362527,495
1765877607.3635268,495
1765877607.364537,496
1765877607.3655019,495
1765877607.366511,496
1765877607.367563,495
1765877607.368531,496
1765877607.369545,496
1765877607.3705862,495
1765877607.3715892,495
1765877607.3725262,496
1765877607.3735628,495
1765877607.37457,495
1765877607.3755798,495
1765877607.376576,496
1765877607.37758,495
1765877607.378547,495
1765877607.37952,495
1765877607.380522,495
1765877607.381618,495
1765877607.3825312,496
1765877607.383567,495
1765877607.3845801,495
1765877607.3855932,496
1765877607.3865721,495
1765877607.3875709,496
1765877607.388608,496
1765877607.3895721,495
1765877607.3905659,495
1765877607.391577,496
1765877607.3926778,495
1765877607.3936021,496
1765877607.3945768,496
1765877607.395628,495
1765877607.396611,495
1765877607.3975859,495
1765877607.3986292,495
1765877607.399634,495
1765877607.400629,496
1765877607.4016252,495
1765877607.402648,495
1765877607.4036028,495
1765877607.404605,496
1765877607.405601,495
1765877607.406603,496
1765877607.4076228,495
1765877607.4086301,496
1765877607.409677,495
1765877607.410678,496
1765877607.411639,496
1765877607.412638,495
1765877607.4136698,495
1765877607.4146628,496
1765877607.415637,496
1765877607.416646,495
1765877607.417685,496
1765877607.4186711,496
1765877607.41967,496
1765877607.42067,496
1765877607.421667,496
1765877607.4226718,496
1765877607.4236789,496
1765877607.424713,496
1765877607.425756,496
1765877607.4267,496
1765877607.427691,495
1765877607.428703,496
1765877607.429684,496
1765877607.4306922,495
1765877607.431697,496
1765877607.432686,495
1765877607.4337,496
1765877607.4347038,496
1765877607.435698,495
1765877607.436696,495
1765877607.437709,495
1765877607.438699,495
1765877607.439719,496
1765877607.440711,496
1765877607.441739,496
1765877607.44274,496
1765877607.443736,495
1765877607.444747,495
1765877607.44574,495
1765877607.446739,495
1765877607.447744,495
1765877607.448739,495
1765877607.449755,496
1765877607.450757,496
1765877607.451753,495
1765877607.45281,495
1765877607.453794,496
1765877607.4548118,495
1765877607.455799,495
1765877607.456768,495
1765877607.457762,495
1765877607.458783,495
1765877607.459774,496
1765877607.4607842,495
1765877607.4617841,495
1765877607.462784,496
1765877607.463785,495
1765877607.46479,495
1765877607.465784,496
1765877607.466806,496
1765877607.467801,496
1765877607.4687948,496
1765877607.469811,495
1765877607.470815,495
1765877607.47181,495
1765877607.472791,496
1765877607.473802,496
1765877607.474823,496
1765877607.475826,497
1765877607.476803,498
1765877607.477807,497
1765877607.478834,499
1765877607.479813,499
1765877607.4808161,498
1765877607.4818182,497
1765877607.482827,495
1765877607.483844,495
1765877607.4848409,494
1765877607.4858408,495
1765877607.486857,494
1765877607.4878411,494
1765877607.488838,494
1765877607.489846,494
1765877607.4908538,495
1765877607.4918668,496
1765877607.4928582,498
1765877607.4938638,499
1765877607.4948869,500
1765877607.495896,501
1765877607.4968781,502
1765877607.497874,503
1765877607.4988768,500
1765877607.499887,494
1765877607.50089,493
1765877607.50189,495
1765877607.5028732,493
1765877607.5038831,492
1765877607.504906,494
1765877607.505908,495
1765877607.506909,495
1765877607.507898,496
1765877607.508895,498
1765877607.5098932,498
1765877607.5108962,498
1765877607.511901,499
1765877607.512925,500
1765877607.513907,501
1765877607.514912,501
1765877607.515931,500
1765877607.516932,500
1765877607.517931,501
1765877607.518927,498
1765877607.519938,492
1765877607.5209322,492
1765877607.521952,493
1765877607.522945,494
1765877607.523958,494
1765877607.524961,495
1765877607.525957,495
1765877607.5269601,495
1765877607.527972,496
1765877607.5289679,496
1765877607.529966,497
1765877607.530968,497
1765877607.531959,495
1765877607.532968,497
1765877607.533977,501
1765877607.5349948,503
1765877607.535997,502
1765877607.5370638,502
1765877607.538162,503
1765877607.5390148,498
1765877607.540069,496
1765877607.541117,494
1765877607.542083,493
1765877607.543081,496
1765877607.544076,497
1765877607.5450869,495
1765877607.5460858,494
1765877607.547085,495
1765877607.548081,496
1765877607.549082,499
1765877607.550116,499
1765877607.551081,498
1765877607.55208,498
1765877607.553076,498
1765877607.554107,494
1765877607.555082,493
1765877607.556187,494
1765877607.557088,496
1765877607.5580852,494
1765877607.559081,491
1765877607.5600839,491
1765877607.561079,492
1765877607.562077,493
1765877607.563078,495
1765877607.564076,498
1765877607.565079,498
1765877607.566087,499
1765877607.567074,497
1765877607.568079,495
1765877607.5690749,494
1765877607.570084,492
1765877607.571092,494
1765877607.5720801,495
1765877607.573079,494
1765877607.574083,494
1765877607.575104,494
1765877607.5761018,494
1765877607.5771048,495
1765877607.578121,494
1765877607.5791612,495
1765877607.5801358,494
1765877607.581126,495
1765877607.5821152,495
1765877607.583127,495
1765877607.5841112,495
1765877607.585122,496
1765877607.586113,496
1765877607.587125,496
1765877607.588128,497
1765877607.58914,496
1765877607.590137,497
1765877607.591155,498
1765877607.592136,501
1765877607.593133,502
1765877607.594142,499
1765877607.595158,502
1765877607.596151,500
1765877607.597156,494
1765877607.5981572,495
1765877607.599154,498
1765877607.600163,499
1765877607.601168,500
1765877607.602174,499
1765877607.603174,496
1765877607.604199,498
1765877607.6052501,499
1765877607.606168,503
1765877607.607212,504
1765877607.6081831,501
1765877607.6091788,497
1765877607.610222,496
1765877607.6111948,491
1765877607.612194,485
1765877607.613201,493
1765877607.6142159,495
1765877607.615199,493
1765877607.6162298,493
1765877607.617281,493
1765877607.6182468,496
1765877607.619273,499
1765877607.6202629,500
1765877607.621264,499
1765877607.622293,496
1765877607.623282,494
1765877607.624259,494
1765877607.625249,496
1765877607.626248,501
1765877607.627275,502
1765877607.628284,496
1765877607.629298,492
1765877607.630295,492
1765877607.631317,492
1765877607.6322792,494
1765877607.633291,492
1765877607.634298,493
1765877607.6352892,494
1765877607.636297,495
1765877607.637323,495
1765877607.638274,495
1765877607.639282,496
1765877607.64027,496
1765877607.641267,496
1765877607.642279,497
1765877607.643303,496
1765877607.644326,495
1765877607.6453109,496
1765877607.646303,495
1765877607.647317,495
1765877607.648302,495
1765877607.6492999,494
1765877607.650305,494
1765877607.651299,495
1765877607.652304,495
1765877607.653323,496
1765877607.6543329,495
1765877607.6553679,494
1765877607.656341,494
1765877607.65733,494
1765877607.658327,494
1765877607.6593611,495
1765877607.660363,495
1765877607.661385,495
1765877607.662414,496
1765877607.663431,496
1765877607.664352,496
1765877607.6653519,496
1765877607.666395,496
1765877607.667375,495
1765877607.668371,494
1765877607.669385,495
1765877607.6703842,496
1765877607.671386,497
1765877607.6723762,494
1765877607.673454,494
1765877607.674419,495
1765877607.6754088,496
1765877607.676394,496
1765877607.677419,496
1765877607.678435,498
1765877607.679415,501
1765877607.6804118,506
1765877607.681407,508
1765877607.682403,505
1765877607.683394,498
1765877607.6844,495
1765877607.6854012,491
1765877607.686404,492
1765877607.687403,493
1765877607.6883972,492
1765877607.6894028,494
1765877607.6904058,495
1765877607.691417,496
1765877607.692425,497
1765877607.693422,496
1765877607.694422,497
1765877607.6954172,499
1765877607.696424,499
1765877607.697427,496
1765877607.6984289,493
1765877607.699435,494
1765877607.700445,496
1765877607.7014651,494
1765877607.7024598,491
1765877607.703455,491
1765877607.704455,492
1765877607.70545,492
1765877607.706453,495
1765877607.7074602,497
1765877607.708492,497
1765877607.709481,495
1765877607.710476,495
1765877607.711465,494
1765877607.712481,494
1765877607.713484,494
1765877607.714487,495
1765877607.7154949,496
1765877607.716486,495
1765877607.7174919,494
1765877607.718496,495
1765877607.719496,495
1765877607.7205,495
1765877607.721499,495
1765877607.722497,495
1765877607.723514,495
1765877607.7245052,495
1765877607.725503,495
1765877607.726515,495
1765877607.727519,496
1765877607.7285252,496
1765877607.729528,496
1765877607.7305448,497
1765877607.731549,496
1765877607.732577,495
1765877607.733578,494
1765877607.7345762,495
1765877607.735554,495
1765877607.736543,494
1765877607.7375512,494
1765877607.738543,495
1765877607.7395551,495
1765877607.740604,496
1765877607.741617,496
1765877607.742597,494
1765877607.743577,494
1765877607.744629,496
1765877607.7456,495
1765877607.746619,495
1765877607.74761,495
1765877607.748571,494
1765877607.749577,495
1765877607.7506208,496
1765877607.7516181,496
1765877607.752595,496
1765877607.7536309,497
1765877607.754637,496
1765877607.75564,495
1765877607.756646,495
1765877607.757642,495
1765877607.758642,495
1765877607.759648,495
1765877607.760608,496
1765877607.761601,496
1765877607.7626638,497
1765877607.763666,499
1765877607.764673,503
1765877607.7656589,502
1765877607.766637,500
1765877607.76763,502
1765877607.768678,498
1765877607.769678,490
1765877607.7706811,493
1765877607.771682,496
1765877607.772697,495
1765877607.773646,493
1765877607.7746592,493
1765877607.775698,493
1765877607.776703,494
1765877607.777695,494
1765877607.778657,494
1765877607.77965,494
1765877607.780663,495
1765877607.781715,495
1765877607.7827232,495
1765877607.783684,495
1765877607.784699,494
1765877607.785764,495
1765877607.7867332,495
1765877607.787688,495
1765877607.788687,497
1765877607.789717,495
1765877607.790719,495
1765877607.791726,495
1765877607.792722,494
1765877607.7937121,495
1765877607.794697,496
1765877607.795701,496
1765877607.79675,497
1765877607.797766,497
1765877607.798749,496
1765877607.7997088,494
1765877607.800715,494
1765877607.801732,495
1765877607.802762,496
1765877607.803769,496
1765877607.804748,495
1765877607.805748,495
1765877607.806796,497
1765877607.807761,495
1765877607.8087628,495
1765877607.80976,496
1765877607.8108,495
1765877607.811767,497
1765877607.812764,498
1765877607.813855,498
1765877607.814826,498
1765877607.815819,499
1765877607.816772,495
1765877607.817785,493
1765877607.818794,494
1765877607.81985,496
1765877607.820832,494
1765877607.821833,495
1765877607.822798,495
1765877607.823801,498
1765877607.824777,499
1765877607.825856,499
1765877607.826817,497
1765877607.827861,492
1765877607.8288288,494
1765877607.829865,495
1765877607.830851,495
1765877607.831826,496
1765877607.832834,496
1765877607.833867,496
1765877607.834861,496
1765877607.835814,494
1765877607.836831,495
1765877607.837834,495
1765877607.8388941,495
1765877607.839827,495
1765877607.8408399,495
1765877607.84184,495
1765877607.842887,494
1765877607.843832,495
1765877607.844852,495
1765877607.8459089,495
1765877607.846838,495
1765877607.8478699,495
1765877607.8488479,496
1765877607.849916,496
1765877607.850909,496
1765877607.851907,497
1765877607.85292,497
1765877607.853923,496
1765877607.854927,496
1765877607.8559282,495
1765877607.856915,495
1765877607.8579142,495
1765877607.858922,495
1765877607.859933,497
1765877607.8609421,496
1765877607.8619,496
1765877607.8628979,496
1765877607.863903,496
1765877607.864888,497
1765877607.865942,497
1765877607.866946,497
1765877607.867955,498
1765877607.868931,497
1765877607.870003,497
1765877607.870956,498
1765877607.871933,499
1765877607.8729181,498
1765877607.873918,497
1765877607.874922,497
1765877607.875957,495
1765877607.876936,496
1765877607.877941,496
1765877607.878954,497
1765877607.879936,496
1765877607.880934,497
1765877607.881954,495
1765877607.8829708,495
1765877607.883991,495
1765877607.884984,496
1765877607.885959,497
1765877607.886961,497
1765877607.887959,497
1765877607.888978,496
1765877607.8899798,494
1765877607.890997,495
1765877607.8920069,499
1765877607.892989,500
1765877607.894134,503
1765877607.8951309,503
1765877607.8960729,501
1765877607.8970659,494
1765877607.89807,491
1765877607.89908,495
1765877607.900071,494
1765877607.901088,494
1765877607.902091,494
1765877607.903073,494
1765877607.9040792,495
1765877607.9050891,495
1765877607.90607,494
1765877607.907079,495
1765877607.90808,495
1765877607.90908,495
1765877607.9101021,495
1765877607.911145,495
1765877607.912085,495
1765877607.9130838,496
1765877607.914121,496
1765877607.9150982,497
1765877607.916082,496
1765877607.917102,497
1765877607.9180832,496
1765877607.9190772,496
1765877607.920086,496
1765877607.921094,495
1765877607.922098,494
1765877607.923079,496
1765877607.9240909,496
1765877607.925087,496
1765877607.92609,496
1765877607.92709,497
1765877607.928084,496
1765877607.929085,495
1765877607.9300869,496
1765877607.931099,496
1765877607.9320982,495
1765877607.933136,497
1765877607.93411,496
1765877607.93517,498
1765877607.9361112,498
1765877607.9371169,497
1765877607.938117,495
1765877607.939106,494
1765877607.940138,495
1765877607.941138,495
1765877607.942119,495
1765877607.943116,495
1765877607.944138,495
1765877607.945141,495
1765877607.9461482,495
1765877607.947146,496
1765877607.9481542,495
1765877607.949159,495
1765877607.9501598,495
1765877607.951154,496
1765877607.9521751,495
1765877607.953208,496
1765877607.954196,495
1765877607.955167,495
1765877607.956169,494
1765877607.95717,495
1765877607.9581661,495
1765877607.959188,495
1765877607.9602282,495
1765877607.9611819,496
1765877607.962186,499
1765877607.963186,499
1765877607.964176,500
1765877607.965191,496
1765877607.9662101,494
1765877607.96722,493
1765877607.968214,495
1765877607.969215,495
1765877607.970201,494
1765877607.971223,494
1765877607.972207,495
1765877607.9732301,495
1765877607.974226,495
1765877607.975234,495
1765877607.976228,495
1765877607.977226,495
1765877607.978237,495
1765877607.979232,495
1765877607.980222,495
1765877607.9812422,495
1765877607.9822469,496
1765877607.983252,496
1765877607.9842591,495
1765877607.985274,495
1765877607.9862669,495
1765877607.9872682,496
1765877607.988269,496
1765877607.989274,495
1765877607.99028,495
1765877607.9912589,495
1765877607.992312,495
1765877607.993294,496
1765877607.9942982,496
1765877607.995317,495
1765877607.996323,493
1765877607.997312,496
1765877607.998304,496
1765877607.999284,496
1765877608.0003042,496
1765877608.001309,496
1765877608.0022888,496
1765877608.0033028,495
1765877608.004334,495
1765877608.0053189,495
1765877608.006316,495
1765877608.007324,495
1765877608.008321,494
1765877608.0093288,495
1765877608.010334,494
1765877608.011329,495
1765877608.012334,495
1765877608.013325,496
1765877608.014326,495
1765877608.015323,495
1765877608.016324,495
1765877608.017333,495
1765877608.0183501,496
1765877608.0193532,496
1765877608.020345,496
1765877608.021348,496
1765877608.022348,495
1765877608.02336,495
1765877608.024352,494
1765877608.0253499,495
1765877608.026356,496
1765877608.027354,496
1765877608.0283892,496
1765877608.0293949,495
1765877608.0303931,495
1765877608.031373,494
1765877608.032375,495
1765877608.033399,495
1765877608.034396,494
1765877608.035399,495
1765877608.036397,495
1765877608.037466,496
1765877608.038441,497
1765877608.039446,496
1765877608.040403,497
1765877608.041426,497
1765877608.042421,494
1765877608.043408,493
1765877608.0444102,495
1765877608.045434,493
1765877608.0464199,494
1765877608.047413,495
1765877608.04843,495
1765877608.049443,494
1765877608.050464,496
1765877608.051472,496
1765877608.052474,496
1765877608.053519,496
1765877608.054543,497
1765877608.055496,497
1765877608.056479,496
1765877608.057452,496
1765877608.0584772,495
1765877608.0594728,493
1765877608.0604851,494
1765877608.0615191,495
1765877608.0624971,494
1765877608.063494,494
1765877608.06448,495
1765877608.065472,495
1765877608.0664802,495
1765877608.0675142,495
1765877608.068514,495
1765877608.0695128,495
1765877608.070542,495
1765877608.07152,494
1765877608.07252,495
1765877608.073518,497
1765877608.07451,496
1765877608.0754921,497
1765877608.076504,495
1765877608.077526,496
1765877608.078527,495
1765877608.079545,492
1765877608.08054,495
1765877608.0815418,496
1765877608.082557,495
1765877608.083522,495
1765877608.084566,494
1765877608.085532,493
1765877608.086526,495
1765877608.087539,496
1765877608.088543,495
1765877608.0895329,495
1765877608.090524,495
1765877608.091525,496
1765877608.092557,496
1765877608.09356,496
1765877608.094534,495
1765877608.0955799,494
1765877608.0965781,495
1765877608.097574,496
1765877608.098561,496
1765877608.0995579,495
1765877608.100563,496
1765877608.101575,495
1765877608.102564,494
1765877608.1035829,494
1765877608.104585,494
1765877608.105578,495
1765877608.106585,495
1765877608.107585,494
1765877608.108586,494
1765877608.10958,495
1765877608.1105978,496
1765877608.111594,497
1765877608.112659,499
1765877608.113622,499
1765877608.1146271,496
1765877608.115608,493
1765877608.116632,493
1765877608.117604,494
1765877608.118672,495
1765877608.1196558,494
1765877608.120652,495
1765877608.121685,496
1765877608.122656,495
1765877608.1236649,495
1765877608.124663,497
1765877608.125669,496
1765877608.126656,496
1765877608.127628,494
1765877608.128654,495
1765877608.129668,495
1765877608.130663,495
1765877608.1316679,494
1765877608.1326442,495
1765877608.133663,495
1765877608.1346638,495
1765877608.1356711,495
1765877608.136677,495
1765877608.1376798,495
1765877608.138685,495
1765877608.139681,495
1765877608.140675,495
1765877608.141672,495
1765877608.1426969,494
1765877608.1436942,495
1765877608.144695,495
1765877608.145709,496
1765877608.14671,496
1765877608.147695,496
1765877608.148705,496
1765877608.149706,495
1765877608.1507032,494
1765877608.15171,495
1765877608.1527,495
1765877608.153713,495
1765877608.154738,495
1765877608.155733,494
1765877608.156717,493
1765877608.157722,494
1765877608.158726,494
1765877608.159738,494
1765877608.160751,495
1765877608.161952,495
1765877608.1627939,495
1765877608.1638029,495
1765877608.164769,495
1765877608.1657548,495
1765877608.166765,495
1765877608.167766,495
1765877608.1687622,495
1765877608.1697578,495
1765877608.170785,496
1765877608.1717749,495
1765877608.172787,496
1765877608.173792,495
1765877608.1747892,494
1765877608.1757948,495
1765877608.1767921,496
1765877608.177807,496
1765877608.1787992,498
1765877608.179809,500
1765877608.180799,500
1765877608.181803,499
1765877608.182815,493
1765877608.183799,491
1765877608.184809,492
1765877608.185801,493
1765877608.186812,494
1765877608.187815,494
1765877608.1888268,495
1765877608.189806,496
1765877608.190807,496
1765877608.1918201,496
1765877608.1928189,495
1765877608.193828,495
1765877608.1948318,496
1765877608.1958451,496
1765877608.1968389,496
1765877608.19784,496
1765877608.198827,494
1765877608.1998441,495
1765877608.200873,495
1765877608.201859,495
1765877608.202862,495
1765877608.203866,495
1765877608.2048829,495
1765877608.205867,495
1765877608.20688,495
1765877608.207862,495
1765877608.2088718,495
1765877608.2098691,495
1765877608.21089,496
1765877608.211968,496
1765877608.212885,495
1765877608.213891,496
1765877608.214874,495
1765877608.215891,496
1765877608.216875,496
1765877608.217896,495
1765877608.218889,495
1765877608.2198908,495
1765877608.2209191,496
1765877608.221896,495
1765877608.2229,494
1765877608.2239292,494
1765877608.2249238,496
1765877608.225931,496
1765877608.2269409,496
1765877608.2279181,496
1765877608.228928,497
1765877608.229944,496
1765877608.230932,496
1765877608.231955,497
1765877608.232943,497
1765877608.233946,497
1765877608.234944,496
1765877608.2359319,496
1765877608.236941,496
1765877608.237977,496
1765877608.238942,496
1765877608.2399528,496
1765877608.240957,496
1765877608.2419672,496
1765877608.242965,496
1765877608.2439601,496
1765877608.2450151,496
1765877608.246043,496
1765877608.246984,495
1765877608.247974,495
1765877608.248984,497
1765877608.249973,498
1765877608.250984,498
1765877608.251981,498
1765877608.253002,495
1765877608.254015,493
1765877608.2550101,494
1765877608.256002,496
1765877608.257008,496
1765877608.258003,496
1765877608.259003,495
1765877608.260095,494
1765877608.2610838,494
1765877608.262094,495
1765877608.263092,495
1765877608.264098,495
1765877608.265089,496
1765877608.266096,495
1765877608.2670872,495
1765877608.268106,496
1765877608.269095,495
1765877608.270087,494
1765877608.2710981,495
1765877608.2720902,495
1765877608.273089,494
1765877608.274106,495
1765877608.2750819,495
1765877608.276096,494
1765877608.2770839,496
1765877608.278089,496
1765877608.279101,496
1765877608.2800891,495
1765877608.2810829,494
1765877608.282093,494
1765877608.283088,495
1765877608.284085,496
1765877608.285097,495
1765877608.286108,495
1765877608.2871192,495
1765877608.28811,495
1765877608.289106,495
1765877608.290106,495
1765877608.291096,495
1765877608.292106,495
1765877608.293111,495
1765877608.2941,495
1765877608.295124,495
1765877608.29613,495
1765877608.297127,495
1765877608.2981162,495
1765877608.299126,495
1765877608.3001401,496
1765877608.301151,495
1765877608.302134,495
1765877608.3031502,495
1765877608.3041751,496
1765877608.305154,495
1765877608.306185,496
1765877608.307162,496
1765877608.308169,498
1765877608.309203,499
1765877608.310192,498
1765877608.311185,497
1765877608.312186,494
1765877608.313204,492
1765877608.3142002,494
1765877608.3151958,494
1765877608.3162072,494
1765877608.3172119,494
1765877608.318196,494
1765877608.319227,495
1765877608.3202162,494
1765877608.321207,495
1765877608.322208,496
1765877608.323199,497
1765877608.324203,496
1765877608.325224,496
1765877608.3262231,496
1765877608.327229,492
1765877608.328234,494
1765877608.329322,495
1765877608.330443,495
1765877608.331337,495
1765877608.3322601,495
1765877608.3332548,496
1765877608.334243,495
1765877608.335237,495
1765877608.33625,494
