timestamp,emg_value
1765877603.7112021,497
1765877603.711244,497
1765877603.7112901,497
1765877603.711307,495
1765877603.7113202,491
1765877603.711338,493
1765877603.71135,494
1765877603.711363,494
1765877603.711375,494
1765877603.7113879,494
1765877603.711401,495
1765877603.7114408,494
1765877603.711456,494
1765877603.7114692,495
1765877603.711482,495
1765877603.711494,495
1765877603.711506,495
1765877603.7115269,495
1765877603.711539,494
1765877603.711551,494
1765877603.711563,495
1765877603.711575,495
1765877603.7115881,495
1765877603.7116,496
1765877603.711612,493
1765877603.711641,494
1765877603.7116601,495
1765877603.711672,495
1765877603.711688,496
1765877603.7117,497
1765877603.711712,497
1765877603.711724,496
1765877603.711736,494
1765877603.7117991,494
1765877603.711812,495
1765877603.711824,495
1765877603.7118359,494
1765877603.711849,494
1765877603.711861,495
1765877603.711904,495
1765877603.7119129,494
1765877603.7119281,495
1765877603.7119339,495
1765877603.71194,495
1765877603.711946,495
1765877603.711952,495
1765877603.711958,495
1765877603.711964,496
1765877603.71197,496
1765877603.711976,495
1765877603.711982,495
1765877603.71199,493
1765877603.711998,493
1765877603.712008,494
1765877603.7120142,495
1765877603.71202,495
1765877603.7120261,495
1765877603.712051,495
1765877603.712058,495
1765877603.712064,494
1765877603.71207,495
1765877603.712076,495
1765877603.712082,495
1765877603.712088,495
1765877603.7120929,495
1765877603.71217,496
1765877603.712179,496
1765877603.7121851,497
1765877603.7121909,496
1765877603.712197,496
1765877603.712203,494
1765877603.712209,495
1765877603.712215,494
1765877603.712221,494
1765877603.7122948,494
1765877603.712302,495
1765877603.712308,495
1765877603.7123241,495
1765877603.712332,495
1765877603.712339,496
1765877603.712346,495
1765877603.712351,495
1765877603.712357,495
1765877603.712363,495
1765877603.712369,495
1765877603.712375,496
1765877603.7123818,496
1765877603.712388,496
1765877603.712394,496
1765877603.7124,495
1765877603.712406,495
1765877603.7124119,497
1765877603.712418,497
1765877603.71243,497
1765877603.7127008,498
1765877603.7127092,498
1765877603.712715,498
1765877603.7127209,499
1765877603.712727,499
1765877603.712733,497
1765877603.712739,495
1765877603.712745,493
1765877603.7127512,495
1765877603.712757,496
1765877603.7127628,495
1765877603.71292,495
1765877603.712938,495
1765877603.712945,495
1765877603.712951,496
1765877603.7136772,495
1765877603.713683,496
1765877603.713689,496
1765877603.713695,496
1765877603.713701,495
1765877603.713707,495
1765877603.713713,496
1765877603.7137191,495
1765877603.7137249,496
1765877603.713731,496
1765877603.713737,496
1765877603.713742,494
1765877603.713748,494
1765877603.7137542,495
1765877603.71376,496
1765877603.7137659,496
1765877603.713773,496
1765877603.713778,497
1765877603.713784,496
1765877603.71379,496
1765877603.7144718,496
1765877603.714478,495
1765877603.714487,495
1765877603.714493,495
1765877603.7145002,494
1765877603.714506,495
1765877603.7145128,496
1765877603.714519,496
1765877603.7145238,495
1765877603.71453,495
1765877603.714536,496
1765877603.7145422,496
1765877603.7145479,495
1765877603.714554,495
1765877603.714571,495
1765877603.714577,496
1765877603.7145832,496
1765877603.7145889,496
1765877603.7145941,496
1765877603.7145998,496
1765877603.714606,495
1765877603.714612,496
1765877603.7146182,496
1765877603.714624,495
1765877603.71463,496
1765877603.714636,496
1765877603.714644,494
1765877603.7146502,495
1765877603.714656,496
1765877603.714664,496
1765877603.714672,496
1765877603.714678,495
1765877603.714684,495
1765877603.71469,495
1765877603.714696,496
1765877603.7147021,495
1765877603.7147079,495
1765877603.714713,496
1765877603.714719,496
1765877603.714725,495
1765877603.714731,495
1765877603.714737,495
1765877603.7147431,495
1765877603.7147489,495
1765877603.714777,496
1765877603.714783,498
1765877603.7147892,498
1765877603.714795,498
1765877603.7148008,499
1765877603.714807,499
1765877603.7148118,500
1765877603.714818,497
1765877603.714824,493
1765877603.7148302,493
1765877603.714836,492
1765877603.714842,493
1765877603.714849,494
1765877603.714856,494
1765877603.714862,494
1765877603.714868,495
1765877603.714874,495
1765877603.71488,496
1765877603.714886,495
1765877603.7148921,496
1765877603.7148979,496
1765877603.714903,496
1765877603.7149088,496
1765877603.714915,496
1765877603.714921,496
1765877603.7149272,495
1765877603.714933,495
1765877603.714946,495
1765877603.7149591,495
1765877603.714965,495
1765877603.7149708,495
1765877603.714977,496
1765877603.714983,496
1765877603.714989,495
1765877603.714995,495
1765877603.715001,495
1765877603.7150059,495
1765877603.715012,496
1765877603.715018,495
1765877603.715026,496
1765877603.715034,496
1765877603.71504,496
1765877603.715046,496
1765877603.7150521,496
1765877603.7150578,495
1765877603.715064,495
1765877603.7150688,495
1765877603.715075,496
1765877603.715081,496
1765877603.7150872,496
1765877603.715093,496
1765877603.7150989,498
1765877603.715105,498
1765877603.715111,499
1765877603.715116,499
1765877603.715122,498
1765877603.715128,497
1765877603.715134,494
1765877603.71514,493
1765877603.715146,495
1765877603.715156,495
1765877603.715162,494
1765877603.715168,494
1765877603.715174,495
1765877603.71518,495
1765877603.7151859,494
1765877603.715193,494
1765877603.7152,494
1765877603.715206,493
1765877603.715212,494
1765877603.7152178,495
1765877603.715224,495
1765877603.71523,495
1765877603.7152362,495
1765877603.715242,496
1765877603.715248,495
1765877603.715254,496
1765877603.7152598,495
1765877603.715266,495
1765877603.715272,495
1765877603.715277,495
1765877603.715283,495
1765877603.715289,495
1765877603.715295,495
1765877603.715301,496
1765877603.715307,495
1765877603.715313,496
1765877603.7153192,496
1765877603.7153249,495
1765877603.7153301,496
1765877603.7153358,496
1765877603.715342,496
1765877603.715348,496
1765877603.7153559,495
1765877603.715363,496
1765877603.715369,497
1765877603.7153752,496
1765877603.715381,495
1765877603.7153862,496
1765877603.715392,495
1765877603.7153978,493
1765877603.7154062,495
1765877603.715412,495
1765877603.715418,496
1765877603.715424,496
1765877603.7154298,496
1765877603.715436,496
1765877603.715442,495
1765877603.7154481,495
1765877603.7154539,495
1765877603.715459,495
1765877603.715465,495
1765877603.715471,496
1765877603.715477,495
1765877603.715483,496
1765877603.715489,495
1765877603.7154949,496
1765877603.715501,497
1765877603.715507,497
1765877603.7155142,496
1765877603.715521,496
1765877603.7155268,495
1765877603.715533,495
1765877603.715539,495
1765877603.7155452,496
1765877603.715551,496
1765877603.715557,496
1765877603.715563,496
1765877603.7155688,496
1765877603.715575,498
1765877603.71558,497
1765877603.715586,496
1765877603.715592,494
1765877603.715598,495
1765877603.715604,495
1765877603.71561,496
1765877603.715619,495
1765877603.715625,495
1765877603.715631,496
1765877603.715637,496
1765877603.715643,495
1765877603.7156491,495
1765877603.7156549,495
1765877603.715661,495
1765877603.715667,494
1765877603.715672,495
1765877603.71568,495
1765877603.7156868,495
1765877603.715693,495
1765877603.715702,496
1765877603.715708,495
1765877603.715714,496
1765877603.71572,496
1765877603.7157261,497
1765877603.7157319,496
1765877603.715737,494
1765877603.715743,495
1765877603.71579,496
1765877603.7158,496
1765877603.715806,496
1765877603.7158122,496
1765877603.715818,496
1765877603.7158241,496
1765877603.71583,496
1765877603.7158358,496
1765877603.715842,496
1765877603.715848,495
1765877603.7158542,495
1765877603.71586,495
1765877603.715866,495
1765877603.715872,496
1765877603.7158778,495
1765877603.715886,496
1765877603.715893,496
1765877603.715899,495
1765877603.715905,495
1765877603.715911,495
1765877603.715917,495
1765877603.7159228,496
1765877603.715929,496
1765877603.715978,497
1765877603.7159839,497
1765877603.71599,497
1765877603.7159958,495
1765877603.716002,494
1765877603.716008,495
1765877603.7160141,495
1765877603.7160199,496
1765877603.716026,496
1765877603.716031,496
1765877603.716037,496
1765877603.716044,495
1765877603.716049,495
1765877603.7160552,496
1765877603.7160609,497
1765877603.716067,496
1765877603.716073,495
1765877603.716079,495
1765877603.716085,494
1765877603.7160928,495
1765877603.716099,495
1765877603.716105,495
1765877603.7161112,496
1765877603.716117,496
1765877603.7161229,496
1765877603.716129,495
1765877603.716135,496
1765877603.716141,495
1765877603.716344,496
1765877603.716359,495
1765877603.716372,496
1765877603.7163851,496
1765877603.716397,495
1765877603.7164092,495
1765877603.7164218,496
1765877603.716434,496
1765877603.716446,495
1765877603.7164679,495
1765877603.716474,495
1765877603.71648,495
1765877603.716486,496
1765877603.716492,496
1765877603.716498,496
1765877603.716504,496
1765877603.71651,495
1765877603.716516,496
1765877603.7165241,496
1765877603.7165298,495
1765877603.716537,496
1765877603.716543,495
1765877603.7165482,495
1765877603.716554,496
1765877603.71656,495
1765877603.716566,496
1765877603.7165718,494
1765877603.716578,496
1765877603.716584,495
1765877603.7165902,496
1765877603.716595,496
1765877603.7166011,495
1765877603.716607,496
1765877603.716613,496
1765877603.716619,496
1765877603.716625,496
1765877603.716631,496
1765877603.716637,495
1765877603.7166421,496
1765877603.7166479,496
1765877603.716654,495
1765877603.71666,495
1765877603.7166662,495
1765877603.716672,495
1765877603.7166789,496
1765877603.716686,496
1765877603.716692,495
1765877603.7166982,496
1765877603.716704,496
1765877603.7167099,495
1765877603.716715,496
1765877603.7167208,496
1765877603.716727,496
1765877603.716733,495
1765877603.7167392,495
1765877603.716745,496
1765877603.7167501,496
1765877603.7167559,495
1765877603.716762,495
1765877603.716768,495
1765877603.716774,496
1765877603.71678,496
1765877603.716785,495
1765877603.7167912,496
1765877603.7167969,496
1765877603.716803,496
1765877603.716809,496
1765877603.716815,496
1765877603.71682,496
1765877603.7168262,495
1765877603.716832,495
1765877603.716841,496
1765877603.7168472,497
1765877603.716853,497
1765877603.7168589,497
1765877603.716865,497
1765877603.7168782,497
1765877603.716883,497
1765877603.7168891,497
1765877603.7168949,497
1765877603.7169018,497
1765877603.7169092,497
1765877603.716916,497
1765877603.716923,496
1765877603.716929,496
1765877603.716934,496
1765877603.71694,497
1765877603.716946,496
1765877603.716952,497
1765877603.716958,495
1765877603.716964,496
1765877603.71697,496
1765877603.7169752,496
1765877603.716981,496
1765877603.716987,496
1765877603.716993,496
1765877603.7169988,496
1765877603.717006,496
1765877603.717013,496
1765877603.7170188,495
1765877603.717025,496
1765877603.717031,496
1765877603.717036,496
1765877603.717042,496
1765877603.7170482,497
1765877603.717054,496
1765877603.71706,496
1765877603.7170649,496
1765877603.717071,496
1765877603.717077,495
1765877603.717083,496
1765877603.717088,496
1765877603.717094,496
1765877603.7171001,496
1765877603.7171059,496
1765877603.717112,496
1765877603.7171168,496
1765877603.717123,496
1765877603.717129,496
1765877603.717134,495
1765877603.71714,496
1765877603.7171462,495
1765877603.717152,496
1765877603.7171571,496
1765877603.717165,496
1765877603.717171,496
1765877603.7171772,495
1765877603.717184,495
1765877603.717191,496
1765877603.717197,496
1765877603.717203,496
1765877603.717209,495
1765877603.7172139,496
1765877603.71722,495
1765877603.717226,496
1765877603.7172322,496
1765877603.717238,495
1765877603.717244,496
1765877603.71725,496
1765877603.7172549,496
1765877603.717261,496
1765877603.717267,496
1765877603.717273,496
1765877603.717279,496
1765877603.7172852,496
1765877603.71729,496
1765877603.7172961,496
1765877603.717302,496
1765877603.7173078,496
1765877603.717332,496
1765877603.717338,495
1765877603.717346,495
1765877603.7173529,496
1765877603.717359,496
1765877603.717364,496
1765877603.71737,495
1765877603.717376,496
1765877603.717382,496
1765877603.717388,495
1765877603.7173939,496
1765877603.7174,496
1765877603.717406,496
1765877603.717411,496
1765877603.717417,495
1765877603.7174232,496
1765877603.717429,496
1765877603.717435,496
1765877603.717441,496
1765877603.7174459,496
1765877603.717452,496
1765877603.717458,496
1765877603.717464,495
1765877603.71747,495
1765877603.7174761,496
1765877603.717482,496
1765877603.717487,496
1765877603.717493,496
1765877603.7174988,496
1765877603.7175071,496
1765877603.717514,496
1765877603.7175198,496
1765877603.717526,495
1765877603.717532,496
1765877603.717538,496
1765877603.7175438,496
1765877603.7175539,496
1765877603.71756,495
1765877603.717566,495
1765877603.7175722,496
1765877603.717578,496
1765877603.717584,496
1765877603.71759,496
1765877603.7175949,496
1765877603.717616,496
1765877603.717658,496
1765877603.7176661,495
1765877603.717673,495
1765877603.7176802,496
1765877603.717744,496
1765877603.71776,496
1765877603.717773,496
1765877603.717786,496
1765877603.717799,496
1765877603.717812,496
1765877603.717828,496
1765877603.7178419,496
1765877603.717854,496
1765877603.717867,496
1765877603.71788,497
1765877603.7178922,496
1765877603.7179048,496
1765877603.717917,496
1765877603.7179341,496
1765877603.7179468,496
1765877603.71796,496
1765877603.717973,496
1765877603.717986,496
1765877603.717998,496
1765877603.718011,497
1765877603.718024,496
1765877603.718037,496
1765877603.71805,496
1765877603.718063,496
1765877603.7180748,496
1765877603.718088,496
1765877603.718101,496
1765877603.7181141,496
1765877603.718127,496
1765877603.718184,496
1765877603.718199,496
1765877603.718215,496
1765877603.718229,496
1765877603.718242,496
1765877603.718271,495
1765877603.7182841,495
1765877603.718296,496
1765877603.718348,496
1765877603.718356,496
1765877603.7183628,496
1765877603.718369,496
1765877603.718375,496
1765877603.7183812,496
1765877603.718387,496
1765877603.718393,496
1765877603.718399,496
1765877603.718405,496
1765877603.718411,496
1765877603.718417,496
1765877603.7184231,496
1765877603.7184289,496
1765877603.718435,496
1765877603.718441,496
1765877603.7184472,496
1765877603.718453,496
1765877603.7184582,496
1765877603.718464,496
1765877603.7184699,496
1765877603.7184792,496
1765877603.718488,496
1765877603.718494,496
1765877603.7185001,496
1765877603.718505,496
1765877603.718511,496
1765877603.718517,496
1765877603.7185228,496
1765877603.718529,496
1765877603.718535,496
1765877603.7185411,496
1765877603.7185469,495
1765877603.718554,496
1765877603.71856,496
1765877603.718566,495
1765877603.7185721,495
1765877603.718577,496
1765877603.718583,495
1765877603.7185888,496
1765877603.718595,496
1765877603.718601,496
1765877603.7186072,496
1765877603.718613,496
1765877603.7186189,496
1765877603.718625,496
1765877603.718631,496
1765877603.718637,496
1765877603.718646,496
1765877603.718652,496
1765877603.718658,496
1765877603.718664,496
1765877603.718669,496
1765877603.718675,496
1765877603.718681,495
1765877603.718687,496
1765877603.718694,496
1765877603.7187,496
1765877603.718706,496
1765877603.718712,495
1765877603.718718,496
1765877603.718724,496
1765877603.718729,496
1765877603.7187352,496
1765877603.718741,496
1765877603.718747,496
1765877603.718753,496
1765877603.7187588,496
1765877603.718765,496
1765877603.718771,496
1765877603.718776,496
1765877603.718782,496
1765877603.7187881,495
1765877603.7187939,495
1765877603.718802,496
1765877603.7188091,496
1765877603.718814,496
1765877603.71882,496
1765877603.718826,496
1765877603.718832,496
1765877603.718838,496
1765877603.718844,496
1765877603.7188501,496
1765877603.7188559,496
1765877603.718862,496
1765877603.718868,496
1765877603.7188742,497
1765877603.71888,496
1765877603.718886,496
1765877603.718892,496
1765877603.7188978,496
1765877603.718904,496
1765877603.71891,496
1765877603.7189162,496
1765877603.718922,496
1765877603.7189279,496
1765877603.718934,497
1765877603.71894,496
1765877603.718946,496
1765877603.718952,495
1765877603.7189581,495
1765877603.718966,495
1765877603.718973,496
1765877603.7189791,496
1765877603.7189848,496
1765877603.718991,496
1765877603.718997,496
1765877603.719003,496
1765877603.719009,496
1765877603.719014,496
1765877603.7190201,496
1765877603.7190259,495
1765877603.719032,496
1765877603.719038,496
1765877603.7190442,496
1765877603.71905,496
1765877603.719056,496
1765877603.719062,496
1765877603.7190678,496
1765877603.719074,497
1765877603.71908,496
1765877603.719085,496
1765877603.719091,496
1765877603.7190971,496
1765877603.7191029,495
1765877603.719109,496
1765877603.719115,496
1765877603.719121,496
1765877603.71913,496
1765877603.719136,496
1765877603.719143,496
1765877603.719149,495
1765877603.7191548,496
1765877603.719161,497
1765877603.719167,496
1765877603.7191732,496
1765877603.719178,496
1765877603.719184,496
1765877603.7191901,496
1765877603.7191958,496
1765877603.719202,496
1765877603.719208,496
1765877603.719214,495
1765877603.71922,496
1765877603.7192261,496
1765877603.719232,497
1765877603.7192378,496
1765877603.719244,496
1765877603.71925,496
1765877603.7192562,497
1765877603.719262,496
1765877603.719268,496
1765877603.719274,496
1765877603.719279,496
1765877603.719312,497
1765877603.719319,496
1765877603.7193248,496
1765877603.719331,496
1765877603.719337,496
1765877603.7193432,496
1765877603.719349,496
1765877603.7193549,496
1765877603.719361,496
1765877603.719367,496
1765877603.719373,496
1765877603.719379,496
1765877603.7193851,496
1765877603.7193909,496
1765877603.7193978,496
1765877603.719404,496
1765877603.71941,496
1765877603.7194161,496
1765877603.7194219,496
1765877603.719428,496
1765877603.719434,496
1765877603.71944,496
1765877603.719446,496
1765877603.719452,496
1765877603.719458,496
1765877603.7194638,496
1765877603.71947,496
1765877603.7194781,496
1765877603.719486,496
1765877603.7194922,496
1765877603.719498,496
1765877603.7195039,496
1765877603.71951,496
1765877603.7195158,496
1765877603.719521,496
1765877603.719527,496
1765877603.719533,496
1765877603.719539,497
1765877603.71955,496
1765877603.719558,496
1765877603.7195652,496
1765877603.7195709,496
1765877603.719584,496
1765877603.719593,496
1765877603.719599,496
1765877603.719608,496
1765877603.719614,496
1765877603.71962,496
1765877603.719626,496
1765877603.719632,497
1765877603.719638,496
1765877603.7196429,496
1765877603.719649,497
1765877603.7196548,497
1765877603.719664,498
1765877603.71967,497
1765877603.719676,498
1765877603.719682,498
1765877603.719688,498
1765877603.719693,498
1765877603.719764,497
1765877603.719775,497
1765877603.7197812,497
1765877603.7197871,498
1765877603.7197928,497
1765877603.719799,498
1765877603.719805,497
1765877603.719811,496
1765877603.719817,496
1765877603.7198231,497
1765877603.719829,496
1765877603.7198348,497
1765877603.719841,496
1765877603.719847,497
1765877603.719852,496
1765877603.719858,496
1765877603.7198641,496
1765877603.7198699,496
1765877603.719876,496
1765877603.719882,496
1765877603.7198899,496
1765877603.719897,496
1765877603.719903,496
1765877603.7199092,497
1765877603.719914,496
1765877603.7199202,496
1765877603.719926,496
1765877603.7199318,496
1765877603.719938,496
1765877603.719944,497
1765877603.7199512,497
1765877603.71996,496
1765877603.7199721,496
1765877603.71998,496
1765877603.7199922,496
1765877603.720002,496
1765877603.720008,497
1765877603.720018,496
1765877603.720028,496
1765877603.7200341,496
1765877603.7200398,496
1765877603.720046,497
1765877603.720052,496
1765877603.720057,496
1765877603.720063,496
1765877603.7200692,496
1765877603.720124,496
1765877603.720149,496
1765877603.7201731,496
1765877603.720187,496
1765877603.7201989,496
1765877603.720212,496
1765877603.720224,496
1765877603.720237,496
1765877603.7202501,496
1765877603.720282,496
1765877603.720302,496
1765877603.720316,496
1765877603.7203279,496
1765877603.720341,496
1765877603.7203531,496
1765877603.720365,496
1765877603.7203772,496
1765877603.7203898,496
1765877603.720402,496
1765877603.720414,496
1765877603.720426,497
1765877603.720438,496
1765877603.720451,496
1765877603.720463,496
1765877603.720475,496
1765877603.7204869,496
1765877603.720499,496
1765877603.720515,496
1765877603.7205272,496
1765877603.7205398,496
1765877603.720552,495
1765877603.720564,496
1765877603.720577,496
1765877603.7205892,496
1765877603.720601,496
1765877603.720613,496
1765877603.720625,496
1765877603.720638,496
1765877603.72065,496
1765877603.720662,496
1765877603.720674,495
1765877603.7206862,495
1765877603.720698,496
1765877603.7207098,496
1765877603.720722,496
1765877603.720734,496
1765877603.720747,496
1765877603.7207592,496
1765877603.720771,496
1765877603.720783,496
1765877603.720795,496
1765877603.7208068,496
1765877603.72082,496
1765877603.7208378,496
1765877603.720853,496
1765877603.720865,496
1765877603.7208772,496
1765877603.720889,496
1765877603.720901,496
1765877603.720913,496
1765877603.720926,495
1765877603.720938,495
1765877603.7209501,496
1765877603.720962,496
1765877603.720974,496
1765877603.7209861,496
1765877603.7209978,497
1765877603.72101,496
1765877603.721022,496
1765877603.721034,496
1765877603.721046,496
1765877603.7210581,496
1765877603.7210891,496
1765877603.721102,496
1765877603.7211149,496
1765877603.7211268,496
1765877603.721139,495
1765877603.7211509,496
1765877603.721163,496
1765877603.721178,496
1765877603.721202,496
1765877603.721214,496
1765877603.721227,495
1765877603.721239,496
1765877603.721251,496
1765877603.7212632,497
1765877603.7212758,497
1765877603.721288,497
1765877603.7213,496
1765877603.721312,496
1765877603.721324,496
1765877603.721337,496
1765877603.721349,496
1765877603.7213728,496
1765877603.721386,496
1765877603.721399,496
1765877603.721434,496
1765877603.721441,496
1765877603.721447,496
1765877603.721453,496
1765877603.721459,496
1765877603.721465,496
1765877603.721471,496
1765877603.721477,496
1765877603.721483,495
1765877603.7214909,496
1765877603.721499,497
1765877603.721505,497
1765877603.721511,496
1765877603.721517,497
1765877603.721523,497
1765877603.721529,497
1765877603.721535,496
1765877603.7215412,496
1765877603.721546,496
1765877603.721552,496
1765877603.721558,495
1765877603.7215638,496
1765877603.72157,495
1765877603.721576,496
1765877603.7215822,496
1765877603.721588,495
1765877603.721594,496
1765877603.7216,496
1765877603.7216058,495
1765877603.721612,496
1765877603.721618,496
1765877603.7216241,495
1765877603.7216299,497
1765877603.721636,497
1765877603.721642,497
1765877603.7216482,497
1765877603.721656,496
1765877603.721662,497
1765877603.721668,497
1765877603.721674,496
1765877603.72168,495
1765877603.7216861,494
1765877603.7216918,494
1765877603.721698,495
1765877603.721704,495
1765877603.72171,495
1765877603.721716,495
1765877603.7217221,495
1765877603.721728,495
1765877603.7217338,495
1765877603.72174,495
1765877603.721746,496
1765877603.7217522,496
1765877603.721758,496
1765877603.721764,495
1765877603.72177,496
1765877603.7217762,497
1765877603.721781,497
1765877603.721787,498
1765877603.721793,498
1765877603.721799,498
1765877603.721805,497
1765877603.721813,497
1765877603.7218199,496
1765877603.721826,495
1765877603.721832,494
1765877603.721838,493
1765877603.721844,494
1765877603.7218502,494
1765877603.721856,495
1765877603.7218618,495
1765877603.721868,495
1765877603.721874,495
1765877603.72188,496
1765877603.721885,496
1765877603.7218912,496
1765877603.721897,497
1765877603.721903,497
1765877603.721909,497
1765877603.7219331,496
1765877603.7219388,495
1765877603.721945,495
1765877603.72195,495
1765877603.721956,495
1765877603.721962,495
1765877603.7219682,496
1765877603.7219741,495
1765877603.7219799,495
1765877603.721985,496
1765877603.721994,496
1765877603.722017,495
1765877603.722024,495
1765877603.7220302,495
1765877603.722042,496
1765877603.722048,495
1765877603.722054,495
1765877603.72206,496
1765877603.722066,496
1765877603.7220721,495
1765877603.7220778,496
1765877603.722083,496
1765877603.722089,496
1765877603.722095,495
1765877603.722101,496
1765877603.722107,496
1765877603.7221131,496
1765877603.7221189,496
1765877603.722125,496
1765877603.722131,495
1765877603.722136,496
1765877603.722142,495
1765877603.7221482,496
1765877603.722154,496
1765877603.72216,495
1765877603.722166,496
1765877603.722172,495
1765877603.7221792,495
1765877603.722186,496
1765877603.7221918,496
1765877603.722198,496
1765877603.722204,496
1765877603.72221,496
1765877603.722216,496
1765877603.722222,496
1765877603.722228,496
1765877603.722234,496
1765877603.72224,496
1765877603.722246,496
1765877603.7222521,496
1765877603.7222579,496
1765877603.722264,496
1765877603.72227,496
1765877603.7222762,496
1765877603.722304,496
1765877603.7223098,497
1765877603.7223208,496
1765877603.722327,495
1765877603.722333,495
1765877603.7223392,496
1765877603.7223449,496
1765877603.7223501,497
1765877603.722356,496
1765877603.722364,496
1765877603.722371,497
1765877603.722377,496
1765877603.722383,496
1765877603.722389,496
1765877603.722395,495
1765877603.7224,496
1765877603.722406,496
1765877603.722412,496
1765877603.7224178,496
1765877603.722424,496
1765877603.72243,496
1765877603.7224362,495
1765877603.722442,495
1765877603.7224479,496
1765877603.722454,496
1765877603.7224598,496
1765877603.722466,495
1765877603.722472,495
1765877603.722477,495
1765877603.722483,496
1765877603.722489,496
1765877603.722495,496
1765877603.722501,496
1765877603.722507,496
1765877603.722513,496
1765877603.722519,496
1765877603.722525,496
1765877603.722532,496
1765877603.722539,497
1765877603.722545,496
1765877603.722551,497
1765877603.7225568,496
1765877603.722563,495
1765877603.722569,496
1765877603.7225752,495
1765877603.72258,495
1765877603.7225862,495
1765877603.722592,496
1765877603.7225978,496
1765877603.722604,496
1765877603.72261,495
1765877603.722616,496
1765877603.722622,496
1765877603.722628,496
1765877603.722634,497
1765877603.722639,497
1765877603.722645,496
1765877603.7226508,497
1765877603.722657,496
1765877603.722663,496
1765877603.7226691,495
1765877603.7226748,496
1765877603.722681,495
1765877603.722688,496
1765877603.7226949,496
1765877603.722701,496
1765877603.722707,496
1765877603.722713,496
1765877603.722719,497
1765877603.7227252,498
1765877603.722731,497
1765877603.7227368,497
1765877603.722743,497
1765877603.722749,497
1765877603.722755,498
1765877603.722761,497
1765877603.722767,497
1765877603.722773,497
1765877603.722778,497
1765877603.722784,497
1765877603.72279,496
1765877603.722796,497
1765877603.722802,497
1765877603.7228081,495
1765877603.7228138,496
1765877603.722819,496
1765877603.722825,496
1765877603.722831,496
1765877603.722837,496
1765877603.722843,496
1765877603.72285,496
1765877603.722858,496
1765877603.7228642,497
1765877603.72287,496
1765877603.7228749,496
1765877603.722881,496
1765877603.7228868,496
1765877603.722893,497
1765877603.722899,497
1765877603.7229052,496
1765877603.722911,496
1765877603.722917,496
1765877603.722923,495
1765877603.722928,495
1765877603.722934,496
1765877603.72294,496
1765877603.7229462,495
1765877603.722952,496
1765877603.722958,496
1765877603.722964,496
1765877603.72297,496
1765877603.722976,496
1765877603.722982,495
1765877603.722987,496
1765877603.722993,496
1765877603.722999,496
1765877603.7230048,496
1765877603.7230132,496
1765877603.72302,496
1765877603.723026,496
1765877603.723031,495
1765877603.723037,495
1765877603.723043,496
1765877603.723049,496
1765877603.7230551,496
1765877603.723061,496
1765877603.7230668,496
1765877603.723073,496
1765877603.723079,496
1765877603.723084,495
1765877603.72309,495
1765877603.7230961,496
1765877603.7231019,496
1765877603.723108,496
1765877603.723114,496
1765877603.7231202,496
1765877603.723126,496
1765877603.723132,497
1765877603.723138,496
1765877603.723144,496
1765877603.72315,496
1765877603.723156,496
1765877603.7231622,496
1765877603.723167,496
1765877603.7231748,496
1765877603.723181,497
1765877603.723187,497
1765877603.7231932,496
1765877603.723199,495
1765877603.723205,496
1765877603.723211,496
1765877603.723217,496
1765877603.723223,496
1765877603.723229,496
1765877603.723234,496
1765877603.72324,496
1765877603.723246,496
1765877603.723252,495
1765877603.723258,496
1765877603.723264,496
1765877603.72327,496
1765877603.7232761,496
1765877603.7232819,496
1765877603.723287,495
1765877603.7232928,496
1765877603.723299,496
1765877603.723305,496
1765877603.7233112,495
1765877603.723317,496
1765877603.7233229,496
1765877603.723329,496
1765877603.723336,496
1765877603.7233431,496
1765877603.723349,496
1765877603.7233548,496
1765877603.72336,496
1765877603.7233658,496
1765877603.723372,496
1765877603.723378,496
1765877603.7233841,496
1765877603.7233899,496
1765877603.723396,496
1765877603.723402,496
1765877603.723408,496
1765877603.723414,496
1765877603.723419,496
1765877603.723425,496
1765877603.7234309,496
1765877603.723437,496
1765877603.723443,496
1765877603.723449,496
1765877603.723455,496
1765877603.7234612,496
1765877603.723467,496
1765877603.7234728,496
1765877603.723478,496
1765877603.7234921,496
1765877603.723501,496
1765877603.723508,496
1765877603.723514,496
1765877603.72352,495
1765877603.72353,496
1765877603.7235358,496
1765877603.723542,496
1765877603.723548,496
1765877603.7235541,495
1765877603.7235599,495
1765877603.723566,496
1765877603.723572,496
1765877603.723577,496
1765877603.723583,496
1765877603.7235892,496
1765877603.723595,496
1765877603.7236009,496
1765877603.723607,496
1765877603.723613,496
1765877603.723619,496
1765877603.7236538,496
1765877603.7236621,496
1765877603.723713,496
1765877603.7237928,496
1765877603.7238169,496
1765877603.723823,496
1765877603.723829,496
1765877603.72384,496
1765877603.723847,496
1765877603.723853,496
1765877603.7238588,496
1765877603.723893,496
1765877603.7239082,496
1765877603.723935,496
1765877603.7239418,496
1765877603.723979,496
1765877603.723994,496
1765877603.7240162,496
1765877603.724033,496
1765877603.724046,496
1765877603.7240589,496
1765877603.724071,496
1765877603.724084,496
1765877603.724096,496
1765877603.724125,496
1765877603.724131,496
1765877603.724137,496
1765877603.724143,496
1765877603.724149,496
1765877603.724155,496
1765877603.724161,496
1765877603.724166,496
1765877603.724172,496
1765877603.724183,496
1765877603.724194,495
1765877603.7242,496
1765877603.724206,496
1765877603.724212,495
1765877603.7242172,495
1765877603.724223,496
1765877603.724229,496
1765877603.724235,495
1765877603.7242408,496
1765877603.724247,496
1765877603.724252,496
1765877603.724258,496
1765877603.724264,496
1765877603.72427,496
1765877603.724276,496
1765877603.724282,495
1765877603.724288,496
1765877603.724294,496
1765877603.7243001,496
1765877603.724305,496
1765877603.724311,496
1765877603.7243168,496
1765877603.724323,496
1765877603.724329,496
1765877603.7243352,495
1765877603.724342,496
1765877603.7243478,496
1765877603.724354,496
1765877603.72436,496
1765877603.7243662,496
1765877603.724372,496
1765877603.724378,496
1765877603.724384,496
1765877603.7243898,495
1765877603.724395,496
1765877603.724401,496
1765877603.724407,496
1765877603.724413,496
1765877603.724419,496
1765877603.724425,496
1765877603.724431,496
1765877603.724437,496
1765877603.724443,496
1765877603.724448,496
1765877603.724454,496
1765877603.7244601,496
1765877603.7244658,496
1765877603.724472,496
1765877603.724478,495
1765877603.7244842,496
1765877603.72449,495
1765877603.724545,495
1765877603.724559,496
1765877603.724566,495
1765877603.724572,496
1765877603.7245781,497
1765877603.7245839,495
1765877603.72459,496
1765877603.724596,496
1765877603.7246022,496
1765877603.724608,495
1765877603.724614,496
1765877603.72462,496
1765877603.7246258,496
1765877603.724632,496
1765877603.724638,496
1765877603.7246442,496
1765877603.724649,496
1765877603.7246552,496
1765877603.7246609,496
1765877603.7246668,496
1765877603.724673,496
1765877603.724679,495
1765877603.724685,496
1765877603.7246919,496
1765877603.724697,496
1765877603.724704,495
1765877603.72471,495
1765877603.724716,495
1765877603.7247229,496
1765877603.72473,496
1765877603.724736,496
1765877603.724742,495
1765877603.7247481,496
1765877603.7247539,496
1765877603.72476,495
1765877603.724766,495
1765877603.7247722,496
1765877603.724778,495
1765877603.7247841,496
1765877603.72479,495
1765877603.7247958,496
1765877603.724802,496
1765877603.724808,496
1765877603.7248142,496
1765877603.72482,496
1765877603.724826,496
1765877603.724832,495
1765877603.7248662,496
1765877603.724881,496
1765877603.724895,496
1765877603.72492,496
1765877603.7249331,496
1765877603.724946,496
1765877603.724959,495
1765877603.7249742,496
1765877603.72499,496
1765877603.725004,496
1765877603.725017,496
1765877603.72503,496
1765877603.7250419,495
1765877603.725054,495
1765877603.725067,495
1765877603.725079,495
1765877603.7250922,495
1765877603.725104,496
1765877603.725117,495
1765877603.72513,495
1765877603.725142,495
1765877603.7251542,496
1765877603.725166,495
1765877603.725179,496
1765877603.72519,496
1765877603.7252018,496
1765877603.725215,496
1765877603.725227,495
1765877603.725239,495
1765877603.725251,495
1765877603.7252622,495
1765877603.725286,496
1765877603.7253,496
1765877603.7253141,495
1765877603.7253299,495
1765877603.725344,496
1765877603.725356,496
1765877603.725368,496
1765877603.7253811,496
1765877603.7253928,496
1765877603.725405,495
1765877603.725417,495
1765877603.72543,496
1765877603.725454,495
1765877603.725493,495
1765877603.725499,495
1765877603.725505,496
1765877603.725512,495
1765877603.725518,495
1765877603.725524,495
1765877603.7255292,495
1765877603.725535,495
1765877603.725541,496
1765877603.725547,495
1765877603.725587,496
1765877603.725606,496
1765877603.72562,496
1765877603.725632,495
1765877603.725652,496
1765877603.725676,496
1765877603.725695,496
1765877603.7257102,496
1765877603.7257411,495
1765877603.725767,495
1765877603.725777,495
1765877603.725784,496
1765877603.72579,496
1765877603.725796,495
1765877603.725802,496
1765877603.7258081,496
1765877603.725814,496
1765877603.7258198,495
1765877603.725826,496
1765877603.725832,496
1765877603.7258382,497
1765877603.725844,497
1765877603.72585,497
1765877603.725856,497
1765877603.7258618,497
1765877603.725868,497
1765877603.725874,496
1765877603.7258801,496
1765877603.7258859,498
1765877603.725892,497
1765877603.725898,497
1765877603.725906,497
1765877603.725914,497
1765877603.72592,497
1765877603.725926,496
1765877603.7259321,496
1765877603.7259378,496
1765877603.725944,496
1765877603.72595,496
1765877603.7259562,496
1765877603.725962,496
1765877603.725968,496
1765877603.725974,496
1765877603.7259798,496
1765877603.725986,496
1765877603.725992,496
1765877603.7259982,495
1765877603.726004,496
1765877603.72601,496
1765877603.726016,496
1765877603.726022,495
1765877603.726028,496
1765877603.726034,495
1765877603.726058,496
1765877603.7260642,496
1765877603.7260711,496
1765877603.726076,496
1765877603.726082,496
1765877603.72609,496
1765877603.7260969,495
1765877603.726103,496
1765877603.726109,495
1765877603.726115,495
1765877603.726121,496
1765877603.7261271,495
1765877603.726133,496
1765877603.726138,495
1765877603.726144,496
1765877603.7261498,496
1765877603.726156,496
1765877603.726162,496
1765877603.7261682,495
1765877603.7261739,496
1765877603.72618,496
1765877603.7261848,496
1765877603.726191,496
1765877603.726198,496
1765877603.726204,496
1765877603.72621,496
1765877603.7262158,495
1765877603.726222,496
1765877603.726228,496
1765877603.726233,496
1765877603.726239,496
1765877603.7262452,495
1765877603.726253,496
1765877603.72626,496
1765877603.7262661,496
1765877603.726279,496
1765877603.726284,496
1765877603.72629,496
1765877603.726296,496
1765877603.726302,495
1765877603.726308,496
1765877603.726314,496
1765877603.72633,495
1765877603.726336,496
1765877603.726342,496
1765877603.726348,496
1765877603.726354,495
1765877603.72636,496
1765877603.7263649,496
1765877603.726371,495
1765877603.726377,495
1765877603.7263832,496
1765877603.726389,496
1765877603.726395,496
1765877603.7264,496
1765877603.7264059,495
1765877603.726412,495
1765877603.726418,496
1765877603.7264252,495
1765877603.726432,495
1765877603.7264378,496
1765877603.726444,495
1765877603.72645,496
1765877603.7264562,496
1765877603.726462,496
1765877603.7264671,496
1765877603.7264729,496
1765877603.726479,496
1765877603.726485,496
1765877603.72649,496
1765877603.726496,496
1765877603.726502,496
1765877603.7265081,496
1765877603.7265139,496
1765877603.726519,496
1765877603.72653,496
1765877603.726537,496
1765877603.7265432,496
1765877603.726549,496
1765877603.7265549,496
1765877603.726561,496
1765877603.726567,495
1765877603.726573,496
1765877603.726578,496
1765877603.726584,496
1765877603.7265909,496
1765877603.7265978,495
1765877603.726604,495
1765877603.72661,495
1765877603.7266161,495
1765877603.7266219,495
1765877603.726627,496
1765877603.726633,495
1765877603.726639,496
1765877603.726645,496
1765877603.726651,496
1765877603.726657,495
1765877603.7266629,496
1765877603.726669,495
1765877603.726675,496
1765877603.726681,496
1765877603.726687,496
1765877603.7266932,495
1765877603.726698,496
1765877603.7267041,495
1765877603.72671,496
1765877603.7267158,496
1765877603.726722,496
1765877603.726728,495
1765877603.726733,496
1765877603.726739,495
1765877603.7267451,496
1765877603.726752,496
1765877603.726759,495
1765877603.7267652,496
1765877603.7267709,495
1765877603.726777,495
1765877603.726783,496
1765877603.7267892,496
1765877603.726794,496
1765877603.7268,495
1765877603.726806,496
1765877603.726812,496
1765877603.726818,496
1765877603.726824,495
1765877603.72683,495
1765877603.726835,495
1765877603.726841,495
1765877603.726847,495
1765877603.7268531,496
1765877603.726859,495
1765877603.7268648,495
1765877603.726871,496
1765877603.726877,495
1765877603.726882,495
1765877603.726888,496
1765877603.7268941,495
1765877603.7268999,496
1765877603.726906,495
1765877603.726913,496
1765877603.7269208,496
1765877603.726927,495
1765877603.726932,496
1765877603.726938,495
1765877603.726944,495
1765877603.72695,495
1765877603.7269561,495
1765877603.7269619,495
1765877603.726968,496
1765877603.7269728,496
1765877603.726979,495
1765877603.726985,495
1765877603.7269912,496
1765877603.726997,495
1765877603.7270029,495
1765877603.727009,495
1765877603.7270138,495
1765877603.72702,496
1765877603.727026,495
1765877603.727032,495
1765877603.727038,495
1765877603.727044,495
1765877603.72705,495
1765877603.727055,496
1765877603.727061,496
1765877603.727069,495
1765877603.727076,495
1765877603.727082,496
1765877603.7270882,496
1765877603.727094,496
1765877603.7271,495
1765877603.7271051,495
1765877603.7271109,495
1765877603.727117,495
1765877603.727123,495
1765877603.727129,495
1765877603.727135,495
1765877603.7271411,495
1765877603.727146,495
1765877603.727152,495
1765877603.7271712,495
1765877603.727177,496
1765877603.727183,496
1765877603.727189,495
1765877603.7271948,496
1765877603.7272,496
1765877603.727206,496
1765877603.727212,495
1765877603.727218,495
1765877603.7272441,495
1765877603.7272499,495
1765877603.727256,495
1765877603.727263,495
1765877603.7272892,495
1765877603.727295,495
1765877603.7273011,496
1765877603.727307,496
1765877603.7273128,495
1765877603.727319,496
1765877603.727325,495
1765877603.7273312,495
1765877603.727336,496
1765877603.727385,495
1765877603.727394,495
1765877603.7273998,495
1765877603.7274072,495
1765877603.727413,496
1765877603.7274182,495
1765877603.727424,495
1765877603.7274299,496
1765877603.727436,496
1765877603.727442,495
1765877603.727448,495
1765877603.727454,495
1765877603.7274601,495
1765877603.7274659,495
1765877603.727472,495
1765877603.727479,495
1765877603.727485,495
1765877603.727492,495
1765877603.727499,495
1765877603.727505,495
1765877603.727511,495
1765877603.727517,495
1765877603.727523,496
1765877603.727529,495
1765877603.727535,495
1765877603.727542,495
1765877603.727548,496
1765877603.727554,495
1765877603.72756,496
1765877603.727566,495
1765877603.727572,496
1765877603.7275782,495
1765877603.727584,495
1765877603.7275898,495
1765877603.727596,495
1765877603.727602,496
1765877603.727608,496
1765877603.727621,496
1765877603.727628,496
1765877603.727634,495
1765877603.727659,495
1765877603.72767,495
1765877603.727676,495
1765877603.727682,495
1765877603.72769,495
1765877603.727697,495
1765877603.727702,495
1765877603.7277079,496
1765877603.727714,495
1765877603.72772,496
1765877603.727726,495
1765877603.727732,495
1765877603.7277381,495
1765877603.7277482,495
1765877603.7277539,495
1765877603.7277598,495
1765877603.727766,495
1765877603.727772,496
1765877603.727778,495
1765877603.727784,495
1765877603.72779,495
1765877603.727795,495
1765877603.727801,496
1765877603.727807,495
1765877603.727813,495
1765877603.727819,496
1765877603.727825,496
1765877603.727832,496
1765877603.727839,495
1765877603.7278469,495
1765877603.7278552,495
1765877603.727864,495
1765877603.72787,495
1765877603.7278762,495
1765877603.727881,495
1765877603.7278872,495
1765877603.7278929,495
1765877603.7278988,495
1765877603.727905,495
1765877603.727911,495
1765877603.727919,495
1765877603.727925,495
1765877603.7279308,495
1765877603.727937,496
1765877603.727942,495
1765877603.727948,496
1765877603.727954,495
1765877603.72796,496
1765877603.727971,495
1765877603.727977,495
1765877603.727983,495
1765877603.727988,495
1765877603.7279942,495
1765877603.728,495
1765877603.728006,495
1765877603.728012,495
1765877603.7280178,496
1765877603.72803,495
1765877603.7280362,495
1765877603.728041,496
1765877603.7280471,495
1765877603.728053,496
1765877603.7280588,496
1765877603.728065,495
1765877603.728071,496
1765877603.7280772,495
1765877603.728082,495
1765877603.7280881,495
1765877603.7280939,495
1765877603.7281,496
1765877603.728105,496
1765877603.728111,495
1765877603.728117,495
1765877603.728123,495
1765877603.728129,496
1765877603.7281349,496
1765877603.72814,495
1765877603.7281458,495
1765877603.728152,495
1765877603.728158,496
1765877603.7281642,495
1765877603.728169,496
1765877603.7281752,495
1765877603.728181,495
1765877603.7281868,496
1765877603.728193,496
1765877603.7281978,496
1765877603.728204,496
1765877603.72821,496
1765877603.7282162,497
1765877603.728222,496
1765877603.7282271,496
1765877603.7282329,496
1765877603.728239,497
1765877603.728245,496
1765877603.728251,496
1765877603.728256,496
1765877603.728262,497
1765877603.7282681,496
1765877603.7282739,496
1765877603.72828,497
1765877603.7282848,496
1765877603.728291,495
1765877603.728297,496
1765877603.7283032,496
1765877603.728309,495
1765877603.7283142,495
1765877603.728321,496
1765877603.7283268,496
1765877603.728332,496
1765877603.728338,495
1765877603.728344,495
1765877603.72835,495
1765877603.7283561,495
1765877603.728362,495
1765877603.728367,495
1765877603.728373,495
1765877603.7283788,496
1765877603.728385,496
1765877603.728391,495
1765877603.728396,495
1765877603.728402,496
1765877603.728408,495
1765877603.728414,495
1765877603.7284212,495
1765877603.7284281,495
1765877603.7284338,495
1765877603.72844,495
1765877603.728446,495
1765877603.7284522,496
1765877603.728458,496
1765877603.728464,495
1765877603.728469,496
1765877603.7284749,496
1765877603.728481,496
1765877603.728487,496
1765877603.728493,495
1765877603.728506,496
1765877603.728512,496
1765877603.7285178,496
1765877603.728523,496
1765877603.728529,495
1765877603.728535,495
1765877603.728541,495
1765877603.728547,495
1765877603.728553,496
1765877603.728559,495
1765877603.728565,495
1765877603.728571,496
1765877603.7285771,495
1765877603.7285829,496
1765877603.728588,496
1765877603.7285938,495
1765877603.7286,495
1765877603.728606,495
1765877603.7286122,495
1765877603.728618,496
1765877603.728624,496
1765877603.72863,495
1765877603.7286358,495
1765877603.728641,496
1765877603.728647,496
1765877603.728653,496
1765877603.728659,496
1765877603.728665,496
1765877603.728671,496
1765877603.728677,496
1765877603.728683,495
1765877603.728689,495
1765877603.728694,495
1765877603.7287,495
1765877603.7287061,495
1765877603.7287118,495
1765877603.728718,495
1765877603.728724,495
1765877603.7287302,495
1765877603.728736,495
1765877603.7287412,496
1765877603.728747,495
1765877603.7287529,495
1765877603.728759,495
1765877603.728765,495
1765877603.728771,495
1765877603.728777,495
1765877603.7287831,495
1765877603.728789,495
1765877603.728798,495
1765877603.728804,495
1765877603.728811,495
1765877603.728817,495
1765877603.728822,495
1765877603.728828,494
1765877603.7288342,495
1765877603.7288399,495
1765877603.728846,495
1765877603.728852,495
1765877603.728858,495
1765877603.728863,495
1765877603.7288692,495
1765877603.728875,495
1765877603.728881,495
1765877603.728887,495
1765877603.728893,495
1765877603.728899,495
1765877603.728905,495
1765877603.72891,495
1765877603.728916,494
1765877603.7289221,495
1765877603.728928,495
1765877603.7289338,495
1765877603.72894,494
1765877603.728946,494
1765877603.728951,495
1765877603.728958,495
1765877603.728964,495
1765877603.72897,495
1765877603.7289758,495
1765877603.728982,495
1765877603.728987,495
1765877603.728993,495
1765877603.728999,496
1765877603.729005,495
1765877603.729011,495
1765877603.729017,495
1765877603.729022,495
1765877603.729028,495
1765877603.729034,495
1765877603.72904,495
1765877603.729046,495
1765877603.7290518,496
1765877603.729058,495
1765877603.7290628,495
1765877603.729069,495
1765877603.729075,495
1765877603.7290812,495
1765877603.7290869,495
1765877603.729093,495
1765877603.729099,495
1765877603.729105,495
1765877603.729111,495
1765877603.729116,495
1765877603.7291222,495
1765877603.729128,495
1765877603.729134,495
1765877603.72914,495
1765877603.729146,495
1765877603.729152,495
1765877603.729158,495
1765877603.7291641,495
1765877603.729169,495
1765877603.729175,495
1765877603.7291808,495
1765877603.729187,495
1765877603.729193,496
1765877603.7291992,495
1765877603.729205,495
1765877603.7292109,495
1765877603.729216,496
1765877603.7292218,495
1765877603.729228,495
1765877603.729234,495
1765877603.7292402,495
1765877603.72932,495
1765877603.730328,495
1765877603.731335,495
1765877603.7323542,495
1765877603.73339,496
1765877603.734376,495
1765877603.735405,496
1765877603.736355,495
1765877603.73735,495
1765877603.73838,496
1765877603.739376,496
1765877603.740381,496
1765877603.741361,495
1765877603.742387,495
1765877603.74337,495
1765877603.7443972,495
1765877603.745406,495
1765877603.7463942,495
1765877603.7473989,495
1765877603.748398,495
1765877603.74938,495
1765877603.7503948,495
1765877603.7514188,495
1765877603.7524009,496
1765877603.753398,496
1765877603.75442,495
1765877603.755466,495
1765877603.756513,495
1765877603.757445,495
1765877603.758476,495
1765877603.759485,495
1765877603.7605078,496
1765877603.761481,495
1765877603.76246,496
1765877603.7634518,495
1765877603.764521,495
1765877603.7654998,495
1765877603.766495,495
1765877603.767509,495
1765877603.768476,495
1765877603.769558,496
1765877603.770495,495
1765877603.77149,496
1765877603.772487,495
1765877603.7735,495
1765877603.774482,496
1765877603.775551,495
1765877603.7764978,496
1765877603.777477,496
1765877603.778501,495
1765877603.7795079,495
1765877603.780535,496
1765877603.781489,496
1765877603.782489,495
1765877603.783503,495
1765877603.784517,496
1765877603.7855518,496
1765877603.786544,495
1765877603.7875252,496
1765877603.7885172,495
1765877603.789541,495
1765877603.790529,495
1765877603.7915578,496
1765877603.792546,496
1765877603.793521,495
1765877603.794534,496
1765877603.7955258,496
1765877603.796512,496
1765877603.797523,496
1765877603.798527,496
1765877603.799545,495
1765877603.800524,495
1765877603.801523,496
1765877603.802536,496
1765877603.803536,495
1765877603.804559,496
1765877603.8055491,495
1765877603.8065522,495
1765877603.8075578,496
1765877603.808577,495
1765877603.8095858,495
1765877603.810567,496
1765877603.811566,496
1765877603.812602,496
1765877603.813613,496
1765877603.8146439,495
1765877603.815608,495
1765877603.8165948,495
1765877603.8175948,495
1765877603.818581,495
1765877603.8196218,496
1765877603.820628,496
1765877603.8216472,496
1765877603.8226109,495
1765877603.823601,495
1765877603.824597,496
1765877603.825623,495
1765877603.826623,495
1765877603.82763,495
1765877603.828631,496
1765877603.8296268,495
1765877603.830623,495
1765877603.831622,495
1765877603.83263,495
1765877603.833645,495
1765877603.834662,495
1765877603.835642,495
1765877603.8366468,496
1765877603.837643,496
1765877603.838681,496
1765877603.839669,496
1765877603.840653,495
1765877603.8416908,496
1765877603.842665,495
1765877603.843681,495
1765877603.844676,495
1765877603.845676,496
1765877603.8467112,496
1765877603.8476899,496
1765877603.848674,495
1765877603.849715,495
1765877603.850683,495
1765877603.851682,495
1765877603.852677,495
1765877603.853698,496
1765877603.85469,495
1765877603.855725,495
1765877603.856705,496
1765877603.857715,496
1765877603.858711,495
1765877603.8597069,496
1765877603.860697,495
1765877603.861708,496
1765877603.862707,496
1765877603.863807,496
1765877603.864819,496
1765877603.865812,496
1765877603.866967,496
1765877603.867744,496
1765877603.869271,496
1765877603.8698208,495
1765877603.870784,495
1765877603.871764,495
1765877603.8727522,496
1765877603.873832,496
1765877603.87477,496
1765877603.8757849,496
1765877603.8767629,495
1765877603.877763,496
1765877603.878763,495
1765877603.8797781,496
1765877603.880787,495
1765877603.881769,495
1765877603.882805,495
1765877603.883764,495
1765877603.884769,496
1765877603.885802,496
1765877603.886783,496
1765877603.887796,496
1765877603.888947,495
1765877603.889916,496
1765877603.8908758,496
1765877603.8917918,496
1765877603.8928761,496
1765877603.893923,496
1765877603.894816,496
1765877603.8960772,495
1765877603.896917,496
1765877603.897867,495
1765877603.898845,496
1765877603.8998241,495
1765877603.90082,496
1765877603.901977,496
1765877603.902863,496
1765877603.904907,498
1765877603.905073,499
1765877603.905856,500
1765877603.9075022,500
1765877603.907833,500
1765877603.909006,499
1765877603.909858,498
1765877603.911687,496
1765877603.913725,494
1765877603.913732,496
1765877603.9139059,497
1765877603.9151292,496
1765877603.917184,496
1765877603.917428,496
1765877603.91852,496
1765877603.9189389,497
1765877603.919944,495
1765877603.920919,495
1765877603.921948,495
1765877603.9229782,495
1765877603.923938,496
1765877603.924928,495
1765877603.9259279,496
1765877603.926923,495
1765877603.9279768,496
1765877603.928925,496
1765877603.929933,496
1765877603.932031,496
1765877603.932039,497
1765877603.9329338,498
1765877603.936288,499
1765877603.9362948,498
1765877603.9363022,500
1765877603.936969,500
1765877603.93804,498
1765877603.938964,497
1765877603.939957,495
1765877603.9410172,496
1765877603.942362,495
1765877603.943392,495
1765877603.943957,496
1765877603.9449558,495
1765877603.9459898,493
1765877603.946956,494
1765877603.947967,495
1765877603.949427,495
1765877603.950412,495
1765877603.9509618,495
1765877603.9530828,495
1765877603.953102,497
1765877603.953969,499
1765877603.954987,500
1765877603.9559722,500
1765877603.9569678,499
1765877603.957972,500
1765877603.958975,499
1765877603.9601421,495
1765877603.96112,491
1765877603.9620821,492
1765877603.963139,494
1765877603.9641669,494
1765877603.9650922,495
1765877603.966121,494
1765877603.9671848,493
1765877603.96826,495
1765877603.9691331,497
1765877603.970079,499
1765877603.971058,500
1765877603.972071,500
1765877603.973124,500
1765877603.97406,499
1765877603.9750621,500
1765877603.9760928,496
1765877603.977084,493
1765877603.9780521,493
1765877603.9790442,495
1765877603.9800441,496
1765877603.981071,495
1765877603.982055,496
1765877603.983051,497
1765877603.984085,499
1765877603.985131,501
1765877603.986104,504
1765877603.9871418,506
1765877603.9880571,503
1765877603.989098,500
1765877603.990106,499
1765877603.991153,495
1765877603.992117,492
1765877603.993105,490
1765877603.994111,490
1765877603.99509,492
1765877603.996093,494
1765877603.997094,493
1765877603.998139,497
1765877603.9990962,503
1765877604.000097,508
1765877604.001128,513
1765877604.0021389,515
1765877604.003113,515
1765877604.0041118,505
1765877604.005118,492
1765877604.0061371,487
1765877604.007158,484
1765877604.008127,487
1765877604.0091798,490
1765877604.010169,494
1765877604.01118,493
1765877604.012214,492
1765877604.013151,492
1765877604.014189,492
1765877604.01518,493
1765877604.016217,495
1765877604.017193,494
1765877604.0181649,494
1765877604.0191722,494
1765877604.0201468,495
1765877604.0211892,496
1765877604.022187,497
1765877604.0231738,498
1765877604.0241878,500
1765877604.025173,501
1765877604.0261939,504
1765877604.0272121,509
1765877604.028175,511
1765877604.0291982,507
1765877604.030197,507
1765877604.031204,509
1765877604.032196,505
1765877604.0332348,501
1765877604.034243,501
1765877604.035257,501
1765877604.036244,497
1765877604.037267,491
1765877604.038273,491
1765877604.039299,492
1765877604.040252,491
1765877604.041267,494
1765877604.04226,494
1765877604.043276,495
1765877604.044271,495
1765877604.0452201,495
1765877604.0462248,497
1765877604.0472362,498
1765877604.048224,495
1765877604.049216,501
1765877604.050283,504
1765877604.051274,505
1765877604.052299,505
1765877604.053235,499
1765877604.054278,500
1765877604.055306,499
1765877604.056292,496
1765877604.0572832,494
1765877604.058312,496
1765877604.0593238,497
1765877604.0603259,492
1765877604.061297,490
1765877604.062352,491
1765877604.063304,492
1765877604.064288,492
1765877604.065314,492
1765877604.066334,492
1765877604.067334,493
1765877604.06832,494
1765877604.06934,494
1765877604.07037,495
1765877604.071331,496
1765877604.072298,496
1765877604.073334,500
1765877604.074332,503
1765877604.075336,505
1765877604.076353,503
1765877604.0773509,496
1765877604.078335,491
1765877604.079337,494
1765877604.08031,494
1765877604.081318,493
1765877604.0823119,493
1765877604.083325,494
1765877604.084373,494
1765877604.085367,494
1765877604.086355,494
1765877604.0873191,495
1765877604.088325,496
1765877604.089329,494
1765877604.090413,493
1765877604.091375,495
1765877604.092381,496
1765877604.093379,498
1765877604.0943842,499
1765877604.095359,499
1765877604.0963871,496
1765877604.0974028,492
1765877604.0984,495
1765877604.0994,495
1765877604.100401,494
1765877604.101399,493
1765877604.102405,494
1765877604.103366,494
1765877604.104457,494
1765877604.105389,495
1765877604.106424,496
1765877604.107388,497
1765877604.108402,498
1765877604.109421,500
1765877604.110423,502
1765877604.111398,502
1765877604.112394,500
1765877604.1134012,501
1765877604.114419,494
1765877604.115447,492
1765877604.116461,494
1765877604.11747,495
1765877604.1184661,495
1765877604.1194701,495
1765877604.120499,497
1765877604.1214411,497
1765877604.1224399,498
1765877604.123466,499
1765877604.124508,494
1765877604.125483,496
1765877604.126482,497
1765877604.1274781,499
1765877604.128447,498
1765877604.129447,495
1765877604.1305091,491
1765877604.131469,493
1765877604.132452,494
1765877604.133464,496
1765877604.134492,498
1765877604.135457,498
1765877604.136481,496
1765877604.1374679,494
1765877604.1385012,494
1765877604.139474,495
1765877604.1405199,496
1765877604.141506,492
1765877604.142532,492
1765877604.143521,495
1765877604.144525,496
1765877604.145539,496
1765877604.1465442,495
1765877604.1475132,496
1765877604.1485288,496
1765877604.1495261,496
1765877604.150542,497
1765877604.1515388,496
1765877604.1525419,498
1765877604.1535811,499
1765877604.154558,499
1765877604.1555588,499
1765877604.156564,497
1765877604.1575522,487
1765877604.158585,490
1765877604.159564,495
1765877604.1605701,495
1765877604.1615412,496
1765877604.1625311,497
1765877604.16359,495
1765877604.164574,493
1765877604.16554,495
1765877604.166582,495
1765877604.167614,495
1765877604.168608,496
1765877604.1696131,498
1765877604.170602,499
1765877604.1715891,500
1765877604.172607,500
1765877604.1735969,497
1765877604.174617,496
1765877604.175607,498
1765877604.176588,499
1765877604.177623,497
1765877604.1786199,500
1765877604.1796749,502
1765877604.180609,499
1765877604.1815932,494
1765877604.182595,492
1765877604.1836002,490
1765877604.184599,495
1765877604.1856089,495
1765877604.186614,494
1765877604.1876018,493
1765877604.188619,494
1765877604.18962,495
1765877604.190604,496
1765877604.191614,497
1765877604.19263,497
1765877604.1936169,497
1765877604.1946208,497
1765877604.195622,498
1765877604.1966422,498
1765877604.197626,495
1765877604.1986282,498
1765877604.199645,501
1765877604.2006552,501
1765877604.201663,498
1765877604.202653,491
1765877604.2037172,492
1765877604.2046988,495
1765877604.205707,494
1765877604.2066739,493
1765877604.207697,495
1765877604.208683,497
1765877604.209686,498
1765877604.210685,499
1765877604.211686,498
1765877604.2126799,492
1765877604.213749,495
1765877604.214716,496
1765877604.215714,495
1765877604.216724,493
1765877604.217728,492
1765877604.218744,493
1765877604.219742,495
1765877604.2207491,494
1765877604.221736,495
1765877604.222733,497
1765877604.2237408,499
1765877604.2247329,499
1765877604.225736,496
1765877604.2267141,493
1765877604.22773,494
1765877604.228739,494
1765877604.2297301,497
1765877604.230725,495
1765877604.231759,493
1765877604.2327302,493
1765877604.233744,495
1765877604.2347589,496
1765877604.235758,497
1765877604.2368371,497
1765877604.237789,499
1765877604.238783,500
1765877604.239773,499
1765877604.240766,495
1765877604.241787,495
1765877604.242796,492
1765877604.2442539,494
1765877604.244838,495
1765877604.2459571,495
1765877604.2468202,494
1765877604.247912,494
1765877604.248864,495
1765877604.249869,496
1765877604.2508469,495
1765877604.251808,495
1765877604.252817,496
1765877604.253791,495
1765877604.254784,496
1765877604.255798,495
1765877604.256803,495
1765877604.257807,496
1765877604.258816,496
1765877604.2598221,495
1765877604.260811,494
1765877604.261833,494
1765877604.262822,495
1765877604.263853,495
1765877604.264819,497
1765877604.265853,499
1765877604.266826,500
1765877604.267829,500
1765877604.268832,499
1765877604.269842,492
1765877604.270834,493
1765877604.271839,496
1765877604.2728362,496
1765877604.2738612,496
1765877604.274859,497
1765877604.275855,497
1765877604.27684,497
1765877604.2778509,496
1765877604.278864,496
1765877604.2798688,496
1765877604.280865,497
1765877604.281874,497
1765877604.2828858,497
1765877604.283883,498
1765877604.2849212,498
1765877604.285957,499
1765877604.286912,496
1765877604.28788,495
1765877604.288894,496
1765877604.289876,498
1765877604.290883,500
1765877604.291898,501
1765877604.292895,500
1765877604.293895,493
1765877604.294912,490
1765877604.295916,494
1765877604.29691,496
1765877604.297947,496
1765877604.2989361,493
1765877604.2999501,494
1765877604.300951,492
1765877604.301961,493
1765877604.302988,496
1765877604.3039649,496
1765877604.304961,495
1765877604.30596,495
1765877604.306957,496
1765877604.3079438,496
1765877604.308962,496
1765877604.3099542,497
1765877604.31097,498
1765877604.311947,498
1765877604.3129568,497
1765877604.314006,494
1765877604.3149922,495
1765877604.315982,502
1765877604.317002,505
1765877604.3179982,503
1765877604.319011,498
1765877604.320089,493
1765877604.3209941,491
1765877604.321985,493
1765877604.322977,493
1765877604.324109,492
1765877604.324995,494
1765877604.326085,494
1765877604.3270772,493
1765877604.32816,493
1765877604.329112,495
1765877604.3300748,496
1765877604.331069,497
1765877604.332064,499
1765877604.333063,496
1765877604.33408,495
1765877604.335061,494
1765877604.336066,492
1765877604.3370602,495
1765877604.338069,493
1765877604.339079,493
1765877604.340079,493
1765877604.3410828,494
1765877604.342072,494
1765877604.343064,494
1765877604.344068,495
1765877604.3451252,495
1765877604.346092,495
1765877604.3470879,494
1765877604.348089,495
1765877604.349107,496
1765877604.350091,497
1765877604.351091,496
1765877604.352065,496
1765877604.353073,493
1765877604.354072,493
1765877604.355059,495
1765877604.356066,495
1765877604.3570821,496
1765877604.358054,497
1765877604.3590882,496
1765877604.360103,497
1765877604.361098,497
1765877604.362095,500
1765877604.363109,502
1765877604.3641012,499
1765877604.365107,493
1765877604.3661041,495
1765877604.367125,493
1765877604.368122,492
1765877604.369132,494
1765877604.370175,493
1765877604.3712242,493
1765877604.372227,493
1765877604.373164,494
1765877604.374176,494
1765877604.375146,494
1765877604.376134,495
1765877604.377116,495
1765877604.378138,495
1765877604.3791559,495
1765877604.380147,493
1765877604.381185,493
1765877604.382154,494
1765877604.383159,494
1765877604.384151,494
1765877604.385134,495
1765877604.386152,495
1765877604.387153,495
1765877604.38816,496
1765877604.389146,500
1765877604.3901498,501
1765877604.3912141,503
1765877604.392182,501
1765877604.393174,493
1765877604.394165,490
1765877604.395189,496
1765877604.3961768,495
1765877604.397177,493
1765877604.398207,492
1765877604.3992121,494
1765877604.4002,494
1765877604.401201,493
1765877604.402206,493
1765877604.403195,492
1765877604.404201,493
1765877604.405204,496
1765877604.4062028,495
1765877604.40724,497
1765877604.4082382,498
1765877604.4092329,498
1765877604.410235,497
1765877604.411276,496
1765877604.412307,492
1765877604.413263,494
1765877604.4142568,495
1765877604.4152582,495
1765877604.416258,494
1765877604.4172401,493
1765877604.418242,495
1765877604.4192379,495
1765877604.42024,494
1765877604.421243,495
1765877604.422255,495
1765877604.4232588,494
1765877604.424277,495
1765877604.4252548,496
1765877604.426249,495
1765877604.427264,494
1765877604.4282691,497
1765877604.4292748,497
1765877604.430293,496
1765877604.4312708,495
1765877604.432298,493
1765877604.433283,494
1765877604.434294,493
1765877604.435307,493
1765877604.436328,494
1765877604.4373949,494
1765877604.438325,494
1765877604.439311,494
1765877604.440311,494
1765877604.441309,495
1765877604.442318,496
1765877604.443316,497
1765877604.444326,498
1765877604.445343,497
1765877604.446325,496
1765877604.447325,497
1765877604.448351,493
1765877604.4493399,492
1765877604.45035,494
1765877604.4513621,495
1765877604.4523551,497
1765877604.453393,499
1765877604.454418,500
1765877604.455431,500
1765877604.456416,495
1765877604.4573739,494
1765877604.458377,495
1765877604.459363,495
1765877604.460368,496
1765877604.461386,496
1765877604.462367,494
1765877604.4633799,490
1765877604.464402,493
1765877604.465385,494
1765877604.4663832,495
1765877604.46739,495
1765877604.468406,496
1765877604.469398,493
1765877604.4703958,492
1765877604.4714081,495
1765877604.472401,494
1765877604.473419,493
1765877604.474401,493
1765877604.4754298,494
1765877604.476428,494
1765877604.477427,495
1765877604.47842,496
1765877604.479423,496
1765877604.4804292,496
1765877604.481427,496
1765877604.482421,495
1765877604.483449,493
1765877604.48444,494
1765877604.4854321,495
1765877604.48646,494
1765877604.487447,495
1765877604.4884648,495
1765877604.4894478,495
1765877604.490466,494
1765877604.49146,493
1765877604.492459,494
1765877604.49345,495
1765877604.494477,495
1765877604.4955132,496
1765877604.4965272,496
1765877604.497498,496
1765877604.4984891,495
1765877604.4994922,495
1765877604.500494,493
1765877604.501496,494
1765877604.5025249,494
1765877604.503579,495
1765877604.504559,495
1765877604.505578,495
1765877604.506588,495
1765877604.5075042,494
1765877604.508548,495
1765877604.50953,496
1765877604.5105321,495
1765877604.511515,495
1765877604.512523,495
1765877604.513543,494
1765877604.514539,494
1765877604.515532,493
1765877604.51653,494
1765877604.5175319,496
1765877604.518527,495
1765877604.519524,495
1765877604.520549,496
1765877604.521547,496
1765877604.5225642,496
1765877604.523552,495
1765877604.524561,495
1765877604.525571,496
1765877604.526578,496
1765877604.527585,495
1765877604.528594,494
1765877604.529597,492
1765877604.530601,494
1765877604.531609,494
1765877604.532578,495
1765877604.533609,495
1765877604.534613,497
1765877604.535668,498
1765877604.536812,499
1765877604.537656,500
1765877604.538618,499
1765877604.539586,493
1765877604.540616,490
1765877604.541599,492
1765877604.542599,494
1765877604.543627,494
1765877604.5445929,495
1765877604.545632,496
1765877604.546626,494
1765877604.547652,494
1765877604.54866,496
1765877604.549651,497
1765877604.550637,494
1765877604.551645,493
1765877604.552625,494
1765877604.55364,494
1765877604.554647,494
1765877604.5556438,494
1765877604.5566442,493
1765877604.557643,494
1765877604.558641,493
1765877604.5596569,494
1765877604.560643,495
1765877604.56184,495
1765877604.562714,496
1765877604.563683,497
1765877604.564667,498
1765877604.565676,499
1765877604.5667431,499
1765877604.567723,497
1765877604.5686982,494
1765877604.569717,489
1765877604.5707798,492
1765877604.571724,492
1765877604.572733,494
1765877604.5737422,494
1765877604.5747352,494
1765877604.575711,494
1765877604.576726,494
1765877604.5777411,494
1765877604.5787709,494
1765877604.5798001,495
1765877604.580756,495
1765877604.581801,495
1765877604.582735,494
1765877604.5837572,495
1765877604.584728,493
1765877604.585731,494
1765877604.586745,496
1765877604.587749,495
1765877604.588761,494
1765877604.58975,496
1765877604.5907352,495
1765877604.591737,495
1765877604.5927339,495
1765877604.5937731,495
1765877604.594761,495
1765877604.5957592,496
1765877604.5967622,495
1765877604.597759,494
1765877604.598782,495
1765877604.5997849,496
1765877604.600783,496
1765877604.601781,496
1765877604.602787,496
1765877604.603809,496
1765877604.604807,497
1765877604.605786,497
1765877604.606793,495
1765877604.607816,494
1765877604.608811,493
1765877604.609804,491
1765877604.610799,494
1765877604.611812,493
1765877604.6128252,494
1765877604.613824,495
1765877604.6148212,495
1765877604.615836,495
1765877604.616831,496
1765877604.617826,497
1765877604.618849,498
1765877604.6199172,499
1765877604.620893,501
1765877604.6218681,499
1765877604.622846,494
1765877604.62384,486
1765877604.624854,493
1765877604.625851,494
1765877604.626858,495
1765877604.627848,494
1765877604.628862,494
1765877604.629869,494
1765877604.630847,495
1765877604.631865,496
1765877604.632888,496
1765877604.6338649,496
1765877604.634885,495
1765877604.635888,496
1765877604.636907,495
1765877604.637901,495
1765877604.638888,495
1765877604.639887,495
1765877604.640894,495
1765877604.6419032,495
1765877604.6428978,495
1765877604.643898,495
1765877604.644893,495
1765877604.6459022,495
1765877604.646903,495
1765877604.647912,495
1765877604.6489139,495
1765877604.649913,495
1765877604.6509068,495
1765877604.651914,496
1765877604.652919,496
1765877604.653939,496
1765877604.6549351,496
1765877604.655935,496
1765877604.656944,496
1765877604.65795,497
1765877604.6589398,495
1765877604.6599329,494
1765877604.660937,495
1765877604.6619809,494
1765877604.663012,493
1765877604.6639721,494
1765877604.6649768,494
1765877604.665979,495
1765877604.6669528,495
1765877604.667952,495
1765877604.6689742,495
1765877604.670238,495
1765877604.672058,495
1765877604.6720982,495
1765877604.6742022,495
1765877604.674232,495
1765877604.684256,494
1765877604.684279,494
1765877604.684324,495
1765877604.684342,494
1765877604.684358,494
1765877604.684374,494
1765877604.6843898,495
1765877604.684405,495
1765877604.684421,496
1765877604.684437,496
1765877604.6851149,495
1765877604.686112,495
1765877604.687111,495
1765877604.688073,495
1765877604.6891,495
1765877604.690113,494
1765877604.691114,495
1765877604.692085,494
1765877604.6930811,495
1765877604.694108,495
1765877604.69508,496
1765877604.69612,496
1765877604.697093,498
1765877604.698089,498
1765877604.69906,498
1765877604.700054,494
1765877604.701098,493
1765877604.702065,494
1765877604.7030568,495
1765877604.704075,495
1765877604.705075,496
1765877604.7060869,498
1765877604.7070668,498
1765877604.7081048,496
1765877604.709121,495
1765877604.7101219,495
1765877604.711196,494
