timestamp,emg_value
1765877626.261643,496
1765877626.26173,495
1765877626.261754,496
1765877626.2617931,496
1765877626.2618082,496
1765877626.261848,494
1765877626.261856,495
1765877626.261863,495
1765877626.261879,496
1765877626.261886,495
1765877626.261892,495
1765877626.261898,495
1765877626.2619038,494
1765877626.26191,494
1765877626.261916,495
1765877626.2619221,495
1765877626.261955,495
1765877626.261965,495
1765877626.261972,496
1765877626.2619781,496
1765877626.261983,496
1765877626.262023,495
1765877626.262062,495
1765877626.262069,495
1765877626.262076,496
1765877626.262089,495
1765877626.262097,496
1765877626.262103,495
1765877626.262109,495
1765877626.262115,496
1765877626.262121,495
1765877626.2621272,495
1765877626.262133,495
1765877626.262172,496
1765877626.262178,496
1765877626.262184,497
1765877626.26219,497
1765877626.262196,497
1765877626.262202,495
1765877626.262208,495
1765877626.262214,493
1765877626.262223,495
1765877626.262229,494
1765877626.262235,493
1765877626.26224,493
1765877626.262246,495
1765877626.262251,495
1765877626.2622569,496
1765877626.2622652,494
1765877626.262272,494
1765877626.2622788,495
1765877626.2622888,495
1765877626.262298,494
1765877626.2623072,494
1765877626.262314,494
1765877626.262321,495
1765877626.2623281,495
1765877626.262336,495
1765877626.262344,496
1765877626.26235,496
1765877626.2623549,496
1765877626.262361,496
1765877626.262367,495
1765877626.2623732,495
1765877626.262379,495
1765877626.2624059,496
1765877626.262413,495
1765877626.26242,495
1765877626.2624269,496
1765877626.262435,497
1765877626.262441,498
1765877626.262447,498
1765877626.262453,499
1765877626.26246,497
1765877626.262466,494
1765877626.262472,495
1765877626.262478,497
1765877626.262492,496
1765877626.2625,493
1765877626.262507,493
1765877626.262513,494
1765877626.262518,494
1765877626.262524,495
1765877626.26253,494
1765877626.262536,495
1765877626.262542,495
1765877626.262547,495
1765877626.262553,495
1765877626.262559,495
1765877626.2625651,495
1765877626.262571,495
1765877626.2625768,496
1765877626.262583,495
1765877626.26259,495
1765877626.262597,495
1765877626.262603,495
1765877626.262609,494
1765877626.262615,495
1765877626.262621,496
1765877626.2626271,495
1765877626.2626328,495
1765877626.262639,495
1765877626.262645,496
1765877626.262651,495
1765877626.262658,495
1765877626.262666,495
1765877626.262673,495
1765877626.262678,495
1765877626.2626839,495
1765877626.2627041,496
1765877626.26271,495
1765877626.2627158,495
1765877626.262722,495
1765877626.262728,495
1765877626.262733,495
1765877626.26274,495
1765877626.2627468,495
1765877626.262754,495
1765877626.262762,495
1765877626.262768,495
1765877626.262774,495
1765877626.262781,495
1765877626.262788,496
1765877626.262795,496
1765877626.262802,496
1765877626.262808,495
1765877626.262815,495
1765877626.2628229,495
1765877626.262829,495
1765877626.262845,494
1765877626.2628522,494
1765877626.262861,494
1765877626.262868,495
1765877626.2628741,495
1765877626.26288,495
1765877626.2628858,496
1765877626.262892,494
1765877626.262898,494
1765877626.2629042,495
1765877626.26291,495
1765877626.262916,495
1765877626.262922,495
1765877626.2629278,494
1765877626.262934,494
1765877626.26294,495
1765877626.2629461,495
1765877626.2629519,494
1765877626.262958,494
1765877626.262963,495
1765877626.262969,495
1765877626.262976,496
1765877626.262984,495
1765877626.26299,495
1765877626.262996,495
1765877626.2630022,495
1765877626.263008,495
1765877626.2630138,495
1765877626.26302,495
1765877626.263027,495
1765877626.263034,495
1765877626.26304,495
1765877626.2630458,494
1765877626.263052,494
1765877626.263058,495
1765877626.2630641,495
1765877626.2630699,495
1765877626.263076,495
1765877626.263082,495
1765877626.2630882,495
1765877626.263094,495
1765877626.2631,495
1765877626.263106,495
1765877626.2631109,495
1765877626.263118,495
1765877626.263124,496
1765877626.2631302,496
1765877626.263136,496
1765877626.2631419,497
1765877626.263147,497
1765877626.2631528,497
1765877626.263159,498
1765877626.263165,497
1765877626.263171,496
1765877626.263177,494
1765877626.2631838,495
1765877626.26319,495
1765877626.263197,494
1765877626.2632031,494
1765877626.2632089,492
1765877626.263214,494
1765877626.26322,495
1765877626.263226,495
1765877626.2632341,495
1765877626.263241,495
1765877626.263249,495
1765877626.263256,495
1765877626.263263,495
1765877626.26327,495
1765877626.263276,494
1765877626.2632818,495
1765877626.263288,495
1765877626.263294,495
1765877626.2633002,495
1765877626.263306,495
1765877626.2633119,495
1765877626.263318,495
1765877626.263324,495
1765877626.2633312,495
1765877626.263338,496
1765877626.263344,495
1765877626.26335,495
1765877626.263359,495
1765877626.263366,495
1765877626.263372,495
1765877626.263378,495
1765877626.263384,495
1765877626.26339,495
1765877626.263396,495
1765877626.263402,495
1765877626.2634082,496
1765877626.263414,495
1765877626.2634199,495
1765877626.263426,496
1765877626.263432,496
1765877626.263438,497
1765877626.263444,497
1765877626.2634501,497
1765877626.263456,496
1765877626.2634618,496
1765877626.263468,496
1765877626.263474,495
1765877626.26348,494
1765877626.263486,495
1765877626.263492,495
1765877626.263498,495
1765877626.2635038,495
1765877626.26351,495
1765877626.263525,495
1765877626.2635388,495
1765877626.263547,496
1765877626.2635531,495
1765877626.2635589,497
1765877626.263565,497
1765877626.263571,496
1765877626.263577,495
1765877626.263583,496
1765877626.2635891,496
1765877626.263595,497
1765877626.2636008,498
1765877626.263607,497
1765877626.263613,495
1765877626.2636201,492
1765877626.263626,494
1765877626.2636318,495
1765877626.263638,494
1765877626.263644,494
1765877626.26365,495
1765877626.263656,494
1765877626.263662,495
1765877626.263668,496
1765877626.263674,495
1765877626.26368,496
1765877626.263686,495
1765877626.2636921,495
1765877626.263699,496
1765877626.2637131,495
1765877626.2637188,494
1765877626.263725,495
1765877626.263731,496
1765877626.2637372,495
1765877626.263743,495
1765877626.2637491,495
1765877626.263755,495
1765877626.2637608,495
1765877626.263767,496
1765877626.263773,496
1765877626.2637792,496
1765877626.263785,496
1765877626.263791,494
1765877626.263797,493
1765877626.2638028,494
1765877626.2638102,495
1765877626.263817,495
1765877626.263825,494
1765877626.263832,495
1765877626.263838,495
1765877626.263844,496
1765877626.26385,495
1765877626.2638562,495
1765877626.2638621,496
1765877626.2638679,495
1765877626.2638762,495
1765877626.263883,496
1765877626.2638888,495
1765877626.263895,495
1765877626.263901,495
1765877626.263907,495
1765877626.263913,494
1765877626.263919,495
1765877626.263925,496
1765877626.2639308,496
1765877626.263937,496
1765877626.263943,496
1765877626.2639492,496
1765877626.2639549,497
1765877626.263961,497
1765877626.263969,497
1765877626.2639759,496
1765877626.263982,497
1765877626.263989,496
1765877626.263995,496
1765877626.2640011,496
1765877626.2640069,495
1765877626.264013,496
1765877626.264019,495
1765877626.264025,495
1765877626.264031,495
1765877626.2640371,496
1765877626.264045,495
1765877626.264051,495
1765877626.2640572,495
1765877626.264064,495
1765877626.264072,495
1765877626.264079,495
1765877626.264086,495
1765877626.2640908,495
1765877626.264097,495
1765877626.264103,496
1765877626.2641091,496
1765877626.2641149,495
1765877626.264121,495
1765877626.264127,495
1765877626.2641332,495
1765877626.264139,495
1765877626.264145,495
1765877626.264151,495
1765877626.2641568,495
1765877626.264163,495
1765877626.264169,495
1765877626.2641761,495
1765877626.264183,495
1765877626.264191,495
1765877626.2641978,495
1765877626.264205,496
1765877626.264214,495
1765877626.264221,495
1765877626.264228,495
1765877626.264234,496
1765877626.26424,495
1765877626.264246,495
1765877626.264252,495
1765877626.2642581,495
1765877626.2642639,495
1765877626.26427,495
1765877626.264276,495
1765877626.2642822,495
1765877626.264288,495
1765877626.264294,495
1765877626.2643,495
1765877626.2643058,495
1765877626.264313,495
1765877626.26432,495
1765877626.2643268,495
1765877626.2643352,495
1765877626.264342,495
1765877626.264349,495
1765877626.2643552,495
1765877626.264361,495
1765877626.264367,495
1765877626.264373,495
1765877626.2643788,494
1765877626.264386,496
1765877626.264394,495
1765877626.2643998,495
1765877626.2644072,495
1765877626.2644138,495
1765877626.264422,495
1765877626.264429,495
1765877626.264435,495
1765877626.264441,495
1765877626.264447,495
1765877626.2644532,495
1765877626.264459,496
1765877626.2644649,495
1765877626.264471,495
1765877626.264477,495
1765877626.264483,495
1765877626.264489,495
1765877626.2644951,494
1765877626.264501,495
1765877626.2645068,495
1765877626.264513,495
1765877626.264519,495
1765877626.2645252,496
1765877626.264531,495
1765877626.264537,496
1765877626.264543,495
1765877626.264549,495
1765877626.2645571,495
1765877626.264564,495
1765877626.26457,495
1765877626.264576,495
1765877626.264582,495
1765877626.264588,495
1765877626.2645938,495
1765877626.2646,495
1765877626.264607,495
1765877626.2646148,495
1765877626.264621,495
1765877626.264627,495
1765877626.2646332,495
1765877626.264639,495
1765877626.2646458,494
1765877626.264652,494
1765877626.264658,494
1765877626.2646642,495
1765877626.26467,495
1765877626.264676,495
1765877626.264682,496
1765877626.264688,495
1765877626.264695,495
1765877626.264701,495
1765877626.264707,495
1765877626.264713,495
1765877626.264719,495
1765877626.264727,495
1765877626.2647328,495
1765877626.264739,495
1765877626.264745,495
1765877626.2647512,495
1765877626.264757,495
1765877626.2647629,495
1765877626.264769,495
1765877626.2647748,495
1765877626.264781,495
1765877626.264787,495
1765877626.264794,495
1765877626.2648,495
1765877626.2648058,495
1765877626.264812,495
1765877626.264818,495
1765877626.2648242,495
1765877626.2648299,495
1765877626.264836,495
1765877626.264842,495
1765877626.2648478,495
1765877626.264854,495
1765877626.26486,494
1765877626.264866,495
1765877626.264873,495
1765877626.264881,495
1765877626.2648902,495
1765877626.264898,495
1765877626.264904,495
1765877626.26491,495
1765877626.264916,495
1765877626.2649221,495
1765877626.264928,496
1765877626.2649338,495
1765877626.26494,495
1765877626.264946,495
1765877626.2649522,496
1765877626.264958,496
1765877626.264964,496
1765877626.26497,495
1765877626.2649758,495
1765877626.264982,496
1765877626.264988,495
1765877626.2649941,495
1765877626.2649999,495
1765877626.265006,495
1765877626.265012,496
1765877626.2650182,495
1765877626.265024,495
1765877626.26503,495
1765877626.265036,495
1765877626.2650418,495
1765877626.265048,495
1765877626.265056,495
1765877626.2650628,495
1765877626.265069,495
1765877626.265075,495
1765877626.2650812,495
1765877626.265087,495
1765877626.265093,496
1765877626.265099,495
1765877626.265105,495
1765877626.265111,495
1765877626.265117,495
1765877626.2651231,495
1765877626.2651289,495
1765877626.265137,495
1765877626.265145,496
1765877626.265152,495
1765877626.265159,495
1765877626.265165,495
1765877626.265171,495
1765877626.265177,495
1765877626.265183,495
1765877626.2651892,496
1765877626.265195,496
1765877626.2652009,495
1765877626.265207,495
1765877626.265213,495
1765877626.265219,495
1765877626.2652302,495
1765877626.265237,495
1765877626.2652428,495
1765877626.265249,495
1765877626.265255,495
1765877626.2652612,495
1765877626.265267,495
1765877626.265273,496
1765877626.265279,495
1765877626.265285,495
1765877626.265291,495
1765877626.265297,495
1765877626.2653031,495
1765877626.2653089,495
1765877626.265315,496
1765877626.265321,495
1765877626.2653272,495
1765877626.265333,495
1765877626.265339,495
1765877626.265345,495
1765877626.2653508,495
1765877626.265357,494
1765877626.265363,495
1765877626.2653692,495
1765877626.265375,496
1765877626.265381,496
1765877626.265388,495
1765877626.265395,496
1765877626.2654011,495
1765877626.265407,495
1765877626.265413,495
1765877626.265419,495
1765877626.265425,495
1765877626.265431,495
1765877626.265437,496
1765877626.265443,496
1765877626.265449,495
1765877626.265455,495
1765877626.265461,496
1765877626.265467,495
1765877626.265474,496
1765877626.265482,496
1765877626.2654889,495
1765877626.265497,496
1765877626.265503,496
1765877626.2655091,495
1765877626.265515,495
1765877626.2655208,496
1765877626.265527,496
1765877626.265534,496
1765877626.265541,496
1765877626.265549,495
1765877626.2655559,496
1765877626.265565,495
1765877626.265572,495
1765877626.265578,495
1765877626.2655842,496
1765877626.265589,496
1765877626.265596,496
1765877626.265601,496
1765877626.2656069,495
1765877626.265613,496
1765877626.265619,496
1765877626.265625,496
1765877626.265631,495
1765877626.2656372,495
1765877626.2656431,495
1765877626.2656488,496
1765877626.265655,495
1765877626.265661,496
1765877626.265667,496
1765877626.265675,495
1765877626.265682,496
1765877626.26569,496
1765877626.265697,496
1765877626.2657049,496
1765877626.265712,496
1765877626.265718,496
1765877626.265724,496
1765877626.2657301,495
1765877626.265737,495
1765877626.265745,496
1765877626.2657511,495
1765877626.2657568,495
1765877626.265762,496
1765877626.265768,495
1765877626.265774,496
1765877626.26578,495
1765877626.265787,495
1765877626.265793,495
1765877626.2657988,496
1765877626.265805,495
1765877626.265811,495
1765877626.2658172,496
1765877626.265823,495
1765877626.2658281,496
1765877626.265834,496
1765877626.26584,496
1765877626.265846,495
1765877626.265852,495
1765877626.265858,495
1765877626.265864,496
1765877626.265871,496
1765877626.265877,495
1765877626.265882,495
1765877626.265888,495
1765877626.265894,495
1765877626.2659042,495
1765877626.26591,496
1765877626.2659168,495
1765877626.265924,496
1765877626.26593,496
1765877626.265936,496
1765877626.265942,495
1765877626.2659478,495
1765877626.265954,496
1765877626.26596,495
1765877626.2659662,496
1765877626.265974,496
1765877626.265981,495
1765877626.265988,496
1765877626.265994,496
1765877626.2659998,495
1765877626.266007,495
1765877626.266013,496
1765877626.266019,496
1765877626.266025,495
1765877626.266031,495
1765877626.266037,495
1765877626.266043,496
1765877626.266049,496
1765877626.2660549,496
1765877626.266061,495
1765877626.266069,495
1765877626.266077,495
1765877626.2660842,495
1765877626.266091,496
1765877626.266099,496
1765877626.2661052,495
1765877626.266111,495
1765877626.266117,495
1765877626.266123,495
1765877626.2661288,496
1765877626.266135,495
1765877626.266141,495
1765877626.2661471,495
1765877626.2661529,495
1765877626.266159,496
1765877626.266165,496
1765877626.266171,496
1765877626.266177,496
1765877626.266183,497
1765877626.266189,497
1765877626.266195,497
1765877626.266201,496
1765877626.266207,496
1765877626.2662132,497
1765877626.26622,496
1765877626.266227,497
1765877626.2662349,497
1765877626.266243,497
1765877626.26625,497
1765877626.2662559,496
1765877626.266262,496
1765877626.266268,496
1765877626.266274,497
1765877626.26628,497
1765877626.2662861,496
1765877626.2662919,496
1765877626.266298,496
1765877626.266304,496
1765877626.26631,496
1765877626.266316,496
1765877626.266322,495
1765877626.266328,496
1765877626.266334,496
1765877626.2663412,496
1765877626.266349,496
1765877626.266356,496
1765877626.2663622,496
1765877626.266368,496
1765877626.2663739,495
1765877626.26638,496
1765877626.266386,496
1765877626.266392,496
1765877626.266398,495
1765877626.2664042,495
1765877626.266412,495
1765877626.266419,496
1765877626.2664251,496
1765877626.266431,495
1765877626.266437,496
1765877626.266443,495
1765877626.266449,496
1765877626.266455,496
1765877626.266461,496
1765877626.266467,496
1765877626.266473,496
1765877626.266479,496
1765877626.266485,496
1765877626.266491,495
1765877626.2664971,496
1765877626.2665029,495
1765877626.266509,495
1765877626.266515,496
1765877626.266521,495
1765877626.266527,496
1765877626.2665331,495
1765877626.266539,496
1765877626.2665448,496
1765877626.266551,496
1765877626.266557,496
1765877626.2665632,496
1765877626.266569,496
1765877626.2665758,495
1765877626.2665842,496
1765877626.2665899,496
1765877626.266596,496
1765877626.266602,496
1765877626.2666082,496
1765877626.266614,496
1765877626.26662,495
1765877626.2666261,496
1765877626.2666318,495
1765877626.266638,496
1765877626.266644,495
1765877626.2666502,496
1765877626.266656,495
1765877626.266662,495
1765877626.266667,496
1765877626.2666728,496
1765877626.26668,496
1765877626.266686,495
1765877626.266691,496
1765877626.266697,496
1765877626.2667031,495
1765877626.266709,496
1765877626.2667148,496
1765877626.266721,496
1765877626.266727,496
1765877626.266739,496
1765877626.266747,495
1765877626.266755,496
1765877626.266762,495
1765877626.266769,495
1765877626.2667751,496
1765877626.2667809,496
1765877626.266787,496
1765877626.266793,495
1765877626.2667992,495
1765877626.266805,495
1765877626.266811,495
1765877626.266817,495
1765877626.2668228,495
1765877626.266829,495
1765877626.266835,495
1765877626.2668412,496
1765877626.266847,495
1765877626.266853,496
1765877626.266859,496
1765877626.266867,495
1765877626.266874,495
1765877626.266881,496
1765877626.266887,496
1765877626.2668931,495
1765877626.2668989,495
1765877626.266905,496
1765877626.266913,495
1765877626.2669199,496
1765877626.266926,495
1765877626.266932,495
1765877626.2669382,496
1765877626.266944,496
1765877626.26695,496
1765877626.266957,496
1765877626.266964,495
1765877626.2669718,495
1765877626.266979,496
1765877626.266985,495
1765877626.2669911,495
1765877626.266997,495
1765877626.2670028,495
1765877626.267009,495
1765877626.267015,496
1765877626.267021,496
1765877626.267027,496
1765877626.267033,496
1765877626.267039,496
1765877626.267045,496
1765877626.267051,495
1765877626.267057,497
1765877626.2670631,496
1765877626.2670689,495
1765877626.267075,496
1765877626.267082,495
1765877626.267089,495
1765877626.267095,496
1765877626.2671008,496
1765877626.267107,496
1765877626.267113,496
1765877626.2671192,496
1765877626.267125,495
1765877626.2671309,496
1765877626.267137,495
1765877626.267143,496
1765877626.267149,496
1765877626.267155,496
1765877626.2671611,496
1765877626.267167,496
1765877626.267173,495
1765877626.267179,496
1765877626.267185,496
1765877626.267191,496
1765877626.267197,495
1765877626.267203,495
1765877626.267209,495
1765877626.267216,495
1765877626.2672231,496
1765877626.267231,496
1765877626.267238,496
1765877626.267244,496
1765877626.267252,496
1765877626.267259,495
1765877626.267264,495
1765877626.2672698,495
1765877626.267276,496
1765877626.267282,496
1765877626.267288,496
1765877626.267294,496
1765877626.2673001,496
1765877626.267307,495
1765877626.267313,495
1765877626.267318,495
1765877626.267325,494
1765877626.26733,495
1765877626.267336,496
1765877626.267343,495
1765877626.26735,495
1765877626.267358,495
1765877626.2673652,495
1765877626.267371,495
1765877626.267377,495
1765877626.267384,495
1765877626.26739,495
1765877626.2673962,496
1765877626.267402,495
1765877626.267408,496
1765877626.2674172,496
1765877626.267424,496
1765877626.2674298,496
1765877626.267436,496
1765877626.267443,496
1765877626.26745,495
1765877626.267458,496
1765877626.2674649,496
1765877626.267471,495
1765877626.267489,494
1765877626.267495,495
1765877626.267501,494
1765877626.2675068,495
1765877626.267513,495
1765877626.267519,495
1765877626.2675252,495
1765877626.267531,495
1765877626.2675369,494
1765877626.267543,494
1765877626.2675478,495
1765877626.267554,495
1765877626.26756,496
1765877626.267566,496
1765877626.2675729,495
1765877626.2675788,495
1765877626.267585,496
1765877626.267591,495
1765877626.2675982,496
1765877626.267605,495
1765877626.267612,494
1765877626.26762,495
1765877626.267626,494
1765877626.2676322,493
1765877626.267638,493
1765877626.267644,494
1765877626.2676501,496
1765877626.2676558,496
1765877626.267662,495
1765877626.267668,495
1765877626.267675,496
1765877626.2676811,495
1765877626.2676868,495
1765877626.267693,494
1765877626.267699,495
1765877626.2677052,496
1765877626.267711,495
1765877626.2677171,496
1765877626.267723,496
1765877626.2677288,495
1765877626.267735,495
1765877626.267741,495
1765877626.2677472,495
1765877626.267753,496
1765877626.267759,496
1765877626.267769,496
1765877626.267776,496
1765877626.267782,495
1765877626.267788,495
1765877626.2678442,495
1765877626.267861,494
1765877626.267885,495
1765877626.267892,495
1765877626.267898,496
1765877626.267904,495
1765877626.267919,495
1765877626.267925,495
1765877626.267931,495
1765877626.267937,495
1765877626.267943,494
1765877626.267949,495
1765877626.267956,495
1765877626.2679622,494
1765877626.267968,494
1765877626.2679832,495
1765877626.267989,495
1765877626.2679949,496
1765877626.268001,496
1765877626.2680068,496
1765877626.268013,496
1765877626.268019,496
1765877626.2680252,495
1765877626.268033,496
1765877626.268041,496
1765877626.268047,496
1765877626.268053,495
1765877626.2680588,494
1765877626.268065,493
1765877626.268071,493
1765877626.2680771,495
1765877626.2680829,496
1765877626.268089,496
1765877626.268095,495
1765877626.2681012,496
1765877626.268107,495
1765877626.268113,496
1765877626.268119,496
1765877626.268126,495
1765877626.2681322,494
1765877626.268138,493
1765877626.2681441,496
1765877626.26815,497
1765877626.2681558,496
1765877626.268162,495
1765877626.268168,495
1765877626.2681742,496
1765877626.26818,496
1765877626.268186,496
1765877626.268192,495
1765877626.2682,495
1765877626.268208,494
1765877626.268214,495
1765877626.268221,496
1765877626.268227,496
1765877626.268233,495
1765877626.268239,496
1765877626.268245,495
1765877626.268251,495
1765877626.2682571,495
1765877626.268266,495
1765877626.2682722,495
1765877626.2682781,495
1765877626.268285,495
1765877626.268291,495
1765877626.268297,495
1765877626.2683032,494
1765877626.2683089,496
1765877626.2683148,495
1765877626.268321,495
1765877626.268328,495
1765877626.2683342,496
1765877626.2683399,495
1765877626.268346,496
1765877626.268352,496
1765877626.268358,496
1765877626.2683651,497
1765877626.268372,497
1765877626.268379,497
1765877626.268385,496
1765877626.268391,496
1765877626.268397,495
1765877626.268403,495
1765877626.268409,494
1765877626.268415,494
1765877626.2684212,495
1765877626.268427,495
1765877626.2684329,494
1765877626.268439,494
1765877626.268445,495
1765877626.268451,496
1765877626.268457,497
1765877626.2684631,495
1765877626.268469,496
1765877626.268481,496
1765877626.268487,497
1765877626.268493,496
1765877626.268498,496
1765877626.2685041,497
1765877626.2685099,497
1765877626.268516,497
1765877626.268522,496
1765877626.2685282,495
1765877626.268536,494
1765877626.268543,495
1765877626.2685492,497
1765877626.268555,496
1765877626.268561,498
1765877626.268567,498
1765877626.268573,497
1765877626.268579,496
1765877626.268585,495
1765877626.2685912,495
1765877626.268597,495
1765877626.2686028,495
1765877626.268609,496
1765877626.2686138,495
1765877626.26862,495
1765877626.268626,495
1765877626.2686322,495
1765877626.268638,495
1765877626.268644,496
1765877626.26865,496
1765877626.268656,496
1765877626.268662,494
1765877626.268667,494
1765877626.268673,495
1765877626.268679,493
1765877626.268685,493
1765877626.268691,494
1765877626.2687008,495
1765877626.268708,498
1765877626.268714,498
1765877626.2687201,496
1765877626.268726,495
1765877626.2687318,495
1765877626.268738,495
1765877626.268744,494
1765877626.2687502,495
1765877626.268755,495
1765877626.2687612,496
1765877626.2687669,497
1765877626.268775,496
1765877626.268781,495
1765877626.268787,494
1765877626.268793,496
1765877626.2687979,495
1765877626.268804,494
1765877626.26881,494
1765877626.2688158,495
1765877626.268822,495
1765877626.268828,495
1765877626.268833,495
1765877626.268839,496
1765877626.268845,495
1765877626.268851,495
1765877626.268859,495
1765877626.2688682,495
1765877626.268874,495
1765877626.26888,494
1765877626.268887,495
1765877626.268893,495
1765877626.268898,495
1765877626.268904,496
1765877626.2689102,495
1765877626.268916,495
1765877626.268922,496
1765877626.268928,494
1765877626.2689338,494
1765877626.26894,495
1765877626.268945,495
1765877626.268951,496
1765877626.268957,496
1765877626.268963,496
1765877626.268969,495
1765877626.268975,495
1765877626.268981,495
1765877626.2689862,495
1765877626.268992,495
1765877626.269004,495
1765877626.2690098,495
1765877626.269016,495
1765877626.269021,495
1765877626.2690291,495
1765877626.269035,495
1765877626.2690408,495
1765877626.269046,494
1765877626.2690518,495
1765877626.269058,495
1765877626.269067,495
1765877626.2690759,495
1765877626.269086,495
1765877626.269093,495
1765877626.2691,494
1765877626.269106,494
1765877626.269112,495
1765877626.269118,495
1765877626.269124,496
1765877626.26913,495
1765877626.269136,495
1765877626.269143,495
1765877626.26915,495
1765877626.2691572,495
1765877626.269163,495
1765877626.2691689,495
1765877626.269174,495
1765877626.2691798,494
1765877626.269186,495
1765877626.269192,496
1765877626.2691982,495
1765877626.269204,495
1765877626.26921,495
1765877626.269216,494
1765877626.2692218,495
1765877626.269228,495
1765877626.269234,495
1765877626.269242,495
1765877626.269248,494
1765877626.269257,495
1765877626.269263,495
1765877626.269269,496
1765877626.269279,495
1765877626.269286,495
1765877626.269292,494
1765877626.269299,495
1765877626.269307,495
1765877626.269314,495
1765877626.269321,495
1765877626.2693279,495
1765877626.269336,495
1765877626.269343,496
1765877626.2693481,496
1765877626.2693539,495
1765877626.26936,495
1765877626.269366,495
1765877626.2693708,495
1765877626.269377,495
1765877626.269383,495
1765877626.2693892,495
1765877626.2693949,495
1765877626.269401,496
1765877626.2694101,495
1765877626.269417,495
1765877626.269423,495
1765877626.269433,495
1765877626.269439,495
1765877626.269448,495
1765877626.269454,495
1765877626.26946,495
1765877626.269465,495
1765877626.269471,495
1765877626.2694771,496
1765877626.269483,496
1765877626.2694888,495
1765877626.269494,496
1765877626.2695,495
1765877626.269506,496
1765877626.269512,495
1765877626.269517,495
1765877626.269523,494
1765877626.269529,495
1765877626.269535,495
1765877626.269541,496
1765877626.269546,495
1765877626.2695522,495
1765877626.269558,495
1765877626.269564,495
1765877626.26957,495
1765877626.2695749,495
1765877626.269581,495
1765877626.269587,495
1765877626.269593,495
1765877626.269601,496
1765877626.269608,495
1765877626.2696152,495
1765877626.2696261,495
1765877626.269632,495
1765877626.2696378,495
1765877626.269645,496
1765877626.269652,496
1765877626.269658,495
1765877626.269664,495
1765877626.2696698,495
1765877626.269676,496
1765877626.269682,495
1765877626.2696881,495
1765877626.2696939,495
1765877626.269699,495
1765877626.269705,495
1765877626.269711,495
1765877626.269717,495
1765877626.269723,496
1765877626.269728,496
1765877626.269734,496
1765877626.26974,495
1765877626.2697458,495
1765877626.269762,495
1765877626.269768,495
1765877626.2697742,495
1765877626.269782,495
1765877626.269789,495
1765877626.269799,495
1765877626.269805,495
1765877626.269811,495
1765877626.269817,495
1765877626.2698271,495
1765877626.269834,496
1765877626.26985,495
1765877626.2698581,496
1765877626.2698638,495
1765877626.269871,495
1765877626.269878,495
1765877626.269886,495
1765877626.269892,495
1765877626.269898,495
1765877626.269904,495
1765877626.26991,495
1765877626.2699158,495
1765877626.269923,495
1765877626.269929,496
1765877626.2699351,495
1765877626.269941,496
1765877626.2699468,495
1765877626.269953,496
1765877626.269959,495
1765877626.2699652,495
1765877626.269971,496
1765877626.2699788,495
1765877626.2699862,496
1765877626.269994,495
1765877626.2700002,496
1765877626.270006,495
1765877626.270012,496
1765877626.270018,496
1765877626.2700238,495
1765877626.270035,495
1765877626.270041,496
1765877626.270047,496
1765877626.2700531,496
1765877626.270059,496
1765877626.2700648,496
1765877626.270071,495
1765877626.270077,495
1765877626.2700832,495
1765877626.270089,495
1765877626.270095,496
1765877626.270103,496
1765877626.270109,494
1765877626.2701151,495
1765877626.2701209,495
1765877626.270127,496
1765877626.270133,495
1765877626.270139,496
1765877626.270145,496
1765877626.270157,495
1765877626.270163,495
1765877626.270171,495
1765877626.2701771,495
1765877626.2701828,495
1765877626.270189,495
1765877626.270195,495
1765877626.2702012,495
1765877626.270207,495
1765877626.2702131,496
1765877626.270219,495
1765877626.2702248,495
1765877626.270231,496
1765877626.270236,495
1765877626.270242,496
1765877626.270248,495
1765877626.2702541,495
1765877626.2702599,495
1765877626.270266,495
1765877626.270272,495
1765877626.270278,496
1765877626.270284,495
1765877626.27029,495
1765877626.270296,496
1765877626.270302,495
1765877626.270308,496
1765877626.270314,496
1765877626.2703202,496
1765877626.2703302,496
1765877626.270336,495
1765877626.270345,495
1765877626.2703512,496
1765877626.270357,496
1765877626.2703629,496
1765877626.270369,495
1765877626.270375,495
1765877626.270381,495
1765877626.270387,496
1765877626.2703931,495
1765877626.270399,495
1765877626.270405,496
1765877626.270411,495
1765877626.270417,495
1765877626.2704241,495
1765877626.270431,495
1765877626.270437,496
1765877626.270443,495
1765877626.2704482,495
1765877626.2704551,495
1765877626.2704608,495
1765877626.270467,496
1765877626.270472,496
1765877626.270478,496
1765877626.270484,495
1765877626.2704902,495
1765877626.270496,495
1765877626.270505,496
1765877626.270512,496
1765877626.27052,495
1765877626.270526,496
1765877626.2705321,495
1765877626.270538,495
1765877626.270543,496
1765877626.270549,495
1765877626.2705548,496
1765877626.270561,496
1765877626.270567,495
1765877626.270574,495
1765877626.27058,495
1765877626.270586,495
1765877626.270592,495
1765877626.270598,495
1765877626.2706041,495
1765877626.2706099,496
1765877626.2707179,496
1765877626.270725,495
1765877626.270765,496
1765877626.270782,496
1765877626.270796,495
1765877626.270817,496
1765877626.270823,495
1765877626.270829,495
1765877626.270835,495
1765877626.2708428,496
1765877626.270849,496
1765877626.270856,495
1765877626.270862,495
1765877626.270868,495
1765877626.270874,496
1765877626.27088,496
1765877626.270886,496
1765877626.2708921,496
1765877626.2708979,495
1765877626.270904,495
1765877626.27091,496
1765877626.270916,495
1765877626.270924,496
1765877626.2709298,495
1765877626.270936,496
1765877626.270942,495
1765877626.2709498,496
1765877626.2709582,496
1765877626.270966,496
1765877626.270972,496
1765877626.270978,497
1765877626.270984,497
1765877626.2709901,497
1765877626.2709959,497
1765877626.271002,497
1765877626.271008,497
1765877626.271016,497
1765877626.271023,497
1765877626.271029,496
1765877626.271035,496
1765877626.271041,497
1765877626.2710469,497
1765877626.271053,497
1765877626.271059,496
1765877626.271065,496
1765877626.271071,496
1765877626.2710772,495
1765877626.271083,495
1765877626.2710888,496
1765877626.271095,496
1765877626.271101,495
1765877626.271107,495
1765877626.271113,496
1765877626.271119,495
1765877626.271125,495
1765877626.2711308,495
1765877626.271137,495
1765877626.271143,496
1765877626.2711492,495
1765877626.2711549,496
1765877626.271161,496
1765877626.271167,495
1765877626.2711732,495
1765877626.271181,496
1765877626.271188,496
1765877626.2711942,495
1765877626.2712,495
1765877626.271211,495
1765877626.271225,495
1765877626.271231,495
1765877626.2712371,496
1765877626.271243,496
1765877626.271256,495
1765877626.271262,495
1765877626.2712681,495
1765877626.271274,496
1765877626.27128,496
1765877626.271286,495
1765877626.271292,495
1765877626.271298,495
1765877626.2713048,495
1765877626.271311,495
1765877626.271316,495
1765877626.271323,495
1765877626.271328,495
1765877626.271334,495
1765877626.2713401,495
1765877626.2713459,495
1765877626.2713711,495
1765877626.2713768,495
1765877626.2713852,495
1765877626.271392,495
1765877626.2713978,495
1765877626.271404,496
1765877626.27141,495
1765877626.271416,495
1765877626.271422,495
1765877626.271428,495
1765877626.271434,495
1765877626.2714791,495
1765877626.271488,495
1765877626.2715032,495
1765877626.271509,495
1765877626.271515,495
1765877626.271521,495
1765877626.2715268,494
1765877626.271533,495
1765877626.271539,495
1765877626.2715452,495
1765877626.271551,494
1765877626.271557,495
1765877626.271563,495
1765877626.271569,496
1765877626.271575,495
1765877626.271581,496
1765877626.2715871,495
1765877626.271595,495
1765877626.2716029,495
1765877626.271609,495
1765877626.271615,496
1765877626.2716212,495
1765877626.271627,495
1765877626.271633,495
1765877626.271639,495
1765877626.2716448,496
1765877626.271651,496
1765877626.271657,495
1765877626.2716632,495
1765877626.271669,495
1765877626.2716749,495
1765877626.271681,495
1765877626.271687,496
1765877626.271693,495
1765877626.271699,495
1765877626.2717052,495
1765877626.27171,495
1765877626.271716,495
1765877626.271722,495
1765877626.271728,495
1765877626.271734,494
1765877626.27174,495
1765877626.2717462,495
1765877626.2717829,495
1765877626.271817,495
1765877626.2718232,495
1765877626.271829,495
1765877626.2718349,495
1765877626.271841,495
1765877626.271847,495
1765877626.271853,495
1765877626.271859,495
1765877626.2718651,495
1765877626.271871,495
1765877626.271877,494
1765877626.271883,495
1765877626.271889,495
1765877626.271895,495
1765877626.271901,495
1765877626.271907,495
1765877626.271913,495
1765877626.271918,495
1765877626.271924,495
1765877626.2719302,495
1765877626.271936,495
1765877626.271942,495
1765877626.271948,494
1765877626.2719538,495
1765877626.27196,495
1765877626.271966,495
1765877626.2719748,496
1765877626.271981,495
1765877626.271987,495
1765877626.2719932,495
1765877626.271999,495
1765877626.272005,496
1765877626.272011,496
1765877626.272017,495
1765877626.272023,496
1765877626.272029,495
1765877626.2720351,495
1765877626.2720408,495
1765877626.272047,495
1765877626.272053,495
1765877626.272059,495
1765877626.272065,495
1765877626.272071,495
1765877626.272077,495
1765877626.272083,495
1765877626.272089,495
1765877626.272095,495
1765877626.2721012,495
1765877626.2721071,495
1765877626.2721128,495
1765877626.272119,495
1765877626.272125,495
1765877626.272133,495
1765877626.272139,495
1765877626.2721448,495
1765877626.272151,495
1765877626.272157,495
1765877626.2721632,495
1765877626.2721689,494
1765877626.272175,495
1765877626.27218,495
1765877626.272186,495
1765877626.272192,495
1765877626.272198,495
1765877626.272204,496
1765877626.2722108,495
1765877626.272216,495
1765877626.272222,495
1765877626.272228,495
1765877626.272234,495
1765877626.2722402,495
1765877626.2722461,495
1765877626.2722518,495
1765877626.272258,495
1765877626.272264,495
1765877626.27227,495
1765877626.272295,496
1765877626.272316,495
1765877626.272337,495
1765877626.2723489,495
1765877626.272366,495
1765877626.272387,495
1765877626.2724,494
1765877626.2724118,495
1765877626.272436,495
1765877626.272448,495
1765877626.27246,495
1765877626.2724721,495
1765877626.272508,494
1765877626.2725272,495
1765877626.272539,495
1765877626.272545,495
1765877626.2725508,495
1765877626.272557,495
1765877626.272563,494
1765877626.2725692,495
1765877626.272575,495
1765877626.272581,495
1765877626.272587,495
1765877626.2725928,495
1765877626.272599,495
1765877626.272605,494
1765877626.2726111,495
1765877626.272616,495
1765877626.2726269,495
1765877626.272633,495
1765877626.272639,495
1765877626.2726452,496
1765877626.27265,495
1765877626.272656,495
1765877626.272662,495
1765877626.272668,495
1765877626.272674,495
1765877626.27268,495
1765877626.272686,495
1765877626.272692,494
1765877626.2726982,495
1765877626.272703,495
1765877626.2727091,495
1765877626.272715,495
1765877626.2727208,496
1765877626.272727,495
1765877626.272733,495
1765877626.2727392,495
1765877626.272745,495
1765877626.272751,495
1765877626.272757,495
1765877626.2727628,495
1765877626.272769,495
1765877626.272774,495
1765877626.272782,495
1765877626.272788,495
1765877626.272794,495
1765877626.2728,495
1765877626.272806,495
1765877626.2728121,496
1765877626.2728179,495
1765877626.272825,495
1765877626.272831,495
1765877626.2728372,495
1765877626.272842,495
1765877626.272848,495
1765877626.272854,494
1765877626.2728598,495
1765877626.272866,495
1765877626.272872,495
1765877626.2728782,495
1765877626.272884,495
1765877626.27289,495
1765877626.2728949,495
1765877626.272901,495
1765877626.272907,495
1765877626.272913,495
1765877626.272919,495
1765877626.272925,495
1765877626.272931,495
1765877626.272938,495
1765877626.272945,495
1765877626.2729511,495
1765877626.2729568,495
1765877626.272962,496
1765877626.272968,495
1765877626.272974,496
1765877626.27298,495
1765877626.2729862,495
1765877626.272992,495
1765877626.2729979,495
1765877626.273004,495
1765877626.27301,495
1765877626.273015,495
1765877626.273021,496
1765877626.2730272,495
1765877626.273033,495
1765877626.273039,496
1765877626.273045,495
1765877626.2730508,495
1765877626.273057,495
1765877626.273062,495
1765877626.273068,496
1765877626.273074,496
1765877626.27308,495
1765877626.273086,496
1765877626.273094,496
1765877626.273101,495
1765877626.273107,495
1765877626.273112,495
1765877626.273118,496
1765877626.273124,495
1765877626.27313,496
1765877626.2731361,496
1765877626.273143,495
1765877626.2731571,495
1765877626.273163,495
1765877626.2731688,495
1765877626.273175,496
1765877626.273181,495
1765877626.2731872,495
1765877626.273193,496
1765877626.273199,496
1765877626.273205,495
1765877626.2732108,496
1765877626.273217,495
1765877626.273223,495
1765877626.2732291,495
1765877626.2732348,495
1765877626.273241,496
1765877626.273247,495
1765877626.273252,495
1765877626.273258,495
1765877626.273267,496
1765877626.273273,496
1765877626.273278,495
1765877626.2732842,495
1765877626.27329,496
1765877626.2732959,496
1765877626.273302,495
1765877626.2733078,495
1765877626.273314,495
1765877626.27332,496
1765877626.2733262,496
1765877626.2733319,495
1765877626.273338,496
1765877626.273344,496
1765877626.27335,496
1765877626.273356,496
1765877626.273362,495
1765877626.2733681,496
1765877626.2733738,495
1765877626.27338,495
1765877626.273386,495
1765877626.2733922,496
1765877626.273397,496
1765877626.273403,496
1765877626.2734091,496
1765877626.2734149,496
1765877626.273424,496
1765877626.27343,496
1765877626.2734358,496
1765877626.273442,496
1765877626.273448,496
1765877626.2734542,496
1765877626.27346,496
1765877626.273466,496
1765877626.273472,496
1765877626.2734778,496
1765877626.273484,496
1765877626.27349,497
1765877626.2734962,497
1765877626.2735019,498
1765877626.273508,498
1765877626.273514,497
1765877626.2735202,497
1765877626.273525,497
1765877626.273531,497
1765877626.273537,497
1765877626.273543,497
1765877626.273549,497
1765877626.273555,497
1765877626.273561,497
1765877626.273567,497
1765877626.2735732,497
1765877626.2735791,496
1765877626.2735848,497
1765877626.273591,496
1765877626.273597,496
1765877626.273603,497
1765877626.273609,496
1765877626.2736151,496
1765877626.273621,496
1765877626.273657,496
1765877626.273688,497
1765877626.273725,496
1765877626.2737331,497
1765877626.2737548,496
1765877626.273767,496
1765877626.273788,496
1765877626.273794,496
1765877626.2738829,497
1765877626.273895,497
1765877626.2739022,496
1765877626.273908,496
1765877626.2739289,496
1765877626.2739358,496
1765877626.273942,496
1765877626.273948,497
1765877626.273979,496
1765877626.273993,496
1765877626.274005,496
1765877626.274018,496
1765877626.2740312,496
1765877626.2740428,497
1765877626.274055,496
1765877626.274074,496
1765877626.274095,496
1765877626.274102,497
1765877626.274108,496
1765877626.2741141,496
1765877626.2741199,496
1765877626.274126,497
1765877626.274132,496
1765877626.2741382,496
1765877626.274144,495
1765877626.27415,496
1765877626.274156,496
1765877626.2741618,496
1765877626.274168,497
1765877626.274174,496
1765877626.2741802,496
1765877626.274188,495
1765877626.274194,496
1765877626.2742,496
1765877626.274206,496
1765877626.2742121,496
1765877626.274218,496
1765877626.274224,496
1765877626.27423,496
1765877626.274236,496
1765877626.2742422,496
1765877626.274248,496
1765877626.2742531,496
1765877626.2742589,496
1765877626.274265,496
1765877626.274271,496
1765877626.2742772,496
1765877626.274283,496
1765877626.274289,496
1765877626.274295,496
1765877626.2743008,496
1765877626.274307,496
1765877626.274313,496
1765877626.2743192,496
1765877626.274325,496
1765877626.274338,496
1765877626.274344,496
1765877626.2743502,496
1765877626.274356,496
1765877626.274364,496
1765877626.27437,496
1765877626.274382,496
1765877626.274389,496
1765877626.274395,495
1765877626.274401,495
1765877626.274407,496
1765877626.274412,495
1765877626.2744179,496
1765877626.274424,496
1765877626.274431,495
1765877626.2744372,495
1765877626.274442,495
1765877626.274448,496
1765877626.274454,495
1765877626.2744598,495
1765877626.274466,495
1765877626.274472,496
1765877626.2744782,495
1765877626.274484,496
1765877626.27449,495
1765877626.274496,496
1765877626.2745018,496
1765877626.274508,496
1765877626.274514,496
1765877626.274519,495
1765877626.274525,495
1765877626.2745311,496
1765877626.2745368,496
1765877626.274543,496
1765877626.274549,495
1765877626.274555,496
1765877626.274561,496
1765877626.274567,495
1765877626.274573,495
1765877626.274579,496
1765877626.274585,496
1765877626.27459,496
1765877626.2745962,496
1765877626.274602,495
1765877626.2746081,495
1765877626.274614,496
1765877626.2746198,496
1765877626.274626,496
1765877626.274632,496
1765877626.2746391,496
1765877626.274646,496
1765877626.2746508,495
1765877626.274657,496
1765877626.274663,495
1765877626.2746692,496
1765877626.274675,495
1765877626.274681,496
1765877626.274687,496
1765877626.274693,496
1765877626.2747,496
1765877626.274706,496
1765877626.274712,496
1765877626.274718,496
1765877626.274723,496
1765877626.274729,496
1765877626.2747352,496
1765877626.274741,496
1765877626.274747,495
1765877626.274753,496
1765877626.2747588,496
1765877626.274765,496
1765877626.274771,495
1765877626.2747772,496
1765877626.274783,495
1765877626.274789,496
1765877626.274794,496
1765877626.2748008,496
1765877626.274807,496
1765877626.274813,495
1765877626.2748501,496
1765877626.2748601,496
1765877626.2748659,496
1765877626.274872,496
1765877626.274878,496
1765877626.274884,496
1765877626.274889,496
1765877626.2748952,496
1765877626.274901,496
1765877626.2749069,496
1765877626.27573,495
1765877626.276711,496
1765877626.277739,496
1765877626.278733,496
1765877626.2797608,496
1765877626.280821,496
1765877626.281728,495
1765877626.282756,496
1765877626.283756,496
1765877626.2847948,495
1765877626.285762,495
1765877626.286741,497
1765877626.28778,496
1765877626.288793,495
1765877626.289763,496
1765877626.2907698,496
1765877626.291754,496
1765877626.292771,495
1765877626.293754,495
1765877626.294765,496
1765877626.2957828,496
1765877626.2967732,496
1765877626.297786,496
1765877626.298837,496
1765877626.299822,496
1765877626.3008032,496
1765877626.3018181,496
1765877626.302801,495
1765877626.303793,495
1765877626.304797,495
1765877626.305784,495
1765877626.306793,495
1765877626.30781,495
1765877626.3088179,495
1765877626.3098109,496
1765877626.310814,496
1765877626.311826,496
1765877626.312819,496
1765877626.313826,495
1765877626.31484,496
1765877626.3158882,497
1765877626.316913,497
1765877626.317916,497
1765877626.318934,497
1765877626.319875,497
1765877626.32086,497
1765877626.321874,497
1765877626.322861,496
1765877626.323861,496
1765877626.324876,494
1765877626.325879,495
1765877626.3268821,495
1765877626.3279061,496
1765877626.3289201,496
1765877626.329922,496
1765877626.3309078,496
1765877626.331907,496
1765877626.332902,496
1765877626.333898,497
1765877626.334929,497
1765877626.335916,497
1765877626.336908,497
1765877626.337936,497
1765877626.3389492,496
1765877626.339972,495
1765877626.34095,496
1765877626.341922,496
1765877626.342916,496
1765877626.34391,495
1765877626.344915,496
1765877626.3459258,498
1765877626.3469288,499
1765877626.347911,499
1765877626.3489091,499
1765877626.3499699,499
1765877626.350962,497
1765877626.3519201,495
1765877626.3529348,493
1765877626.3539531,494
1765877626.354951,495
1765877626.3559449,495
1765877626.356933,495
1765877626.3579378,496
1765877626.358953,497
1765877626.3599439,497
1765877626.360982,498
1765877626.361971,500
1765877626.362965,504
1765877626.3639748,507
1765877626.364981,506
1765877626.3659809,505
1765877626.366994,506
1765877626.368008,503
1765877626.3690329,494
1765877626.370016,489
1765877626.371011,490
1765877626.371992,492
1765877626.373015,494
1765877626.374026,493
1765877626.375018,493
1765877626.376004,494
1765877626.377006,494
1765877626.378004,495
1765877626.379006,494
1765877626.3800058,495
1765877626.381023,494
1765877626.3820128,495
1765877626.383013,496
1765877626.384039,497
1765877626.385036,500
1765877626.386048,501
1765877626.3870451,502
1765877626.388038,501
1765877626.38902,498
1765877626.390041,496
1765877626.391017,492
1765877626.3920798,495
1765877626.393059,499
1765877626.394122,499
1765877626.39506,500
1765877626.3960562,497
1765877626.3970401,494
1765877626.398052,498
1765877626.399047,499
1765877626.400079,496
1765877626.4010649,498
1765877626.402077,500
1765877626.4030778,503
1765877626.4041312,502
1765877626.405102,498
1765877626.406101,499
1765877626.407094,503
1765877626.408104,504
1765877626.409131,499
1765877626.4101179,495
1765877626.411204,496
1765877626.4121878,493
1765877626.413207,492
1765877626.414198,493
1765877626.415186,496
1765877626.416212,497
1765877626.417098,497
1765877626.4181938,497
1765877626.4192152,496
1765877626.420205,493
1765877626.421196,492
1765877626.422187,492
1765877626.4231858,495
1765877626.4241862,497
1765877626.425199,499
1765877626.426186,499
1765877626.4271832,505
1765877626.428189,508
1765877626.4292018,509
1765877626.430202,504
1765877626.4312,500
1765877626.432193,494
1765877626.433205,491
1765877626.434203,495
1765877626.4351969,495
1765877626.436221,492
1765877626.4372082,491
1765877626.438207,492
1765877626.4392362,493
1765877626.440238,494
1765877626.441205,494
1765877626.442209,495
1765877626.443236,495
1765877626.444206,496
1765877626.445206,496
1765877626.446252,496
1765877626.447205,496
1765877626.4482,495
1765877626.449203,493
1765877626.45029,494
1765877626.4512289,495
1765877626.45221,495
1765877626.45321,495
1765877626.4542131,495
1765877626.4552681,495
1765877626.4562812,495
1765877626.457233,495
1765877626.458231,495
1765877626.4592252,495
1765877626.460236,496
1765877626.461237,496
1765877626.462284,496
1765877626.463255,497
1765877626.464247,499
1765877626.4652522,500
1765877626.4662662,500
1765877626.467262,500
1765877626.468277,501
1765877626.469248,497
1765877626.47028,491
1765877626.4713311,494
1765877626.472283,496
1765877626.4732852,496
1765877626.474279,497
1765877626.475287,499
1765877626.476342,502
1765877626.477289,505
1765877626.478289,504
1765877626.479326,500
1765877626.4803042,501
1765877626.4813042,500
1765877626.482326,499
1765877626.4833071,496
1765877626.48431,495
1765877626.485301,495
1765877626.4863281,495
1765877626.48732,495
1765877626.488332,496
1765877626.4893088,495
1765877626.490324,492
1765877626.4913101,493
1765877626.4923258,495
1765877626.493379,497
1765877626.494368,498
1765877626.495334,498
1765877626.496346,498
1765877626.497364,498
1765877626.498444,495
1765877626.499386,492
1765877626.500366,495
1765877626.501377,495
1765877626.50237,495
1765877626.503354,496
1765877626.504353,497
1765877626.5054111,497
1765877626.506379,495
1765877626.5073779,495
1765877626.508373,495
1765877626.50939,495
1765877626.510369,496
1765877626.51138,496
1765877626.512382,496
1765877626.51339,495
1765877626.514393,496
1765877626.515396,498
1765877626.5163908,499
1765877626.5174038,500
1765877626.5184152,500
1765877626.51941,495
1765877626.520413,491
1765877626.5214322,492
1765877626.522464,494
1765877626.5234501,494
1765877626.524437,494
1765877626.525434,495
1765877626.5264452,495
1765877626.527429,495
1765877626.528461,495
1765877626.52945,495
1765877626.530525,496
1765877626.531436,497
1765877626.532459,497
1765877626.533448,497
1765877626.534456,495
1765877626.5354712,497
1765877626.536469,497
1765877626.537468,500
1765877626.538471,501
1765877626.539482,502
1765877626.54053,499
1765877626.5414798,502
1765877626.542482,499
1765877626.543482,493
1765877626.5444832,494
1765877626.545527,491
1765877626.546558,494
1765877626.547522,496
1765877626.5485382,497
1765877626.54949,499
1765877626.550488,498
1765877626.551498,497
1765877626.5525,493
1765877626.55351,496
1765877626.5545018,496
1765877626.555506,496
1765877626.5565271,494
1765877626.55752,491
1765877626.5585248,493
1765877626.55955,494
1765877626.560535,494
1765877626.5615418,494
1765877626.5625541,494
1765877626.563607,496
1765877626.5645802,496
1765877626.565567,495
1765877626.566572,495
1765877626.567635,495
1765877626.568581,494
1765877626.569592,495
1765877626.570611,495
1765877626.57157,494
1765877626.57262,494
1765877626.5735738,494
1765877626.5746639,494
1765877626.575607,495
1765877626.576607,495
1765877626.5776188,495
1765877626.578607,496
1765877626.579633,496
1765877626.580631,495
1765877626.581611,496
1765877626.582609,496
1765877626.583622,495
1765877626.584607,495
1765877626.585645,495
1765877626.586621,495
1765877626.587617,495
1765877626.588663,496
1765877626.589649,496
1765877626.590674,496
1765877626.59164,495
1765877626.592623,495
1765877626.593625,496
1765877626.5946639,497
1765877626.595687,499
1765877626.596647,500
1765877626.5977,500
1765877626.598704,499
1765877626.5996501,494
1765877626.6006489,494
1765877626.6016672,496
1765877626.60264,496
1765877626.603669,494
1765877626.604697,494
1765877626.605696,496
1765877626.606693,494
1765877626.60767,493
1765877626.6086779,494
1765877626.609704,495
1765877626.610721,496
1765877626.6117032,495
1765877626.6126919,496
1765877626.613725,496
1765877626.614728,496
1765877626.615681,497
1765877626.616724,498
1765877626.617741,500
1765877626.618735,500
1765877626.6197262,497
1765877626.6207051,497
1765877626.621749,497
1765877626.622747,493
1765877626.623753,493
1765877626.624765,495
1765877626.625741,495
1765877626.626741,495
1765877626.627787,496
1765877626.62874,495
1765877626.6297758,495
1765877626.6307561,495
1765877626.631778,494
1765877626.632734,494
1765877626.633724,495
1765877626.634756,494
1765877626.63578,494
1765877626.636759,496
1765877626.6377559,497
1765877626.638756,500
1765877626.639787,501
1765877626.6407628,500
1765877626.641797,498
1765877626.642812,494
1765877626.643809,493
1765877626.644781,494
1765877626.645778,496
1765877626.646815,495
1765877626.647788,493
1765877626.648834,492
1765877626.6498308,495
1765877626.650838,494
1765877626.651833,495
1765877626.652831,494
1765877626.6538339,495
1765877626.654836,495
1765877626.655822,495
1765877626.656859,496
1765877626.657894,495
1765877626.658904,495
1765877626.659832,495
1765877626.660856,495
1765877626.661813,494
1765877626.662858,494
1765877626.663844,495
1765877626.6648672,496
1765877626.665832,497
1765877626.666856,499
1765877626.667855,498
1765877626.668855,496
1765877626.6698601,495
1765877626.6709151,493
1765877626.6719072,493
1765877626.6728551,495
1765877626.673929,495
1765877626.674894,495
1765877626.6758778,495
1765877626.6768608,495
1765877626.6778738,495
1765877626.678866,496
1765877626.679872,496
1765877626.680873,496
1765877626.6818838,496
1765877626.682894,497
1765877626.6838982,496
1765877626.684887,495
1765877626.68589,495
1765877626.686899,495
1765877626.687905,495
1765877626.688898,494
1765877626.6898959,496
1765877626.690921,496
1765877626.6919029,496
1765877626.692908,497
1765877626.6939158,497
1765877626.694931,496
1765877626.695922,494
1765877626.696914,495
1765877626.69791,495
1765877626.698923,495
1765877626.699937,495
1765877626.700949,495
1765877626.7019389,496
1765877626.702927,495
1765877626.703949,495
1765877626.704967,495
1765877626.7059681,495
1765877626.70696,495
1765877626.7080162,495
1765877626.7089632,496
1765877626.709951,495
1765877626.710967,494
1765877626.711979,495
1765877626.71297,495
1765877626.71398,494
1765877626.714987,494
1765877626.715978,495
1765877626.716959,496
1765877626.717987,496
1765877626.719007,495
1765877626.7199948,496
1765877626.721689,496
1765877626.7220109,496
1765877626.723008,496
1765877626.723996,495
1765877626.7250361,495
1765877626.726048,495
1765877626.727019,495
1765877626.7280362,495
1765877626.729019,495
1765877626.7300322,495
1765877626.7310238,496
1765877626.732039,498
1765877626.7330182,500
1765877626.734025,501
1765877626.7350452,501
1765877626.7360198,501
1765877626.737045,493
1765877626.738056,493
1765877626.739039,495
1765877626.740049,492
1765877626.7410629,493
1765877626.742053,494
1765877626.743061,495
1765877626.744065,497
1765877626.7450838,498
1765877626.746083,498
1765877626.747091,497
1765877626.74809,493
1765877626.7490802,492
1765877626.750112,494
1765877626.751083,495
1765877626.752083,495
1765877626.7530859,497
1765877626.754074,497
1765877626.755084,496
1765877626.756114,495
1765877626.757098,492
1765877626.7580779,493
1765877626.759085,495
1765877626.760115,494
1765877626.7611089,494
1765877626.7621179,494
1765877626.763106,495
1765877626.764122,495
1765877626.765117,495
1765877626.766123,495
1765877626.767123,495
1765877626.768211,494
1765877626.7692108,495
1765877626.770136,496
1765877626.771216,496
1765877626.7722182,496
1765877626.7732038,497
1765877626.7742138,497
1765877626.775202,496
1765877626.776203,496
1765877626.777201,496
1765877626.7782028,495
1765877626.7792,494
1765877626.780204,494
1765877626.781209,494
1765877626.782208,494
1765877626.783212,495
1765877626.784203,495
1765877626.7852201,496
1765877626.78621,495
1765877626.7872078,495
1765877626.78822,495
1765877626.7892091,495
1765877626.79021,495
1765877626.791243,496
1765877626.792233,495
1765877626.7932658,495
1765877626.794213,494
1765877626.795212,495
1765877626.796213,495
1765877626.7972229,495
1765877626.7982059,496
1765877626.799225,496
1765877626.800214,496
1765877626.801216,496
1765877626.802206,496
1765877626.803217,497
1765877626.804223,497
1765877626.805223,495
1765877626.806232,495
1765877626.807243,495
1765877626.8082392,495
1765877626.809241,494
1765877626.810244,494
1765877626.8112419,495
1765877626.8122408,496
1765877626.813258,496
1765877626.8142478,495
1765877626.815265,495
1765877626.816275,495
1765877626.817285,495
1765877626.8182678,496
1765877626.8192708,496
1765877626.82028,496
1765877626.821294,496
1765877626.822298,496
1765877626.82328,496
1765877626.824286,496
1765877626.8253078,496
1765877626.8262799,496
1765877626.8272798,497
1765877626.828299,497
1765877626.8293009,497
1765877626.830335,496
1765877626.831316,497
1765877626.832303,495
1765877626.833324,496
1765877626.8343391,496
1765877626.835337,496
1765877626.836319,496
1765877626.837321,495
1765877626.838339,495
1765877626.839342,495
1765877626.840332,495
1765877626.841326,495
1765877626.84232,495
1765877626.843364,495
1765877626.8443499,496
1765877626.8453481,497
1765877626.846338,499
1765877626.847349,499
1765877626.848365,499
1765877626.849362,497
1765877626.850359,494
1765877626.851389,491
1765877626.85237,494
1765877626.853364,494
1765877626.854385,494
1765877626.855412,494
1765877626.856441,495
1765877626.8573859,495
1765877626.8584168,495
1765877626.859412,495
1765877626.860467,495
1765877626.861422,495
1765877626.862485,495
1765877626.8634298,495
1765877626.864406,496
1765877626.8654048,496
1765877626.8664162,497
1765877626.86742,497
1765877626.868437,497
1765877626.869388,495
1765877626.870419,493
1765877626.8714108,494
1765877626.872428,494
1765877626.873452,494
1765877626.874442,494
1765877626.8754292,494
1765877626.876429,495
1765877626.877432,496
1765877626.878419,496
1765877626.8794398,496
1765877626.880448,496
1765877626.881448,496
1765877626.882433,495
1765877626.883429,495
1765877626.884434,496
1765877626.8854349,496
1765877626.886444,495
1765877626.887466,494
1765877626.888473,495
1765877626.889484,496
1765877626.890466,495
1765877626.891484,495
1765877626.892499,495
1765877626.893504,495
1765877626.8945038,495
1765877626.895545,496
1765877626.8964832,495
1765877626.897522,495
1765877626.89852,495
1765877626.899477,495
1765877626.900554,494
1765877626.901503,494
1765877626.9024909,495
1765877626.9035158,496
1765877626.904511,496
1765877626.905526,498
1765877626.906527,498
1765877626.90751,497
1765877626.908535,495
1765877626.9095192,494
1765877626.910521,494
1765877626.91151,495
1765877626.912525,496
1765877626.9135392,496
1765877626.9145448,496
1765877626.915553,495
1765877626.916571,496
1765877626.9175549,495
1765877626.9185321,494
1765877626.919536,493
1765877626.920546,494
1765877626.921588,495
1765877626.9225721,494
1765877626.923581,494
1765877626.9246259,495
1765877626.925638,495
1765877626.926611,495
1765877626.927624,496
1765877626.9285948,495
1765877626.929603,496
1765877626.93061,496
1765877626.931595,495
1765877626.932617,496
1765877626.933603,496
1765877626.934601,496
1765877626.935658,495
1765877626.9366138,495
1765877626.937579,495
1765877626.938592,495
1765877626.939605,494
1765877626.9406211,495
1765877626.94161,495
1765877626.94261,495
1765877626.9436119,495
1765877626.944617,495
1765877626.94562,495
1765877626.946612,495
1765877626.9476259,495
1765877626.9486132,496
1765877626.9496162,496
1765877626.950625,494
1765877626.951636,495
1765877626.9526432,495
1765877626.95364,495
1765877626.9546618,496
1765877626.9556658,495
1765877626.956671,495
1765877626.9576871,495
1765877626.958671,495
1765877626.9596741,495
1765877626.960646,495
1765877626.961658,494
1765877626.9626722,494
1765877626.963669,495
1765877626.9646652,496
1765877626.9656708,495
1765877626.966686,495
1765877626.967684,495
1765877626.968674,495
1765877626.9696681,495
1765877626.9706838,495
1765877626.971683,496
1765877626.972697,495
1765877626.973702,495
1765877626.97471,495
1765877626.975702,496
1765877626.976737,496
1765877626.977704,496
1765877626.9787068,495
1765877626.9797068,495
1765877626.9806972,494
1765877626.9817028,495
1765877626.982719,495
1765877626.983729,495
1765877626.984737,496
1765877626.98574,496
1765877626.986743,496
1765877626.9877372,496
1765877626.9887528,496
1765877626.989742,495
1765877626.990762,495
1765877626.991782,495
1765877626.992786,495
1765877626.9937742,495
1765877626.994764,496
1765877626.995757,497
1765877626.996806,498
1765877626.997802,497
1765877626.998786,498
1765877626.999866,498
1765877627.00084,496
1765877627.001815,493
1765877627.0028028,493
1765877627.003785,493
1765877627.0048141,494
1765877627.005789,494
1765877627.006788,495
1765877627.007793,495
1765877627.008794,495
1765877627.009804,495
1765877627.010796,496
1765877627.0118039,495
1765877627.0128052,496
1765877627.013802,496
1765877627.014813,495
1765877627.015821,495
1765877627.016813,495
1765877627.0178502,495
1765877627.018812,496
1765877627.0198169,496
1765877627.020833,495
1765877627.0218382,496
1765877627.022818,496
1765877627.023817,496
1765877627.024821,496
1765877627.025849,497
1765877627.026848,496
1765877627.027831,496
1765877627.0288472,495
1765877627.029854,494
1765877627.030838,495
1765877627.0318651,495
1765877627.032875,496
1765877627.033865,495
1765877627.034861,495
1765877627.035894,494
1765877627.036872,494
1765877627.037867,495
1765877627.038881,495
1765877627.0398889,495
1765877627.04094,495
1765877627.041912,495
1765877627.042902,495
1765877627.043875,496
1765877627.04488,497
1765877627.04589,496
1765877627.0468931,495
1765877627.047911,495
1765877627.048907,496
1765877627.0499089,496
1765877627.0508869,496
1765877627.051931,495
1765877627.0529091,495
1765877627.053909,495
1765877627.05492,495
1765877627.0559201,495
1765877627.05692,496
1765877627.057971,496
1765877627.058958,497
1765877627.059942,497
1765877627.060915,498
1765877627.061944,496
1765877627.062953,493
1765877627.0639622,494
1765877627.064951,495
1765877627.065963,495
1765877627.066946,495
1765877627.067958,495
1765877627.069006,495
1765877627.069956,496
1765877627.0709581,496
1765877627.0719638,496
1765877627.072962,496
1765877627.0739782,496
1765877627.0749812,495
1765877627.0759768,495
1765877627.0769951,496
1765877627.077993,496
1765877627.078989,495
1765877627.0799959,495
1765877627.081002,495
1765877627.082016,495
1765877627.083006,495
1765877627.084013,496
1765877627.085004,495
1765877627.086047,494
1765877627.087021,495
1765877627.088,496
1765877627.089008,496
1765877627.090017,496
1765877627.0910358,497
1765877627.09202,497
1765877627.093028,496
1765877627.0940192,496
1765877627.095042,494
1765877627.096045,494
1765877627.097048,494
1765877627.098044,494
1765877627.099046,495
1765877627.1000378,496
1765877627.101056,496
1765877627.10205,497
1765877627.103074,496
1765877627.10407,496
1765877627.105064,495
1765877627.1060631,496
1765877627.1070652,496
1765877627.108075,495
1765877627.109073,495
1765877627.110067,495
1765877627.111068,495
1765877627.112084,495
1765877627.1130729,495
1765877627.1140962,495
1765877627.11509,495
1765877627.11608,496
1765877627.1170838,496
1765877627.1180842,496
1765877627.119105,496
1765877627.120115,496
1765877627.121114,495
1765877627.122138,496
1765877627.123125,495
1765877627.124224,496
1765877627.125132,496
1765877627.126163,496
1765877627.127221,495
1765877627.128211,495
1765877627.129205,495
1765877627.130213,496
1765877627.1312041,495
1765877627.1322129,496
1765877627.133227,497
1765877627.134211,495
1765877627.135217,496
1765877627.13621,497
1765877627.137205,497
1765877627.138207,496
1765877627.139217,494
1765877627.1402109,494
1765877627.141203,495
1765877627.142205,494
1765877627.14321,495
1765877627.144217,495
1765877627.145215,495
1765877627.146215,495
1765877627.1472142,496
1765877627.148211,497
1765877627.149212,498
1765877627.150225,497
1765877627.1512058,497
1765877627.1522,498
1765877627.153205,496
1765877627.154218,495
1765877627.155207,496
1765877627.156209,496
1765877627.157212,495
1765877627.158209,494
1765877627.159255,496
1765877627.160223,496
1765877627.161238,495
1765877627.1622279,494
1765877627.1632278,495
1765877627.164224,495
1765877627.16524,495
1765877627.166241,495
1765877627.1672618,495
1765877627.168254,495
1765877627.169235,494
1765877627.1702452,494
1765877627.171238,495
1765877627.172236,495
1765877627.1732469,495
1765877627.17427,495
1765877627.1752489,494
1765877627.176259,494
1765877627.177259,495
1765877627.1782598,494
1765877627.1792629,495
1765877627.180285,496
1765877627.1812851,495
1765877627.182293,496
1765877627.183264,496
1765877627.184273,496
1765877627.1852741,495
1765877627.186292,495
1765877627.187305,496
1765877627.188303,497
1765877627.189291,497
1765877627.190305,497
1765877627.191316,497
1765877627.192321,496
1765877627.1933188,496
1765877627.194348,497
1765877627.195304,496
1765877627.1963048,496
1765877627.197321,496
1765877627.1983202,496
1765877627.1993139,496
1765877627.200331,495
1765877627.2013361,496
1765877627.202379,496
1765877627.203359,496
1765877627.2043579,496
1765877627.205346,496
1765877627.206351,496
1765877627.207412,496
1765877627.208399,496
1765877627.2093818,496
1765877627.210349,495
1765877627.211359,495
1765877627.212372,495
1765877627.213365,495
1765877627.214381,495
1765877627.215382,497
1765877627.216377,497
1765877627.217367,494
1765877627.218379,495
1765877627.219381,495
1765877627.220381,495
1765877627.221405,495
1765877627.2224069,496
1765877627.223401,496
1765877627.2243998,496
1765877627.2254,496
1765877627.226399,495
1765877627.227396,496
1765877627.228412,497
1765877627.2294111,496
1765877627.230417,497
1765877627.231402,497
1765877627.232414,496
1765877627.233414,494
1765877627.23442,496
1765877627.2354171,497
1765877627.236429,496
1765877627.237439,495
1765877627.2384388,494
1765877627.23944,494
1765877627.240436,494
1765877627.2414348,495
1765877627.242445,495
1765877627.243448,495
1765877627.24445,495
1765877627.2454689,495
1765877627.2464662,495
1765877627.2474701,496
1765877627.248503,496
1765877627.249501,495
1765877627.250504,495
1765877627.251518,495
1765877627.252485,495
1765877627.2534778,495
1765877627.254477,495
1765877627.255507,495
1765877627.256503,495
1765877627.257514,496
1765877627.2585988,495
1765877627.259537,496
1765877627.2605782,496
1765877627.2615108,495
