timestamp,emg_value
1765877650.8566122,496
1765877650.856622,496
1765877650.856629,495
1765877650.8566349,496
1765877650.856641,496
1765877650.856647,495
1765877650.856653,496
1765877650.856659,496
1765877650.8566651,495
1765877650.856671,495
1765877650.856676,495
1765877650.856682,495
1765877650.856688,494
1765877650.856694,495
1765877650.8567,495
1765877650.8567061,496
1765877650.856711,495
1765877650.856718,496
1765877650.856724,495
1765877650.8567302,495
1765877650.856736,495
1765877650.8567412,495
1765877650.856747,495
1765877650.8567529,496
1765877650.856759,496
1765877650.856769,497
1765877650.856777,497
1765877650.8567832,496
1765877650.8567889,495
1765877650.8567948,495
1765877650.856801,495
1765877650.856807,494
1765877650.856812,494
1765877650.856819,494
1765877650.856825,495
1765877650.856831,495
1765877650.856837,496
1765877650.856843,496
1765877650.8568478,497
1765877650.856854,498
1765877650.85686,497
1765877650.856867,493
1765877650.8568718,493
1765877650.856878,495
1765877650.856884,495
1765877650.8568902,495
1765877650.856896,495
1765877650.8569012,495
1765877650.856907,495
1765877650.8569129,495
1765877650.856919,495
1765877650.8569238,495
1765877650.8569322,496
1765877650.856941,495
1765877650.856947,495
1765877650.856952,495
1765877650.856958,496
1765877650.856964,496
1765877650.85697,496
1765877650.8569758,496
1765877650.856982,495
1765877650.8569868,495
1765877650.856993,495
1765877650.856999,495
1765877650.8570051,495
1765877650.8570151,496
1765877650.8570209,497
1765877650.857027,497
1765877650.8570318,496
1765877650.857038,494
1765877650.857044,496
1765877650.8570502,497
1765877650.857056,496
1765877650.8570611,495
1765877650.857067,493
1765877650.8570728,493
1765877650.85708,494
1765877650.857088,495
1765877650.857096,497
1765877650.857103,497
1765877650.857109,497
1765877650.8571148,497
1765877650.857121,496
1765877650.857126,494
1765877650.857132,494
1765877650.857138,495
1765877650.857144,497
1765877650.8571498,497
1765877650.857155,496
1765877650.857161,497
1765877650.857167,496
1765877650.857173,495
1765877650.857179,494
1765877650.8571851,495
1765877650.857192,495
1765877650.857198,495
1765877650.857205,495
1765877650.857213,494
1765877650.8572202,495
1765877650.857227,496
1765877650.857234,495
1765877650.85724,495
1765877650.857246,495
1765877650.8572512,495
1765877650.857257,495
1765877650.857266,495
1765877650.857273,495
1765877650.857279,496
1765877650.857284,495
1765877650.857295,496
1765877650.8573,496
1765877650.857306,496
1765877650.857312,496
1765877650.857318,496
1765877650.8573241,495
1765877650.857329,495
1765877650.8573399,495
1765877650.857346,496
1765877650.857352,496
1765877650.857358,497
1765877650.857364,498
1765877650.8573701,498
1765877650.857376,498
1765877650.857381,497
1765877650.857387,493
1765877650.857395,494
1765877650.857402,494
1765877650.857409,494
1765877650.857415,494
1765877650.8574321,494
1765877650.8574378,495
1765877650.857444,495
1765877650.857452,495
1765877650.8574588,496
1765877650.857465,495
1765877650.857471,495
1765877650.857476,496
1765877650.857482,495
1765877650.857488,495
1765877650.857494,495
1765877650.857499,495
1765877650.857505,495
1765877650.8575108,495
1765877650.857517,495
1765877650.857523,495
1765877650.857528,495
1765877650.857534,496
1765877650.8575401,495
1765877650.857546,495
1765877650.8575518,495
1765877650.857558,495
1765877650.8575628,496
1765877650.857569,496
1765877650.857575,496
1765877650.8575811,496
1765877650.8575869,496
1765877650.857592,497
1765877650.857598,497
1765877650.857604,495
1765877650.8576121,494
1765877650.857619,496
1765877650.857625,496
1765877650.857631,497
1765877650.8576372,496
1765877650.857643,496
1765877650.8576488,496
1765877650.857655,495
1765877650.857661,495
1765877650.857666,496
1765877650.857672,496
1765877650.8576782,496
1765877650.857684,494
1765877650.85769,494
1765877650.857696,496
1765877650.8577018,495
1765877650.857708,496
1765877650.857713,496
1765877650.857719,496
1765877650.857725,494
1765877650.857731,495
1765877650.857737,494
1765877650.857743,495
1765877650.857749,495
1765877650.857755,495
1765877650.85776,495
1765877650.8577678,495
1765877650.8577752,495
1765877650.8577821,496
1765877650.857787,495
1765877650.857793,495
1765877650.8577988,495
1765877650.857805,496
1765877650.857811,496
1765877650.8578172,496
1765877650.857823,496
1765877650.8578281,496
1765877650.857834,495
1765877650.85784,495
1765877650.857846,496
1765877650.857852,497
1765877650.857858,497
1765877650.857864,498
1765877650.85787,498
1765877650.857876,497
1765877650.857882,494
1765877650.857888,495
1765877650.857894,495
1765877650.857899,496
1765877650.857905,495
1765877650.857911,496
1765877650.8579168,495
1765877650.857923,495
1765877650.857931,494
1765877650.8579378,495
1765877650.857943,495
1765877650.857949,494
1765877650.857955,495
1765877650.857961,495
1765877650.8579671,495
1765877650.857973,495
1765877650.857978,496
1765877650.857984,496
1765877650.8579898,497
1765877650.857996,496
1765877650.858002,497
1765877650.8580081,495
1765877650.8580139,495
1765877650.85802,495
1765877650.858025,495
1765877650.858031,496
1765877650.858037,495
1765877650.858043,495
1765877650.858049,496
1765877650.8580549,496
1765877650.8580601,496
1765877650.8580658,496
1765877650.858072,495
1765877650.858078,496
1765877650.8580842,496
1765877650.8580961,496
1765877650.858103,495
1765877650.858113,495
1765877650.858119,495
1765877650.858125,496
1765877650.858131,496
1765877650.8581371,496
1765877650.858143,496
1765877650.858149,496
1765877650.858154,496
1765877650.85816,495
1765877650.858166,496
1765877650.858172,495
1765877650.8581781,495
1765877650.858183,495
1765877650.858189,496
1765877650.8581948,496
1765877650.858201,495
1765877650.858207,496
1765877650.8582132,496
1765877650.858218,495
1765877650.8582242,495
1765877650.85823,496
1765877650.8582358,496
1765877650.858242,496
1765877650.8582468,496
1765877650.858253,495
1765877650.858261,495
1765877650.858268,495
1765877650.858274,495
1765877650.85828,495
1765877650.8582861,496
1765877650.858291,496
1765877650.858297,496
1765877650.858303,495
1765877650.858309,496
1765877650.858315,496
1765877650.8583198,496
1765877650.858326,496
1765877650.858332,497
1765877650.858338,498
1765877650.8583438,497
1765877650.858349,497
1765877650.858355,497
1765877650.858361,498
1765877650.858367,497
1765877650.8583732,499
1765877650.8583791,497
1765877650.8583848,499
1765877650.85839,498
1765877650.8583958,497
1765877650.858402,498
1765877650.858408,496
1765877650.8584142,493
1765877650.858422,496
1765877650.858429,497
1765877650.8584352,496
1765877650.8584409,496
1765877650.8584461,495
1765877650.858452,496
1765877650.858458,496
1765877650.858464,496
1765877650.85847,497
1765877650.858475,496
1765877650.858481,496
1765877650.8584871,495
1765877650.8584929,496
1765877650.858499,495
1765877650.858505,495
1765877650.85851,496
1765877650.858516,495
1765877650.8585222,495
1765877650.858528,495
1765877650.8585339,496
1765877650.85854,495
1765877650.858546,496
1765877650.858551,495
1765877650.858557,495
1765877650.8585632,495
1765877650.858569,496
1765877650.858577,496
1765877650.8585842,496
1765877650.85859,495
1765877650.858596,497
1765877650.8586009,497
1765877650.8586082,496
1765877650.858615,496
1765877650.858621,496
1765877650.858627,496
1765877650.858633,494
1765877650.858639,495
1765877650.858645,495
1765877650.8586502,494
1765877650.858656,495
1765877650.858662,495
1765877650.858668,495
1765877650.8586738,494
1765877650.85868,495
1765877650.858686,495
1765877650.8586922,496
1765877650.858698,496
1765877650.8587039,495
1765877650.85871,496
1765877650.858716,496
1765877650.858721,496
1765877650.858727,496
1765877650.858733,495
1765877650.858741,496
1765877650.858748,496
1765877650.8587542,495
1765877650.8587599,495
1765877650.858766,496
1765877650.8587708,497
1765877650.858777,496
1765877650.858783,496
1765877650.8587892,496
1765877650.858795,496
1765877650.858801,497
1765877650.8588061,498
1765877650.8588119,496
1765877650.858818,496
1765877650.858824,496
1765877650.85883,496
1765877650.858836,495
1765877650.8588421,497
1765877650.858847,497
1765877650.858853,496
1765877650.858859,497
1765877650.8588648,496
1765877650.858871,495
1765877650.858876,495
1765877650.858882,495
1765877650.858888,495
1765877650.858894,495
1765877650.858901,496
1765877650.858908,496
1765877650.8589141,495
1765877650.8589199,495
1765877650.858926,495
1765877650.8589308,495
1765877650.858937,495
1765877650.858943,495
1765877650.8589492,495
1765877650.858955,495
1765877650.8589609,495
1765877650.858966,495
1765877650.8589718,496
1765877650.858978,496
1765877650.858984,496
1765877650.8589902,495
1765877650.858996,495
1765877650.8590012,495
1765877650.859007,496
1765877650.859013,495
1765877650.859019,496
1765877650.859025,497
1765877650.859031,498
1765877650.859037,498
1765877650.859042,499
1765877650.859048,498
1765877650.859054,495
1765877650.859062,495
1765877650.8590689,497
1765877650.859075,495
1765877650.859081,494
1765877650.859087,496
1765877650.859093,496
1765877650.8590982,496
1765877650.859104,495
1765877650.8591099,495
1765877650.859116,495
1765877650.859122,495
1765877650.859128,496
1765877650.859134,495
1765877650.859139,495
1765877650.859145,495
1765877650.8591511,496
1765877650.859157,496
1765877650.8591628,496
1765877650.859168,496
1765877650.8591738,496
1765877650.85918,496
1765877650.859186,496
1765877650.8591921,496
1765877650.8591979,495
1765877650.859203,496
1765877650.859209,496
1765877650.859216,496
1765877650.8592231,496
1765877650.8592288,495
1765877650.859235,495
1765877650.859241,495
1765877650.8592472,496
1765877650.859252,495
1765877650.8592582,496
1765877650.859264,496
1765877650.8592699,495
1765877650.859276,496
1765877650.8592808,496
1765877650.859287,495
1765877650.859293,496
1765877650.8592992,496
1765877650.859305,496
1765877650.8593102,496
1765877650.8593159,496
1765877650.859322,496
1765877650.859328,496
1765877650.859333,495
1765877650.859339,496
1765877650.859345,496
1765877650.8593512,496
1765877650.859361,496
1765877650.859367,496
1765877650.859373,496
1765877650.85938,496
1765877650.859387,495
1765877650.8593931,495
1765877650.8593988,495
1765877650.859411,496
1765877650.859416,495
1765877650.859422,496
1765877650.8594282,496
1765877650.859434,497
1765877650.85944,496
1765877650.859445,496
1765877650.8594508,496
1765877650.859457,496
1765877650.859463,497
1765877650.859469,496
1765877650.859475,496
1765877650.859481,495
1765877650.8594859,496
1765877650.859492,497
1765877650.859498,496
1765877650.8595042,496
1765877650.85951,496
1765877650.859516,496
1765877650.859521,495
1765877650.8595269,496
1765877650.859533,495
1765877650.859539,496
1765877650.8595462,496
1765877650.859553,496
1765877650.8595588,496
1765877650.859565,496
1765877650.85957,496
1765877650.859576,496
1765877650.859582,496
1765877650.8595881,496
1765877650.8595939,497
1765877650.8595998,496
1765877650.859605,496
1765877650.8596108,496
1765877650.859617,496
1765877650.859623,496
1765877650.8596292,496
1765877650.8596349,496
1765877650.8596401,496
1765877650.8596458,497
1765877650.859652,497
1765877650.859658,496
1765877650.859664,496
1765877650.85967,496
1765877650.859675,496
1765877650.8596811,496
1765877650.8596869,497
1765877650.859693,496
1765877650.859699,496
1765877650.8597062,496
1765877650.859713,496
1765877650.8597178,496
1765877650.859724,496
1765877650.85973,496
1765877650.859736,495
1765877650.859742,496
1765877650.8597481,496
1765877650.859754,496
1765877650.85976,496
1765877650.859765,496
1765877650.8597708,495
1765877650.859777,496
1765877650.859783,496
1765877650.8597918,496
1765877650.859797,496
1765877650.859803,496
1765877650.859809,496
1765877650.859815,496
1765877650.859821,496
1765877650.8598258,496
1765877650.859832,496
1765877650.859838,496
1765877650.8598442,496
1765877650.85985,496
1765877650.859856,496
1765877650.859862,497
1765877650.859869,496
1765877650.8598762,496
1765877650.8598819,496
1765877650.859888,495
1765877650.859893,496
1765877650.8598988,496
1765877650.859905,496
1765877650.859911,495
1765877650.8599172,496
1765877650.859922,496
1765877650.8599281,496
1765877650.8599339,496
1765877650.85994,496
1765877650.859946,496
1765877650.8599522,496
1765877650.859957,496
1765877650.859963,496
1765877650.8599691,496
1765877650.8599749,496
1765877650.859981,496
1765877650.8599858,495
1765877650.859992,495
1765877650.859998,496
1765877650.8600042,495
1765877650.860009,496
1765877650.8600152,496
1765877650.860023,496
1765877650.860029,496
1765877650.8600352,496
1765877650.860041,496
1765877650.860047,496
1765877650.8600519,496
1765877650.860058,496
1765877650.860064,495
1765877650.86007,496
1765877650.860076,496
1765877650.860081,496
1765877650.8600872,497
1765877650.860094,496
1765877650.8601,496
1765877650.860105,496
1765877650.860111,496
1765877650.860117,496
1765877650.860123,496
1765877650.860129,496
1765877650.8601348,496
1765877650.860141,496
1765877650.8601458,496
1765877650.860152,496
1765877650.860158,496
1765877650.8601642,495
1765877650.86017,496
1765877650.8601751,495
1765877650.8601868,496
1765877650.860193,495
1765877650.8602,496
1765877650.8602052,496
1765877650.860211,496
1765877650.860217,496
1765877650.860223,496
1765877650.860229,495
1765877650.860234,496
1765877650.86024,496
1765877650.860246,496
1765877650.860252,496
1765877650.860258,496
1765877650.860268,496
1765877650.8602738,495
1765877650.860279,496
1765877650.860285,495
1765877650.860291,496
1765877650.860297,496
1765877650.8603032,496
1765877650.860309,496
1765877650.8603148,496
1765877650.860321,496
1765877650.8603258,496
1765877650.860332,496
1765877650.860338,495
1765877650.8603442,496
1765877650.860351,496
1765877650.860358,496
1765877650.860364,497
1765877650.86037,497
1765877650.860375,497
1765877650.860381,499
1765877650.860387,497
1765877650.860393,498
1765877650.860398,497
1765877650.860404,497
1765877650.8604102,498
1765877650.860416,498
1765877650.860422,498
1765877650.860428,497
1765877650.8604338,497
1765877650.86044,498
1765877650.860445,497
1765877650.860451,498
1765877650.860457,497
1765877650.8604631,496
1765877650.860469,496
1765877650.8604748,496
1765877650.860481,496
1765877650.8604858,496
1765877650.860492,497
1765877650.860498,496
1765877650.8605042,497
1765877650.860511,496
1765877650.860518,497
1765877650.860524,497
1765877650.86053,497
1765877650.8605351,497
1765877650.8605409,496
1765877650.860547,496
1765877650.860553,496
1765877650.860559,496
1765877650.860564,496
1765877650.8605702,497
1765877650.860576,496
1765877650.8605819,496
1765877650.860588,496
1765877650.8605928,496
1765877650.860599,496
1765877650.860605,497
1765877650.860611,496
1765877650.860616,497
1765877650.8606222,496
1765877650.860628,496
1765877650.860634,496
1765877650.86064,496
1765877650.8606458,496
1765877650.860651,496
1765877650.860657,496
1765877650.860663,496
1765877650.860671,496
1765877650.860677,496
1765877650.860683,497
1765877650.860689,496
1765877650.8606951,496
1765877650.8607008,497
1765877650.860706,496
1765877650.860712,496
1765877650.860718,496
1765877650.860724,497
1765877650.8607302,496
1765877650.860736,496
1765877650.8607419,496
1765877650.860747,496
1765877650.8607528,496
1765877650.860759,496
1765877650.860765,496
1765877650.86077,496
1765877650.860776,496
1765877650.8607821,497
1765877650.8607879,496
1765877650.860794,496
1765877650.8608,497
1765877650.860806,496
1765877650.860811,496
1765877650.860817,496
1765877650.8608289,496
1765877650.860835,497
1765877650.860847,496
1765877650.860853,496
1765877650.860859,496
1765877650.860865,496
1765877650.8608708,496
1765877650.860876,496
1765877650.8608818,497
1765877650.860888,496
1765877650.860894,496
1765877650.8609002,496
1765877650.860906,496
1765877650.8609111,497
1765877650.860917,497
1765877650.8609228,496
1765877650.860929,497
1765877650.860935,496
1765877650.8609412,497
1765877650.860947,496
1765877650.860953,496
1765877650.8609579,496
1765877650.860964,496
1765877650.86097,497
1765877650.8609762,496
1765877650.860982,497
1765877650.860988,496
1765877650.860995,496
1765877650.861002,496
1765877650.861008,496
1765877650.8610141,497
1765877650.8610198,496
1765877650.861025,496
1765877650.861032,496
1765877650.861038,496
1765877650.861044,496
1765877650.8610492,496
1765877650.861055,496
1765877650.861061,496
1765877650.861067,496
1765877650.861077,496
1765877650.8610828,496
1765877650.861089,496
1765877650.861095,496
1765877650.8611012,496
1765877650.8611069,496
1765877650.861113,497
1765877650.8611178,496
1765877650.861124,496
1765877650.86113,496
1765877650.861136,497
1765877650.861142,496
1765877650.861147,496
1765877650.8611531,496
1765877650.861161,496
1765877650.8611681,496
1765877650.861173,496
1765877650.8611789,496
1765877650.861185,496
1765877650.8611908,496
1765877650.861197,497
1765877650.861203,496
1765877650.8612092,496
1765877650.861214,496
1765877650.8612201,496
1765877650.861226,496
1765877650.861232,497
1765877650.861238,497
1765877650.861244,496
1765877650.861249,497
1765877650.86126,496
1765877650.861266,497
1765877650.8612711,496
1765877650.8612769,496
1765877650.861283,496
1765877650.861289,496
1765877650.861295,496
1765877650.861301,496
1765877650.861307,496
1765877650.861312,496
1765877650.8613179,496
1765877650.861325,496
1765877650.861336,496
1765877650.861342,496
1765877650.8613482,497
1765877650.8613539,496
1765877650.86136,497
1765877650.861366,496
1765877650.861374,496
1765877650.861381,496
1765877650.8613892,496
1765877650.861396,496
1765877650.861402,496
1765877650.861407,496
1765877650.861414,496
1765877650.861419,496
1765877650.861425,496
1765877650.8614311,496
1765877650.8614368,496
1765877650.861443,496
1765877650.861449,496
1765877650.8614552,496
1765877650.861461,496
1765877650.861467,496
1765877650.861473,497
1765877650.8614779,496
1765877650.861484,497
1765877650.86149,496
1765877650.861498,496
1765877650.861504,496
1765877650.8615098,496
1765877650.861516,496
1765877650.861522,496
1765877650.8615282,496
1765877650.8615339,496
1765877650.86154,496
1765877650.861546,496
1765877650.8615522,496
1765877650.861558,496
1765877650.861564,496
1765877650.861569,496
1765877650.861575,496
1765877650.861581,496
1765877650.861587,496
1765877650.861593,496
1765877650.861599,496
1765877650.861606,497
1765877650.861612,496
1765877650.8616178,497
1765877650.861624,497
1765877650.86163,497
1765877650.8616362,497
1765877650.861642,497
1765877650.8616478,496
1765877650.861655,496
1765877650.861662,497
1765877650.861668,497
1765877650.861674,496
1765877650.861679,496
1765877650.861685,496
1765877650.861691,496
1765877650.861697,496
1765877650.861703,496
1765877650.861709,496
1765877650.8617148,496
1765877650.861721,497
1765877650.861727,496
1765877650.8617332,496
1765877650.861738,496
1765877650.8617442,497
1765877650.8617501,496
1765877650.8617558,497
1765877650.861762,496
1765877650.861768,496
1765877650.861774,497
1765877650.86178,496
1765877650.8617861,496
1765877650.861792,496
1765877650.8617978,496
1765877650.861804,496
1765877650.86181,496
1765877650.861822,496
1765877650.861828,496
1765877650.861834,497
1765877650.8618398,496
1765877650.861846,497
1765877650.861852,496
1765877650.8618581,496
1765877650.8618639,497
1765877650.861871,496
1765877650.861877,496
1765877650.861883,496
1765877650.8618891,496
1765877650.8618948,496
1765877650.861901,496
1765877650.861907,496
1765877650.861912,496
1765877650.861918,496
1765877650.8619242,497
1765877650.86193,496
1765877650.861936,497
1765877650.861942,496
1765877650.861948,496
1765877650.861954,496
1765877650.86196,496
1765877650.8619661,497
1765877650.861971,496
1765877650.861977,496
1765877650.861985,496
1765877650.861992,496
1765877650.8619971,496
1765877650.8620028,496
1765877650.862009,496
1765877650.862015,497
1765877650.8620212,497
1765877650.862027,496
1765877650.862033,496
1765877650.862039,496
1765877650.8620448,496
1765877650.862051,496
1765877650.862057,497
1765877650.8620632,496
1765877650.862068,496
1765877650.8620741,496
1765877650.86208,496
1765877650.8620858,496
1765877650.862092,496
1765877650.862098,496
1765877650.8621042,496
1765877650.86211,496
1765877650.8621151,496
1765877650.8621209,496
1765877650.862127,496
1765877650.862133,496
1765877650.862139,496
1765877650.8621461,496
1765877650.862153,496
1765877650.862159,496
1765877650.862165,496
1765877650.862171,496
1765877650.8621771,497
1765877650.8621829,496
1765877650.862189,497
1765877650.862195,496
1765877650.862201,496
1765877650.862207,496
1765877650.8622122,497
1765877650.862218,496
1765877650.8622239,496
1765877650.86223,496
1765877650.862236,496
1765877650.862242,496
1765877650.862248,496
1765877650.862253,496
1765877650.862259,496
1765877650.862265,496
1765877650.862271,496
1765877650.862277,496
1765877650.862283,496
1765877650.862289,496
1765877650.862296,496
1765877650.862303,496
1765877650.862314,496
1765877650.8623219,495
1765877650.862329,495
1765877650.862335,495
1765877650.8623412,496
1765877650.8623471,496
1765877650.8623528,496
1765877650.862359,496
1765877650.862365,496
1765877650.862371,495
1765877650.862376,496
1765877650.8623822,496
1765877650.862388,496
1765877650.862394,496
1765877650.8624,496
1765877650.8624058,496
1765877650.862412,496
1765877650.862418,496
1765877650.8624241,496
1765877650.8624299,496
1765877650.862436,496
1765877650.862442,496
1765877650.8624482,496
1765877650.862453,496
1765877650.862459,496
1765877650.8624651,496
1765877650.862473,496
1765877650.8624792,496
1765877650.8624861,495
1765877650.862491,496
1765877650.862497,496
1765877650.8625028,496
1765877650.862509,496
1765877650.862515,496
1765877650.8625221,496
1765877650.862528,496
1765877650.8625338,496
1765877650.86254,497
1765877650.862546,497
1765877650.8625522,498
1765877650.862558,498
1765877650.8625631,497
1765877650.8625689,497
1765877650.862575,497
1765877650.862581,497
1765877650.862587,497
1765877650.862593,497
1765877650.862599,496
1765877650.862605,497
1765877650.8626099,497
1765877650.862616,498
1765877650.862622,496
1765877650.862628,496
1765877650.862638,497
1765877650.862645,496
1765877650.8626509,496
1765877650.862656,496
1765877650.8626618,497
1765877650.862668,496
1765877650.862674,496
1765877650.86268,496
1765877650.862686,496
1765877650.862692,496
1765877650.862698,496
1765877650.862704,496
1765877650.86271,497
1765877650.862716,497
1765877650.8627222,496
1765877650.862727,497
1765877650.8627331,496
1765877650.8627388,496
1765877650.862745,496
1765877650.862751,496
1765877650.8627589,496
1765877650.862765,496
1765877650.862771,496
1765877650.862777,496
1765877650.862783,496
1765877650.8627892,496
1765877650.862796,496
1765877650.862803,496
1765877650.8628101,496
1765877650.862818,496
1765877650.862825,496
1765877650.8628328,496
1765877650.8628402,496
1765877650.862848,496
1765877650.862854,496
1765877650.86286,496
1765877650.862866,496
1765877650.8628721,496
1765877650.862879,495
1765877650.862886,496
1765877650.862893,496
1765877650.8628988,496
1765877650.862952,497
1765877650.86296,496
1765877650.862966,495
1765877650.862972,495
1765877650.8629792,496
1765877650.862985,496
1765877650.862991,496
1765877650.862997,496
1765877650.8630028,496
1765877650.863009,496
1765877650.8630311,496
1765877650.863041,496
1765877650.863049,496
1765877650.863055,496
1765877650.863061,496
1765877650.863067,496
1765877650.863093,496
1765877650.8630998,496
1765877650.863168,496
1765877650.863175,497
1765877650.863181,496
1765877650.863189,496
1765877650.863195,496
1765877650.863202,496
1765877650.8632078,496
1765877650.863214,496
1765877650.86322,496
1765877650.863225,496
1765877650.863232,495
1765877650.8632379,497
1765877650.863243,496
1765877650.8632488,497
1765877650.863256,496
1765877650.863262,496
1765877650.8632681,496
1765877650.863274,496
1765877650.86328,496
1765877650.863286,496
1765877650.863294,496
1765877650.863302,496
1765877650.863308,496
1765877650.863314,496
1765877650.86332,496
1765877650.863327,496
1765877650.863335,496
1765877650.863342,496
1765877650.863348,496
1765877650.8633542,496
1765877650.8633611,495
1765877650.8633668,496
1765877650.863373,496
1765877650.863379,496
1765877650.8633852,496
1765877650.863391,496
1765877650.8633971,496
1765877650.863403,495
1765877650.8634088,496
1765877650.863415,496
1765877650.863421,496
1765877650.8634272,496
1765877650.863433,495
1765877650.863439,496
1765877650.863445,495
1765877650.8634508,495
1765877650.863459,496
1765877650.863467,495
1765877650.863473,496
1765877650.863478,495
1765877650.863484,496
1765877650.86349,495
1765877650.863497,496
1765877650.8635032,496
1765877650.863509,496
1765877650.863515,496
1765877650.863521,496
1765877650.8635268,496
1765877650.863533,496
1765877650.863538,496
1765877650.863544,496
1765877650.86355,495
1765877650.8635561,495
1765877650.8635619,495
1765877650.8635678,496
1765877650.863574,496
1765877650.86358,496
1765877650.863586,496
1765877650.863592,495
1765877650.863598,496
1765877650.863604,496
1765877650.86361,496
1765877650.863616,495
1765877650.863623,496
1765877650.86363,496
1765877650.863636,496
1765877650.8636422,496
1765877650.863648,496
1765877650.863654,496
1765877650.86366,496
1765877650.8636649,495
1765877650.863671,495
1765877650.863677,496
1765877650.863683,496
1765877650.863689,496
1765877650.8636951,496
1765877650.8637,496
1765877650.863706,496
1765877650.863712,496
1765877650.8637178,496
1765877650.8637261,496
1765877650.8637319,495
1765877650.863738,496
1765877650.863744,496
1765877650.86375,497
1765877650.863756,496
1765877650.863765,495
1765877650.863771,496
1765877650.863777,496
1765877650.863783,496
1765877650.863791,496
1765877650.863798,496
1765877650.8638039,496
1765877650.86381,496
1765877650.8638148,495
1765877650.863821,496
1765877650.863827,496
1765877650.8638332,496
1765877650.863839,496
1765877650.863845,496
1765877650.863851,495
1765877650.8638568,495
1765877650.863863,495
1765877650.863869,496
1765877650.863876,496
1765877650.863883,495
1765877650.8638878,495
1765877650.863894,495
1765877650.8639,496
1765877650.8639061,496
1765877650.8639119,496
1765877650.863918,495
1765877650.863924,495
1765877650.8639302,495
1765877650.863936,496
1765877650.8639412,497
1765877650.863947,496
1765877650.8639538,496
1765877650.863961,496
1765877650.863967,496
1765877650.8639731,496
1765877650.863979,495
1765877650.8639848,496
1765877650.86399,496
1765877650.8639958,495
1765877650.864002,496
1765877650.864008,497
1765877650.8640141,498
1765877650.8640199,497
1765877650.864025,496
1765877650.864031,496
1765877650.864037,496
1765877650.864043,496
1765877650.864049,496
1765877650.8640552,495
1765877650.8640609,496
1765877650.864067,495
1765877650.864073,496
1765877650.864078,495
1765877650.864084,495
1765877650.8640902,495
1765877650.864096,495
1765877650.864102,496
1765877650.864109,496
1765877650.864116,496
1765877650.8641222,497
1765877650.864128,496
1765877650.8641338,496
1765877650.86414,496
1765877650.864146,495
1765877650.864151,494
1765877650.864157,494
1765877650.8641632,494
1765877650.864169,494
1765877650.864175,495
1765877650.864181,496
1765877650.864186,496
1765877650.864192,495
1765877650.864199,495
1765877650.864206,494
1765877650.864213,495
1765877650.864218,496
1765877650.864224,496
1765877650.86423,497
1765877650.864236,495
1765877650.8642418,495
1765877650.864248,495
1765877650.864259,495
1765877650.8642728,495
1765877650.864279,496
1765877650.864287,495
1765877650.8642938,495
1765877650.8643,496
1765877650.864306,496
1765877650.8643122,497
1765877650.864318,496
1765877650.864324,495
1765877650.86433,497
1765877650.8643358,497
1765877650.864342,496
1765877650.864347,495
1765877650.864353,494
1765877650.864359,495
1765877650.864365,496
1765877650.864371,496
1765877650.864377,495
1765877650.864387,495
1765877650.864392,494
1765877650.864398,495
1765877650.864404,495
1765877650.8644102,496
1765877650.864416,496
1765877650.8644218,496
1765877650.864427,497
1765877650.8644328,497
1765877650.864439,497
1765877650.864445,495
1765877650.8644521,496
1765877650.86446,495
1765877650.864466,495
1765877650.8644722,495
1765877650.8644779,495
1765877650.864483,495
1765877650.864489,495
1765877650.864495,496
1765877650.864501,495
1765877650.864507,495
1765877650.864513,494
1765877650.864519,495
1765877650.8645241,495
1765877650.8645298,495
1765877650.864536,495
1765877650.864542,496
1765877650.8645482,496
1765877650.864554,495
1765877650.8645601,495
1765877650.864566,495
1765877650.8645709,495
1765877650.864577,495
1765877650.864583,495
1765877650.864589,496
1765877650.864595,496
1765877650.8646011,496
1765877650.8646069,496
1765877650.864615,496
1765877650.864622,495
1765877650.864628,496
1765877650.864634,496
1765877650.86464,496
1765877650.864646,496
1765877650.864652,496
1765877650.8646579,496
1765877650.864664,496
1765877650.86467,495
1765877650.864676,495
1765877650.864682,496
1765877650.8646882,496
1765877650.864693,496
1765877650.864699,495
1765877650.864705,495
1765877650.8647108,496
1765877650.864717,495
1765877650.864723,495
1765877650.8647292,496
1765877650.864735,497
1765877650.8647401,497
1765877650.864746,496
1765877650.864752,497
1765877650.864759,496
1765877650.864765,494
1765877650.864772,494
1765877650.864779,494
1765877650.864785,494
1765877650.8647912,495
1765877650.8647969,495
1765877650.864803,495
1765877650.864809,495
1765877650.864815,495
1765877650.864821,495
1765877650.8648262,495
1765877650.864832,495
1765877650.864838,495
1765877650.864844,496
1765877650.8648498,497
1765877650.864855,497
1765877650.864861,497
1765877650.864867,495
1765877650.864873,493
1765877650.8648791,494
1765877650.864885,496
1765877650.8648908,497
1765877650.864897,496
1765877650.864903,496
1765877650.8649092,496
1765877650.864915,495
1765877650.864921,495
1765877650.864927,494
1765877650.864934,495
1765877650.8649411,497
1765877650.8649468,497
1765877650.864953,496
1765877650.864959,497
1765877650.8649652,497
1765877650.864971,497
1765877650.864977,496
1765877650.864983,497
1765877650.864989,496
1765877650.864995,496
1765877650.865001,497
1765877650.8650072,497
1765877650.865012,498
1765877650.8650181,497
1765877650.865024,497
1765877650.8650298,495
1765877650.865036,497
1765877650.865042,496
1765877650.8650482,497
1765877650.865054,496
1765877650.86506,496
1765877650.865066,496
1765877650.865072,495
1765877650.865078,495
1765877650.865084,495
1765877650.8650901,495
1765877650.865097,496
1765877650.865104,495
1765877650.865111,495
1765877650.865128,495
1765877650.8651462,495
1765877650.865165,496
1765877650.8651829,495
1765877650.865202,495
1765877650.865221,495
1765877650.86524,496
1765877650.865258,496
1765877650.8652768,495
1765877650.865296,496
1765877650.865315,495
1765877650.865333,495
1765877650.865352,495
1765877650.86537,495
1765877650.865389,495
1765877650.865408,496
1765877650.865427,495
1765877650.8654459,496
1765877650.8654652,496
1765877650.865483,496
1765877650.8655019,496
1765877650.865521,495
1765877650.8655412,496
1765877650.865559,495
1765877650.865582,495
1765877650.865597,495
1765877650.865603,496
1765877650.865609,496
1765877650.8656142,496
1765877650.86562,496
1765877650.865626,495
1765877650.865632,495
1765877650.8656378,496
1765877650.865644,496
1765877650.86565,495
1765877650.8656561,495
1765877650.865661,495
1765877650.865667,495
1765877650.865673,495
1765877650.865679,496
1765877650.865685,495
1765877650.865691,495
1765877650.865697,495
1765877650.865702,495
1765877650.865713,495
1765877650.865719,495
1765877650.865725,495
1765877650.86573,496
1765877650.865736,495
1765877650.865742,495
1765877650.86575,495
1765877650.865757,495
1765877650.865762,496
1765877650.865768,495
1765877650.8657742,495
1765877650.8657799,495
1765877650.865786,495
1765877650.865792,497
1765877650.865797,496
1765877650.865803,496
1765877650.865809,495
1765877650.865815,495
1765877650.865821,495
1765877650.865827,495
1765877650.865833,496
1765877650.865839,495
1765877650.865844,495
1765877650.8658502,495
1765877650.865856,495
1765877650.865862,495
1765877650.865868,495
1765877650.8658738,496
1765877650.86588,495
1765877650.865886,496
1765877650.8658922,495
1765877650.865898,495
1765877650.8659031,495
1765877650.865911,495
1765877650.865918,495
1765877650.8659241,496
1765877650.865929,495
1765877650.865935,496
1765877650.865941,495
1765877650.8659468,495
1765877650.865953,495
1765877650.865959,496
1765877650.8659651,495
1765877650.8659708,495
1765877650.865977,495
1765877650.865982,495
1765877650.865988,495
1765877650.865994,496
1765877650.866,496
1765877650.866006,496
1765877650.8660119,496
1765877650.866018,495
1765877650.866024,496
1765877650.866029,495
1765877650.866036,495
1765877650.8660412,495
1765877650.866047,495
1765877650.866053,495
1765877650.866059,495
1765877650.866068,496
1765877650.866085,495
1765877650.866103,496
1765877650.866122,496
1765877650.8661408,495
1765877650.8661602,495
1765877650.866179,496
1765877650.866197,495
1765877650.866216,496
1765877650.8662348,495
1765877650.866254,496
1765877650.866272,496
1765877650.866291,496
1765877650.86631,496
1765877650.866328,496
1765877650.866347,496
1765877650.866365,496
1765877650.8663838,495
1765877650.8664021,496
1765877650.866421,495
1765877650.8664398,496
1765877650.8664582,496
1765877650.866476,495
1765877650.866495,495
1765877650.866513,495
1765877650.8665311,496
1765877650.86655,496
1765877650.866616,497
1765877650.866654,495
1765877650.866667,495
1765877650.8666801,496
1765877650.866692,495
1765877650.866705,496
1765877650.8667169,496
1765877650.86673,496
1765877650.8667421,496
1765877650.866755,496
1765877650.8667939,496
1765877650.86681,496
1765877650.866823,496
1765877650.866836,496
1765877650.866849,495
1765877650.8668642,495
1765877650.8668768,496
1765877650.866889,496
1765877650.866902,495
1765877650.866915,495
1765877650.86693,496
1765877650.866942,495
1765877650.866955,496
1765877650.8669682,496
1765877650.86698,495
1765877650.866993,496
1765877650.867039,496
1765877650.8670552,495
1765877650.8670678,495
1765877650.867081,496
1765877650.867093,495
1765877650.867106,496
1765877650.867119,496
1765877650.867131,496
1765877650.8671439,496
1765877650.867157,496
1765877650.8671691,496
1765877650.867181,496
1765877650.867193,496
1765877650.8672059,496
1765877650.867218,497
1765877650.86723,496
1765877650.867242,496
1765877650.867255,496
1765877650.8672671,495
1765877650.867279,496
1765877650.867291,496
1765877650.867303,496
1765877650.867317,496
1765877650.867332,496
1765877650.86735,496
1765877650.8673651,496
1765877650.867381,496
1765877650.867394,496
1765877650.86741,496
1765877650.86743,496
1765877650.867445,496
1765877650.867459,496
1765877650.867472,496
1765877650.8674839,496
1765877650.867497,496
1765877650.867509,496
1765877650.867521,496
1765877650.8675342,496
1765877650.867546,496
1765877650.867559,496
1765877650.867578,496
1765877650.86759,496
1765877650.8676028,496
1765877650.867615,496
1765877650.867627,496
1765877650.867639,496
1765877650.8676522,496
1765877650.8676639,496
1765877650.867676,496
1765877650.867688,497
1765877650.867701,496
1765877650.8677151,496
1765877650.8677278,496
1765877650.86774,496
1765877650.867753,496
1765877650.867765,496
1765877650.8677812,496
1765877650.867795,497
1765877650.867806,496
1765877650.867819,496
1765877650.8678331,496
1765877650.867851,496
1765877650.8678741,496
1765877650.8678951,496
1765877650.867913,496
1765877650.867929,496
1765877650.8679419,495
1765877650.867954,497
1765877650.867966,496
1765877650.867979,496
1765877650.867991,496
1765877650.8680031,496
1765877650.868015,496
1765877650.868027,496
1765877650.8680398,497
1765877650.868052,496
1765877650.868064,496
1765877650.868077,496
1765877650.868093,496
1765877650.868106,496
1765877650.868118,495
1765877650.86813,496
1765877650.8681421,497
1765877650.868154,496
1765877650.868166,496
1765877650.8681788,496
1765877650.868192,497
1765877650.868204,497
1765877650.868216,496
1765877650.8682282,497
1765877650.8682399,497
1765877650.868253,496
1765877650.868265,496
1765877650.868277,496
1765877650.868289,496
1765877650.8683012,496
1765877650.868313,497
1765877650.868326,496
1765877650.8683379,496
1765877650.868351,496
1765877650.868363,496
1765877650.868375,496
1765877650.868387,496
1765877650.8684008,496
1765877650.8684149,496
1765877650.868429,496
1765877650.868441,496
1765877650.868453,496
1765877650.868465,497
1765877650.8684769,496
1765877650.868489,496
1765877650.868501,496
1765877650.868514,496
1765877650.8685272,496
1765877650.8685389,496
1765877650.868552,496
1765877650.868565,496
1765877650.868578,496
1765877650.86859,496
1765877650.868602,496
1765877650.868614,496
1765877650.8686259,496
1765877650.868638,496
1765877650.868654,496
1765877650.868667,497
1765877650.8686788,496
1765877650.868692,496
1765877650.868705,496
1765877650.868719,497
1765877650.868735,496
1765877650.8687491,496
1765877650.868762,496
1765877650.868775,496
1765877650.868788,496
1765877650.8688,496
1765877650.868813,497
1765877650.8688269,496
1765877650.868839,496
1765877650.868852,497
1765877650.868864,497
1765877650.8688772,496
1765877650.86889,496
1765877650.8689039,496
1765877650.868916,496
1765877650.868929,496
1765877650.868941,496
1765877650.8689542,496
1765877650.8689659,496
1765877650.868978,496
1765877650.868991,497
1765877650.869003,496
1765877650.869015,496
1765877650.869028,496
1765877650.869041,496
1765877650.869053,496
1765877650.869077,496
1765877650.8690932,496
1765877650.8691058,496
1765877650.869119,496
1765877650.869132,496
1765877650.869144,496
1765877650.8691561,496
1765877650.869169,496
1765877650.869181,496
1765877650.869193,496
1765877650.869205,496
1765877650.869217,497
1765877650.86923,497
1765877650.8692422,497
1765877650.8692539,498
1765877650.869266,498
1765877650.869278,498
1765877650.869291,498
1765877650.869303,497
1765877650.8693151,498
1765877650.869327,498
1765877650.869339,497
1765877650.869351,497
1765877650.8693628,498
1765877650.869376,497
1765877650.869388,498
1765877650.8694131,498
1765877650.869426,497
1765877650.869438,497
1765877650.86945,497
1765877650.869462,497
1765877650.8694751,497
1765877650.869487,496
1765877650.869499,497
1765877650.8695118,497
1765877650.869524,497
1765877650.869536,497
1765877650.869548,497
1765877650.86956,497
1765877650.869573,497
1765877650.8695848,496
1765877650.869597,496
1765877650.8696089,496
1765877650.869621,497
1765877650.8696342,496
1765877650.869646,496
1765877650.869662,497
1765877650.8696792,496
1765877650.8696918,497
1765877650.869705,496
1765877650.869718,496
1765877650.86973,497
1765877650.8697448,496
1765877650.869757,497
1765877650.8697689,496
1765877650.869781,496
1765877650.8697941,497
1765877650.869806,496
1765877650.8698182,496
1765877650.86983,496
1765877650.8698418,496
1765877650.869854,496
1765877650.869866,496
1765877650.869879,496
1765877650.8698912,496
1765877650.869903,496
1765877650.8699148,496
1765877650.869927,496
1765877650.8699389,496
1765877650.869951,496
1765877650.869963,496
1765877650.8699799,496
1765877650.869993,496
1765877650.8700101,496
1765877650.870024,496
1765877650.870037,496
1765877650.870049,496
1765877650.8700612,496
1765877650.870074,496
1765877650.8700879,497
1765877650.8701,496
1765877650.870112,496
1765877650.870124,496
1765877650.870136,496
1765877650.8701508,496
1765877650.870165,497
1765877650.870177,497
1765877650.8701901,496
1765877650.870202,496
1765877650.870214,496
1765877650.870226,496
1765877650.8702369,496
1765877650.870249,496
1765877650.870261,496
1765877650.870273,496
1765877650.870284,496
1765877650.870296,496
1765877650.8703082,496
1765877650.8703191,496
1765877650.8703308,496
1765877650.870343,497
1765877650.870355,496
1765877650.870367,496
1765877650.870378,496
1765877650.8703911,497
1765877650.870406,496
1765877650.87042,496
1765877650.870432,496
1765877650.870444,496
1765877650.870455,496
1765877650.8704672,496
1765877650.870481,496
1765877650.870496,496
1765877650.870508,496
1765877650.8705258,496
1765877650.870539,496
1765877650.870551,496
1765877650.870563,496
1765877650.8705769,496
1765877650.870591,496
1765877650.870605,496
1765877650.87062,496
1765877650.870633,496
1765877650.870645,497
1765877650.870657,496
1765877650.8706691,496
1765877650.870681,496
1765877650.8706932,496
1765877650.870705,496
1765877650.870718,496
1765877650.87075,496
1765877650.870796,496
1765877650.870817,496
1765877650.87083,496
1765877650.870844,496
1765877650.870857,496
1765877650.87087,496
1765877650.870883,497
1765877650.870904,496
1765877650.870919,496
1765877650.870935,496
1765877650.870948,496
1765877650.8709602,496
1765877650.8709729,496
1765877650.870985,496
1765877650.870997,496
1765877650.87101,496
1765877650.871022,496
1765877650.8710341,496
1765877650.8710458,496
1765877650.871058,496
1765877650.871072,496
1765877650.871084,496
1765877650.8710961,496
1765877650.871108,496
1765877650.871121,495
1765877650.8711371,496
1765877650.8711538,496
1765877650.871166,496
1765877650.87118,496
1765877650.8711932,496
1765877650.871205,496
1765877650.871217,496
1765877650.871229,496
1765877650.871242,497
1765877650.871254,497
1765877650.8712661,496
1765877650.871279,496
1765877650.871291,496
1765877650.8713028,496
1765877650.871316,496
1765877650.871328,496
1765877650.87134,496
1765877650.8713531,496
1765877650.871365,496
1765877650.871378,496
1765877650.8713899,496
1765877650.871402,496
1765877650.871414,496
1765877650.871426,496
1765877650.871438,496
1765877650.8714502,496
1765877650.871465,496
1765877650.871478,496
1765877650.87149,496
1765877650.8715022,496
1765877650.871514,496
1765877650.871526,497
1765877650.871538,496
1765877650.871551,496
1765877650.871563,496
1765877650.871575,496
1765877650.871588,497
1765877650.8716002,496
1765877650.8716118,497
1765877650.871624,496
1765877650.871669,497
1765877650.8717,497
1765877650.871713,497
1765877650.871725,496
1765877650.8717382,496
1765877650.8717499,496
1765877650.871763,496
1765877650.871775,496
1765877650.871787,496
1765877650.8718,496
1765877650.871812,496
1765877650.871825,496
1765877650.87184,496
1765877650.87186,497
1765877650.8718898,496
1765877650.871903,496
1765877650.871916,496
1765877650.871928,496
1765877650.8719401,496
1765877650.8719518,496
1765877650.871965,496
1765877650.8719769,496
1765877650.871989,497
1765877650.8720021,497
1765877650.872014,496
1765877650.8720262,496
1765877650.872038,496
1765877650.8720498,496
1765877650.872063,496
1765877650.872075,496
1765877650.872086,496
1765877650.8720992,497
1765877650.872111,496
1765877650.8721228,497
1765877650.872135,496
1765877650.8721468,496
1765877650.872159,496
1765877650.872181,496
1765877650.8722181,496
1765877650.872232,496
1765877650.872245,496
1765877650.872257,496
1765877650.87227,496
1765877650.872282,497
1765877650.8722959,496
1765877650.87231,496
1765877650.872323,496
1765877650.8723352,496
1765877650.8723469,496
1765877650.8723588,496
1765877650.872371,496
1765877650.872384,496
1765877650.872396,496
1765877650.8724082,496
1765877650.87242,496
1765877650.8724322,496
1765877650.872444,496
1765877650.8724558,496
1765877650.872469,497
1765877650.872481,496
1765877650.872493,496
1765877650.8725061,497
1765877650.872569,497
1765877650.872587,497
1765877650.872606,496
1765877650.8726232,497
1765877650.872638,497
1765877650.872654,497
1765877650.87267,496
1765877650.8726861,496
1765877650.872701,496
1765877650.872716,496
1765877650.872732,496
1765877650.8727481,496
1765877650.872763,496
1765877650.872778,496
1765877650.8727942,496
1765877650.87281,496
1765877650.8728251,496
1765877650.87284,496
1765877650.8728561,496
1765877650.872871,496
1765877650.8728871,497
1765877650.872902,496
1765877650.8729181,496
1765877650.8729331,497
1765877650.872949,496
1765877650.8729641,496
1765877650.8729799,496
1765877650.8729951,496
1765877650.873014,496
1765877650.873031,496
1765877650.873046,496
1765877650.873062,497
1765877650.873077,496
1765877650.8730931,497
1765877650.873108,497
1765877650.8731232,496
1765877650.873139,496
1765877650.8731542,496
1765877650.87317,496
1765877650.873185,496
1765877650.873201,496
1765877650.873216,496
1765877650.873232,497
1765877650.873247,496
1765877650.8732631,497
1765877650.873278,496
1765877650.873294,497
1765877650.873309,496
1765877650.873325,496
1765877650.87334,496
1765877650.873355,496
1765877650.873371,496
1765877650.873386,496
1765877650.873402,496
1765877650.873421,496
1765877650.873442,496
1765877650.873458,496
1765877650.8734741,496
1765877650.8734899,496
1765877650.873505,496
1765877650.8735209,496
1765877650.873537,496
1765877650.8735518,496
1765877650.873568,496
1765877650.873583,496
1765877650.873599,496
1765877650.873614,496
1765877650.87363,496
1765877650.873645,496
1765877650.873661,496
1765877650.873677,497
1765877650.8736918,496
1765877650.873708,497
1765877650.8737228,496
1765877650.873738,496
1765877650.873754,496
1765877650.87377,497
1765877650.873785,497
1765877650.873801,496
1765877650.873816,496
1765877650.873836,496
1765877650.873854,496
1765877650.8738718,496
1765877650.873887,496
1765877650.873903,496
1765877650.873919,496
1765877650.8739321,496
1765877650.8739378,496
1765877650.873944,496
1765877650.87395,496
1765877650.8739562,496
1765877650.873962,496
1765877650.87397,496
1765877650.8739772,496
1765877650.873982,496
1765877650.873989,496
1765877650.8739939,496
1765877650.8740008,496
1765877650.874007,496
1765877650.874012,496
1765877650.874018,496
1765877650.874024,496
1765877650.87403,496
1765877650.874036,496
1765877650.874042,496
1765877650.874052,496
1765877650.87406,496
1765877650.874068,496
1765877650.8740742,496
1765877650.87408,497
1765877650.874086,498
1765877650.874091,498
1765877650.8740969,498
1765877650.874104,497
1765877650.874109,498
1765877650.874115,497
1765877650.874121,497
1765877650.8741271,498
1765877650.874133,498
1765877650.8741388,498
1765877650.874145,498
1765877650.874151,498
1765877650.874157,497
1765877650.874163,497
1765877650.8741682,497
1765877650.8741739,496
1765877650.87418,497
1765877650.874186,497
1765877650.8741918,497
1765877650.874198,497
1765877650.874204,496
1765877650.8742101,497
1765877650.8742158,496
1765877650.874223,496
1765877650.874233,497
1765877650.874239,496
1765877650.8742452,496
1765877650.889051,497
1765877650.889059,496
1765877650.889065,496
1765877650.889071,496
1765877650.889077,496
1765877650.889083,496
1765877650.889089,497
1765877650.8890939,496
1765877650.8891,496
1765877650.889106,496
1765877650.889112,496
1765877650.889118,496
1765877650.8891242,496
1765877650.889129,496
1765877650.8891351,497
1765877650.889141,496
1765877650.8891468,496
1765877650.889153,497
1765877650.889159,496
1765877650.8891652,496
1765877650.889171,497
1765877650.8891761,496
1765877650.8891819,496
1765877650.889191,496
1765877650.889199,496
1765877650.889205,496
1765877650.889211,496
1765877650.889216,496
1765877650.889222,496
1765877650.889228,496
1765877650.8892338,496
1765877650.88924,497
1765877650.889246,497
1765877650.889251,497
1765877650.889257,497
1765877650.8892632,496
1765877650.8892689,496
1765877650.8892748,496
1765877650.889281,496
1765877650.8892858,496
1765877650.889292,496
1765877650.889298,496
1765877650.8893042,496
1765877650.88931,496
1765877650.8893151,496
1765877650.8893209,497
1765877650.889327,496
1765877650.889333,496
1765877650.889338,496
1765877650.889345,496
1765877650.8893518,496
1765877650.889358,496
1765877650.889364,496
1765877650.8893702,496
1765877650.889376,497
1765877650.889382,496
1765877650.889388,496
1765877650.8893929,496
1765877650.889399,497
1765877650.889405,497
1765877650.889411,496
1765877650.889417,496
1765877650.8894222,496
1765877650.889428,496
1765877650.889434,496
1765877650.88944,496
1765877650.889445,495
1765877650.889451,496
1765877650.889457,496
1765877650.889463,496
1765877650.889469,496
1765877650.8894742,496
1765877650.8894799,496
1765877650.889486,496
1765877650.889492,496
1765877650.889498,496
1765877650.889505,496
1765877650.8895118,496
1765877650.889518,496
1765877650.889524,496
1765877650.8895302,496
1765877650.889535,496
1765877650.8895411,496
1765877650.889547,496
1765877650.8895528,496
1765877650.889558,496
1765877650.8895638,496
1765877650.88957,496
1765877650.889576,496
1765877650.8895822,497
1765877650.889587,496
1765877650.8895931,496
1765877650.889599,496
1765877650.889611,496
1765877650.889617,496
1765877650.889622,496
1765877650.889632,496
1765877650.889638,496
1765877650.8896441,496
1765877650.8896499,496
1765877650.889655,496
1765877650.8896608,496
1765877650.889667,495
1765877650.889675,496
1765877650.8896809,495
1765877650.889687,495
1765877650.889693,496
1765877650.889699,496
1765877650.889704,496
1765877650.8897102,496
1765877650.889716,496
1765877650.8897212,496
1765877650.8897269,496
1765877650.889733,496
1765877650.889739,496
1765877650.889745,496
1765877650.88975,496
1765877650.889756,496
1765877650.8897622,496
1765877650.889768,496
1765877650.889774,496
1765877650.8897789,496
1765877650.889785,496
1765877650.889791,496
1765877650.8897972,496
1765877650.889803,496
1765877650.889809,496
1765877650.889814,496
1765877650.8898199,496
1765877650.889826,495
1765877650.889833,496
1765877650.8898401,496
1765877650.889846,496
1765877650.8898518,496
1765877650.889858,496
1765877650.889864,495
1765877650.889869,496
1765877650.889875,496
1765877650.8898811,496
1765877650.889887,496
1765877650.889892,496
1765877650.889898,496
1765877650.889904,496
1765877650.88991,496
1765877650.889916,496
1765877650.889921,495
1765877650.889927,496
1765877650.889933,496
1765877650.8899388,496
1765877650.889944,495
1765877650.88995,496
1765877650.889956,496
1765877650.889962,496
1765877650.8899682,496
1765877650.889973,496
1765877650.889979,496
1765877650.889985,496
1765877650.889992,496
1765877650.8899992,496
1765877650.8900049,497
1765877650.89001,496
1765877650.890016,496
1765877650.8900218,496
1765877650.890028,496
1765877650.890034,496
1765877650.890039,496
1765877650.890045,496
1765877650.8900511,496
1765877650.890056,496
1765877650.890062,496
1765877650.890068,496
1765877650.890074,496
1765877650.89008,496
1765877650.8900852,496
1765877650.890091,496
1765877650.890097,496
1765877650.890103,496
1765877650.8901088,496
1765877650.890114,496
1765877650.89012,496
1765877650.890126,496
1765877650.890132,496
1765877650.8901381,496
1765877650.890145,495
1765877650.890152,495
1765877650.8901582,495
1765877650.890164,496
1765877650.89017,496
1765877650.8901749,496
1765877650.890181,496
1765877650.890187,496
1765877650.890193,496
1765877650.890199,496
1765877650.890208,496
1765877650.890214,496
1765877650.89022,496
1765877650.890225,496
1765877650.89023,496
1765877650.890236,496
1765877650.890241,496
1765877650.890246,496
1765877650.8902552,495
1765877650.89026,496
1765877650.8902662,496
1765877650.890271,496
1765877650.8902762,496
1765877650.890282,496
1765877650.8902872,496
1765877650.890292,496
1765877650.890303,495
1765877650.890311,496
1765877650.890317,496
1765877650.890323,496
1765877650.8903282,496
1765877650.890333,496
1765877650.890338,496
1765877650.890344,496
1765877650.8903491,496
1765877650.890354,496
1765877650.890359,496
1765877650.890365,497
1765877650.8903701,496
1765877650.890375,495
1765877650.8903801,496
1765877650.890385,496
1765877650.890391,496
1765877650.8903959,496
1765877650.8904011,496
1765877650.890406,496
1765877650.890412,496
1765877650.8904169,496
1765877650.890422,496
1765877650.8904269,495
1765877650.890433,496
1765877650.8904378,496
1765877650.890443,496
1765877650.8904479,496
1765877650.89046,496
1765877650.890466,496
1765877650.890471,496
1765877650.890476,496
1765877650.890482,496
1765877650.890487,496
1765877650.890493,496
1765877650.8904982,496
1765877650.890503,496
1765877650.8905091,497
1765877650.890514,496
1765877650.8905191,496
1765877650.890524,496
1765877650.89053,496
1765877650.8905349,496
1765877650.890541,496
1765877650.890548,496
1765877650.8905559,496
1765877650.8905652,496
1765877650.890573,496
1765877650.89058,496
1765877650.8905869,496
1765877650.890595,496
1765877650.8906019,496
1765877650.8906088,497
1765877650.8906162,497
1765877650.890623,497
1765877650.890631,496
1765877650.890638,496
1765877650.890644,496
1765877650.89065,497
1765877650.890656,497
1765877650.890662,496
1765877650.890669,496
1765877650.8906748,496
1765877650.890681,496
1765877650.890686,496
1765877650.8906932,496
1765877650.890699,496
1765877650.8907049,496
1765877650.890711,496
1765877650.890718,496
1765877650.8907242,496
1765877650.890729,496
1765877650.8907351,497
1765877650.890741,497
1765877650.8907478,496
1765877650.890754,496
1765877650.89076,496
1765877650.8907661,496
1765877650.8907719,496
1765877650.8907788,497
1765877650.890785,496
1765877650.890791,496
1765877650.890798,496
1765877650.890805,496
1765877650.8908129,496
1765877650.890819,496
1765877650.890825,496
1765877650.890831,496
1765877650.890837,496
1765877650.890843,496
1765877650.890849,496
1765877650.8908548,496
1765877650.890861,497
1765877650.890867,496
1765877650.8908732,496
1765877650.890879,496
1765877650.890885,496
1765877650.890892,496
1765877650.890898,496
1765877650.890904,497
1765877650.89091,496
1765877650.890916,496
1765877650.8909209,496
1765877650.890927,496
1765877650.890934,497
1765877650.89094,497
1765877650.8909461,497
1765877650.8909519,497
1765877650.89096,497
1765877650.890966,497
1765877650.8909729,497
1765877650.890979,497
1765877650.890985,497
1765877650.8909912,497
1765877650.890997,497
1765877650.8910022,498
1765877650.891009,498
1765877650.8910148,497
1765877650.891021,497
1765877650.891027,497
1765877650.8910332,497
1765877650.891038,497
1765877650.8910441,498
1765877650.89105,498
1765877650.891057,497
1765877650.891063,497
1765877650.891069,498
1765877650.891074,497
1765877650.89108,496
1765877650.891086,496
1765877650.891092,496
1765877650.891098,497
1765877650.891104,497
1765877650.891111,496
1765877650.8911161,497
1765877650.891124,497
1765877650.891131,497
1765877650.8911371,497
1765877650.8911428,496
1765877650.891149,496
1765877650.891155,496
1765877650.8911612,496
1765877650.891167,496
1765877650.8911738,496
1765877650.89118,496
1765877650.891186,496
1765877650.891192,496
1765877650.891197,496
1765877650.8912032,497
1765877650.891208,496
1765877650.8912141,496
1765877650.891219,496
1765877650.8912241,496
1765877650.8912299,496
1765877650.891235,496
1765877650.891241,496
1765877650.891246,496
1765877650.891252,496
1765877650.891257,496
1765877650.891262,496
1765877650.891267,496
1765877650.891273,496
1765877650.89128,496
1765877650.8912861,496
1765877650.8912919,497
1765877650.891297,496
1765877650.8913028,496
1765877650.891309,496
1765877650.891315,496
1765877650.8913212,496
1765877650.891327,496
1765877650.891333,496
1765877650.891339,496
1765877650.8913448,496
1765877650.891351,496
1765877650.891357,496
1765877650.8913631,496
1765877650.89137,496
1765877650.891376,496
1765877650.891382,496
1765877650.891388,496
1765877650.8913941,496
1765877650.8913999,496
1765877650.891406,497
1765877650.891412,497
1765877650.8914182,496
1765877650.8914251,496
1765877650.891432,497
1765877650.8914392,496
1765877650.891449,496
1765877650.891457,496
1765877650.8914628,496
1765877650.891469,496
1765877650.891476,496
1765877650.8914828,496
1765877650.8914912,496
1765877650.891497,496
1765877650.891503,496
1765877650.891509,496
1765877650.8915148,496
1765877650.891521,496
1765877650.891527,496
1765877650.8915331,496
1765877650.8915389,496
1765877650.891545,496
1765877650.891551,496
1765877650.8915572,496
1765877650.891563,496
1765877650.891569,496
1765877650.891575,496
1765877650.8915808,496
1765877650.891587,496
1765877650.891593,496
1765877650.8915992,495
1765877650.891605,495
1765877650.8916101,496
1765877650.891618,496
1765877650.891625,496
1765877650.8916311,496
1765877650.8916411,496
1765877650.891646,496
1765877650.891653,496
1765877650.891659,496
1765877650.891665,496
1765877650.891671,496
1765877650.891677,497
1765877650.8916821,496
1765877650.8916879,496
1765877650.891694,496
1765877650.891701,496
1765877650.891707,496
1765877650.891712,496
1765877650.891718,496
1765877650.891724,496
1765877650.8917298,496
1765877650.891736,496
1765877650.891743,496
1765877650.8917491,496
1765877650.891754,496
1765877650.89176,496
1765877650.891766,496
1765877650.8917718,496
1765877650.891778,496
1765877650.891786,496
1765877650.891793,496
1765877650.891799,496
1765877650.891805,496
1765877650.89181,496
1765877650.891816,496
1765877650.891822,496
1765877650.891828,497
1765877650.891834,496
1765877650.89184,496
1765877650.891846,496
1765877650.891851,496
1765877650.891857,496
1765877650.891863,496
1765877650.8918688,496
1765877650.891875,496
1765877650.891881,496
1765877650.8918872,496
1765877650.891892,497
1765877650.8918982,497
1765877650.891904,496
1765877650.891916,496
1765877650.891922,495
1765877650.891928,496
1765877650.891934,496
1765877650.8919392,495
1765877650.891957,496
1765877650.891964,497
1765877650.891969,496
1765877650.891975,496
1765877650.8919811,496
1765877650.8919868,496
1765877650.891993,496
1765877650.891999,496
1765877650.892004,495
1765877650.89201,496
1765877650.8920162,496
1765877650.892034,496
1765877650.89204,496
1765877650.892045,496
1765877650.892051,496
1765877650.8920572,496
1765877650.892063,495
1765877650.892069,496
1765877650.892075,495
1765877650.8920808,496
1765877650.892086,496
1765877650.892092,496
1765877650.892098,496
1765877650.892104,496
1765877650.89211,497
1765877650.892116,496
1765877650.892123,496
1765877650.892131,496
1765877650.892137,496
1765877650.892143,496
1765877650.892149,496
1765877650.892155,496
1765877650.892162,496
1765877650.892168,496
1765877650.892174,496
1765877650.89218,496
1765877650.8921862,496
1765877650.892192,496
1765877650.8921971,496
1765877650.892203,496
1765877650.8922088,497
1765877650.892215,496
1765877650.892221,496
1765877650.8922272,496
1765877650.892232,496
1765877650.8922381,496
1765877650.8922439,496
1765877650.89225,496
1765877650.892256,496
1765877650.892262,496
1765877650.892268,496
1765877650.892274,496
1765877650.89228,496
1765877650.892288,496
1765877650.892295,496
1765877650.892301,496
1765877650.892307,496
1765877650.892313,496
1765877650.892319,496
1765877650.8923252,496
1765877650.89233,496
1765877650.8923361,496
1765877650.892342,496
1765877650.8923478,496
1765877650.892354,496
1765877650.892359,496
1765877650.892365,496
1765877650.892371,496
1765877650.8923771,496
1765877650.8923829,496
1765877650.892389,496
1765877650.892395,496
1765877650.8924,496
1765877650.892406,496
1765877650.892412,496
1765877650.8924181,496
1765877650.8924239,496
1765877650.892429,496
1765877650.8924348,495
1765877650.892443,496
1765877650.8924491,496
1765877650.892456,496
1765877650.892462,496
1765877650.892468,496
1765877650.8924742,496
1765877650.89248,496
1765877650.8924859,496
1765877650.892493,495
1765877650.8925,496
1765877650.8925052,496
1765877650.892511,496
1765877650.892519,496
1765877650.892525,496
1765877650.892531,496
1765877650.892537,497
1765877650.892544,496
1765877650.892552,496
1765877650.892559,496
1765877650.892566,496
1765877650.8925729,496
1765877650.89258,496
1765877650.892587,496
1765877650.8925939,496
1765877650.8926022,496
1765877650.8926091,496
1765877650.892616,496
1765877650.8926249,496
1765877650.8926332,496
1765877650.892641,497
1765877650.892648,496
1765877650.8926551,496
1765877650.892662,496
1765877650.892668,496
1765877650.892673,496
1765877650.892681,496
1765877650.8926878,496
1765877650.892695,496
1765877650.8927019,496
1765877650.89271,496
1765877650.8927171,496
1765877650.892724,496
1765877650.892731,496
1765877650.892738,495
1765877650.8927438,496
1765877650.89275,496
1765877650.892755,496
1765877650.892761,495
1765877650.892768,496
1765877650.8927748,496
1765877650.8927832,496
1765877650.89279,496
1765877650.892797,496
1765877650.8928041,496
1765877650.892813,496
1765877650.892822,496
1765877650.892829,496
1765877650.892836,497
1765877650.892843,496
1765877650.8928509,496
1765877650.892858,496
1765877650.892865,496
1765877650.8928719,496
1765877650.892878,496
1765877650.892884,495
1765877650.892891,496
1765877650.892898,496
1765877650.892904,497
1765877650.892909,497
1765877650.892915,497
1765877650.8929222,496
1765877650.892929,496
1765877650.8929348,496
1765877650.892941,496
1765877650.892948,496
1765877650.8929548,496
1765877650.892962,496
1765877650.89297,496
1765877650.892977,496
1765877650.892983,496
1765877650.892989,496
1765877650.892998,496
1765877650.893006,496
1765877650.893013,496
1765877650.89302,496
1765877650.893027,496
1765877650.893033,496
1765877650.8930402,496
1765877650.893047,496
1765877650.893055,496
1765877650.8930619,496
1765877650.893069,496
1765877650.893075,496
1765877650.8930812,496
1765877650.893088,496
1765877650.893095,495
1765877650.893101,496
1765877650.893107,496
1765877650.8931148,496
1765877650.8931258,496
1765877650.8931332,496
1765877650.893141,496
1765877650.893147,496
1765877650.893153,496
1765877650.893159,496
1765877650.893165,496
1765877650.893172,495
1765877650.8931808,495
1765877650.89319,496
1765877650.893197,496
1765877650.893204,496
1765877650.8932102,496
1765877650.893216,496
1765877650.8932228,496
1765877650.893229,496
1765877650.893234,497
1765877650.89324,497
1765877650.893247,498
1765877650.893253,497
1765877650.893258,497
1765877650.8932638,497
1765877650.89327,498
1765877650.893277,498
1765877650.893284,497
1765877650.893291,497
1765877650.893298,497
1765877650.893305,498
1765877650.893312,497
1765877650.893319,498
1765877650.893326,496
1765877650.893332,496
1765877650.893337,496
1765877650.893343,496
1765877650.8933492,496
1765877650.893358,496
1765877650.893367,497
1765877650.893374,497
1765877650.893381,496
1765877650.893388,496
1765877650.893395,496
1765877650.893402,496
1765877650.893409,496
1765877650.893416,496
1765877650.8934221,496
1765877650.8934278,496
1765877650.8934348,496
1765877650.893443,496
1765877650.89345,496
1765877650.893457,496
1765877650.893462,496
1765877650.893468,497
1765877650.893474,496
1765877650.893481,497
1765877650.893489,496
1765877650.893495,496
1765877650.893501,496
1765877650.893507,496
1765877650.893512,496
1765877650.893518,496
1765877650.893524,496
1765877650.8935308,496
1765877650.893538,496
1765877650.893544,496
1765877650.8935502,496
1765877650.8935559,496
1765877650.893562,495
1765877650.89357,496
1765877650.8935769,496
1765877650.8935838,496
1765877650.89359,496
1765877650.893596,496
1765877650.8936021,496
1765877650.8936079,496
1765877650.893614,497
1765877650.89362,496
1765877650.893625,496
1765877650.893631,496
1765877650.8936388,496
1765877650.893646,496
1765877650.893654,496
1765877650.893661,496
1765877650.893667,496
1765877650.893673,496
1765877650.89368,496
1765877650.893687,495
1765877650.8936949,496
1765877650.893701,496
1765877650.893709,496
1765877650.893717,496
1765877650.8937259,497
1765877650.893733,496
1765877650.8937411,496
1765877650.893748,496
1765877650.893754,496
1765877650.89376,496
1765877650.8937678,496
1765877650.893775,496
1765877650.893782,496
1765877650.89379,496
1765877650.8937972,496
1765877650.893804,496
1765877650.89381,496
1765877650.8938172,495
1765877650.893824,496
1765877650.893832,496
1765877650.8938391,496
1765877650.893845,496
1765877650.8938508,496
1765877650.89386,496
1765877650.893867,496
1765877650.893874,496
1765877650.893881,496
1765877650.893889,496
1765877650.8938959,495
1765877650.893905,496
1765877650.893913,496
1765877650.8939211,496
1765877650.893928,496
1765877650.8939352,496
1765877650.893942,496
1765877650.8939478,496
1765877650.893955,496
1765877650.893963,495
1765877650.89397,496
1765877650.8939772,496
1765877650.893983,496
1765877650.893989,496
1765877650.893995,496
1765877650.894001,496
1765877650.894007,496
1765877650.894012,496
1765877650.894018,496
1765877650.894024,496
1765877650.8940291,496
1765877650.8940349,496
1765877650.894041,496
1765877650.894047,496
1765877650.8940532,496
1765877650.894059,496
1765877650.8940659,496
1765877650.894075,496
1765877650.894083,496
1765877650.894088,496
1765877650.894094,496
1765877650.8941,496
1765877650.8941052,496
1765877650.894111,496
1765877650.894117,496
1765877650.894123,496
1765877650.894128,496
1765877650.894134,496
1765877650.89414,496
1765877650.894148,496
1765877650.894155,496
1765877650.894162,496
1765877650.894167,496
1765877650.894173,496
1765877650.89418,496
1765877650.894187,496
1765877650.8941948,496
1765877650.894202,496
1765877650.894209,496
1765877650.8942158,495
1765877650.8942232,496
1765877650.8942301,496
1765877650.894237,496
1765877650.8942442,496
1765877650.894253,496
1765877650.894261,496
1765877650.8942678,496
1765877650.894274,496
1765877650.89428,497
1765877650.894287,496
1765877650.894294,496
1765877650.894301,496
1765877650.894308,496
1765877650.894319,496
1765877650.894325,496
1765877650.894331,496
1765877650.894337,496
1765877650.894345,496
1765877650.894352,496
1765877650.894359,496
1765877650.894366,497
1765877650.8943732,496
1765877650.894378,496
1765877650.8943841,496
1765877650.89439,496
1765877650.8943949,496
1765877650.894401,497
1765877650.8944068,496
1765877650.894412,497
1765877650.894418,496
1765877650.8944252,497
1765877650.894432,496
1765877650.8944378,496
1765877650.894444,497
1765877650.89445,497
1765877650.894455,496
1765877650.894461,496
1765877650.894467,496
1765877650.894474,496
1765877650.894481,496
1765877650.894491,496
1765877650.894498,496
1765877650.894505,496
1765877650.8945122,496
1765877650.89452,496
1765877650.894526,496
1765877650.894531,497
1765877650.894537,496
1765877650.8945432,496
1765877650.894549,497
1765877650.8945549,496
1765877650.894561,496
1765877650.894567,497
1765877650.894572,496
1765877650.894578,497
1765877650.8945842,497
1765877650.894589,496
1765877650.894596,497
1765877650.894602,496
1765877650.894609,496
1765877650.894614,497
1765877650.894621,496
1765877650.894629,496
1765877650.894636,496
1765877650.8946419,496
1765877650.894648,496
1765877650.8946528,497
1765877650.894659,497
1765877650.894665,496
1765877650.8946712,497
1765877650.894677,497
1765877650.8946822,496
1765877650.89469,497
1765877650.894697,496
1765877650.894704,497
1765877650.894711,496
1765877650.894719,496
1765877650.8947258,496
1765877650.894733,496
1765877650.894739,496
1765877650.894745,496
1765877650.894751,496
1765877650.894757,496
1765877650.894763,496
1765877650.894772,496
1765877650.894779,496
1765877650.894785,496
1765877650.894791,496
1765877650.894797,496
1765877650.8948019,496
1765877650.894808,496
1765877650.894814,496
1765877650.8948202,497
1765877650.894825,496
1765877650.8948312,496
1765877650.894837,496
1765877650.8948429,496
1765877650.894849,496
1765877650.894855,496
1765877650.894861,496
1765877650.894867,496
1765877650.8948731,496
1765877650.8948789,496
1765877650.894885,496
1765877650.894891,496
1765877650.894897,496
1765877650.894902,496
1765877650.894908,496
1765877650.8949142,496
1765877650.8949199,496
1765877650.894926,497
1765877650.894932,497
1765877650.8949382,496
1765877650.894944,497
1765877650.89495,496
1765877650.894956,496
1765877650.8949618,496
1765877650.894968,496
1765877650.894974,496
1765877650.8949811,496
1765877650.894987,496
1765877650.8949928,497
1765877650.894999,497
1765877650.895005,496
1765877650.8950112,496
1765877650.895017,496
1765877650.895023,496
1765877650.895029,496
1765877650.895034,497
1765877650.89504,496
1765877650.895046,496
1765877650.895052,496
1765877650.895058,497
1765877650.895064,497
1765877650.8950698,497
1765877650.895075,497
1765877650.895081,496
1765877650.895087,495
1765877650.895093,496
1765877650.895099,496
1765877650.895104,496
1765877650.89511,496
1765877650.895116,497
1765877650.8951218,497
1765877650.895128,497
1765877650.895134,496
1765877650.8951402,496
1765877650.895145,497
1765877650.8951511,496
1765877650.895157,496
1765877650.8951628,496
1765877650.895169,496
1765877650.8951738,496
1765877650.89518,496
1765877650.895187,497
1765877650.8951921,497
1765877650.8951979,497
1765877650.895204,497
1765877650.895209,496
1765877650.895215,496
1765877650.895222,496
1765877650.8952289,496
1765877650.895235,496
1765877650.895241,497
1765877650.8952472,496
1765877650.895253,496
1765877650.895259,496
1765877650.895264,496
1765877650.8952699,496
1765877650.895276,496
1765877650.895282,496
1765877650.895287,496
1765877650.895293,496
1765877650.895299,496
1765877650.895304,496
1765877650.8953102,496
1765877650.895316,496
1765877650.895322,496
1765877650.895327,496
1765877650.895333,496
1765877650.895339,497
1765877650.895346,496
1765877650.895353,496
1765877650.895359,496
1765877650.8953652,496
1765877650.895371,496
1765877650.895377,496
1765877650.895382,496
1765877650.895388,496
1765877650.895394,496
1765877650.8954,496
1765877650.895405,496
1765877650.895412,496
1765877650.895419,496
1765877650.895426,496
1765877650.8954308,497
1765877650.895437,497
1765877650.895443,497
1765877650.8954492,497
1765877650.895455,497
1765877650.895461,497
1765877650.895467,497
1765877650.895473,497
1765877650.8954802,497
1765877650.895487,497
1765877650.895494,497
1765877650.8955,497
1765877650.895505,497
1765877650.8955112,496
1765877650.8955169,496
1765877650.895523,496
1765877650.89553,497
1765877650.8955379,497
1765877650.895545,495
1765877650.89555,496
1765877650.8955562,496
1765877650.8955631,496
1765877650.8955698,496
1765877650.895576,496
1765877650.895582,496
1765877650.8955882,496
1765877650.895594,495
1765877650.8956,495
1765877650.895606,496
1765877650.8956108,496
1765877650.895618,496
1765877650.895626,496
1765877650.895647,495
1765877650.895661,496
1765877650.8956668,496
1765877650.895673,496
1765877650.895679,496
1765877650.895686,496
1765877650.895692,496
1765877650.8956978,496
1765877650.895704,496
1765877650.895709,496
1765877650.895715,496
1765877650.895721,495
1765877650.8957272,496
1765877650.8957329,496
1765877650.8957388,496
1765877650.895745,495
1765877650.895751,496
1765877650.8957582,495
1765877650.8957639,496
1765877650.89577,496
1765877650.895776,495
1765877650.895782,496
1765877650.895788,496
1765877650.895794,495
1765877650.8958,496
1765877650.895808,496
1765877650.895815,496
1765877650.895821,495
1765877650.895827,495
1765877650.895833,496
1765877650.895839,495
1765877650.8958452,495
1765877650.895851,495
1765877650.8958578,496
1765877650.8958662,496
1765877650.895872,496
1765877650.8958778,495
1765877650.895885,496
1765877650.895891,496
1765877650.8958972,495
1765877650.8959029,496
1765877650.895909,496
1765877650.895915,495
1765877650.895921,496
1765877650.895929,496
1765877650.895935,495
1765877650.895941,495
1765877650.895947,495
1765877650.895954,496
1765877650.89596,496
1765877650.895967,496
1765877650.8959732,496
1765877650.895979,495
1765877650.895985,495
1765877650.895991,496
1765877650.8959968,495
1765877650.896003,496
1765877650.896009,496
1765877650.8960152,496
1765877650.896995,496
1765877650.898023,495
1765877650.898976,496
1765877650.900042,495
1765877650.900974,496
1765877650.902017,496
1765877650.903052,496
1765877650.904026,495
1765877650.905043,495
1765877650.906037,495
1765877650.907039,496
1765877650.908043,495
1765877650.909045,495
1765877650.910048,496
1765877650.911057,496
1765877650.9120681,496
1765877650.913064,495
1765877650.914068,495
1765877650.915076,496
1765877650.916069,495
1765877650.917074,496
1765877650.918081,495
1765877650.9190788,496
1765877650.920046,496
1765877650.92105,495
1765877650.9220421,495
1765877650.9230468,495
1765877650.924045,496
1765877650.925036,496
1765877650.926027,496
1765877650.927053,495
1765877650.928062,496
1765877650.929048,496
1765877650.930099,496
1765877650.9311202,496
1765877650.932159,495
1765877650.933124,496
1765877650.9341161,496
1765877650.935123,495
1765877650.9361038,496
1765877650.93715,496
1765877650.9381409,495
1765877650.939125,495
1765877650.940127,496
1765877650.941097,496
1765877650.9421382,496
1765877650.943151,496
1765877650.944125,496
1765877650.945133,495
1765877650.946111,495
1765877650.947113,495
1765877650.948137,495
1765877650.949127,496
1765877650.9501598,495
1765877650.951159,496
1765877650.9521651,496
1765877650.9531431,495
1765877650.954131,496
1765877650.955164,496
1765877650.9561641,496
1765877650.957196,496
1765877650.958147,496
1765877650.959179,496
1765877650.960188,496
1765877650.961194,496
1765877650.962198,496
1765877650.963201,496
1765877650.964194,496
1765877650.965188,496
1765877650.966162,496
1765877650.9671612,496
1765877650.968173,496
1765877650.9691699,496
1765877650.97017,496
1765877650.971206,496
1765877650.972211,496
1765877650.973223,496
1765877650.974189,496
1765877650.975223,496
1765877650.976223,496
1765877650.977232,496
1765877650.978205,496
1765877650.979201,496
1765877650.980195,496
1765877650.981233,496
1765877650.982274,495
1765877650.9832609,496
1765877650.9842381,496
1765877650.9852328,496
1765877650.986217,496
1765877650.987227,496
1765877650.988232,496
1765877650.989244,496
1765877650.9902349,496
1765877650.991252,496
1765877650.992257,496
1765877650.993258,496
1765877650.994266,496
1765877650.995244,496
1765877650.996254,496
1765877650.997262,496
1765877650.9982662,496
1765877650.999359,496
1765877651.000293,496
1765877651.001281,496
1765877651.002264,496
1765877651.003274,496
1765877651.0042791,496
1765877651.0053818,496
1765877651.006274,497
1765877651.0072808,496
1765877651.0082781,496
1765877651.009372,496
1765877651.010271,496
1765877651.011366,496
1765877651.012368,496
1765877651.013362,496
1765877651.0143738,496
1765877651.01536,496
1765877651.0163689,496
1765877651.017375,496
1765877651.018365,496
1765877651.019361,496
1765877651.020376,496
1765877651.0213618,496
1765877651.022362,496
1765877651.023372,496
1765877651.02437,495
1765877651.025383,496
1765877651.02639,496
1765877651.0273762,496
1765877651.028378,496
1765877651.0293891,496
1765877651.030365,496
1765877651.031363,496
1765877651.032361,496
1765877651.033364,496
1765877651.034359,496
1765877651.035369,496
1765877651.0363781,496
1765877651.0373812,496
1765877651.038379,496
1765877651.039387,496
1765877651.040404,496
1765877651.041415,496
1765877651.042392,496
1765877651.043395,496
1765877651.0443919,496
1765877651.045394,496
1765877651.046391,496
1765877651.047391,496
1765877651.048387,497
1765877651.049393,496
1765877651.0504162,496
1765877651.0514162,496
1765877651.0523899,496
1765877651.0534,496
1765877651.054404,496
1765877651.055414,496
1765877651.056426,496
1765877651.057434,496
1765877651.0584362,496
1765877651.0594401,496
1765877651.060437,496
1765877651.061433,496
1765877651.062437,496
1765877651.063445,496
1765877651.0644422,496
1765877651.065444,496
1765877651.0664499,496
1765877651.067444,497
1765877651.0684521,496
1765877651.069452,496
1765877651.070467,496
1765877651.0714738,496
1765877651.072472,497
1765877651.073461,497
1765877651.0744598,497
1765877651.075458,496
1765877651.076467,496
1765877651.077482,497
1765877651.078484,497
1765877651.0794911,498
1765877651.0804942,502
1765877651.081495,504
1765877651.0825331,506
1765877651.0835168,506
1765877651.084512,504
1765877651.0854988,500
1765877651.086519,494
1765877651.087508,491
1765877651.0885062,494
1765877651.089514,496
1765877651.090515,495
1765877651.0915232,495
1765877651.092522,494
1765877651.093546,494
1765877651.094529,494
1765877651.095547,495
1765877651.096538,495
1765877651.097535,495
1765877651.0985339,495
1765877651.099555,495
1765877651.100543,496
1765877651.101551,495
1765877651.1025522,495
1765877651.1035688,496
1765877651.1045609,495
1765877651.105555,496
1765877651.106575,496
1765877651.1075652,497
1765877651.108576,497
1765877651.109579,497
1765877651.110591,498
1765877651.11158,497
1765877651.112576,496
1765877651.1135821,496
1765877651.11459,496
1765877651.115586,496
1765877651.1165838,495
1765877651.117601,495
1765877651.118599,495
1765877651.119614,496
1765877651.120613,495
1765877651.121633,495
1765877651.122619,495
1765877651.1236138,495
1765877651.12462,496
1765877651.125622,495
1765877651.126615,497
1765877651.127618,498
1765877651.1286259,499
1765877651.1296158,500
1765877651.130628,500
1765877651.1316469,499
1765877651.132649,497
1765877651.133643,495
1765877651.134651,493
1765877651.1356559,494
1765877651.136651,495
1765877651.1376488,495
1765877651.1386619,495
1765877651.139651,496
1765877651.140652,496
1765877651.141662,496
1765877651.1426601,498
1765877651.143666,499
1765877651.1446662,500
1765877651.145665,500
1765877651.14666,501
1765877651.1476579,499
1765877651.148681,496
1765877651.1496809,494
1765877651.1506839,498
1765877651.1516852,498
1765877651.1526809,498
1765877651.153703,499
1765877651.154698,501
1765877651.1556962,504
1765877651.156681,503
1765877651.15769,505
1765877651.158699,503
1765877651.159701,496
1765877651.1607108,495
1765877651.1617038,493
1765877651.16271,495
1765877651.163719,497
1765877651.1647308,496
1765877651.165796,497
1765877651.166754,498
1765877651.167745,502
1765877651.168732,504
1765877651.169738,505
1765877651.170741,505
1765877651.171734,503
1765877651.172734,494
1765877651.173741,487
1765877651.174738,492
1765877651.175767,496
1765877651.176744,497
1765877651.177749,496
1765877651.178755,496
1765877651.179761,496
1765877651.180753,496
1765877651.181756,494
1765877651.182771,495
1765877651.183768,495
1765877651.184764,497
1765877651.1857731,497
1765877651.186775,497
1765877651.187776,496
1765877651.18878,496
1765877651.1898,494
1765877651.190803,493
1765877651.191788,494
1765877651.192802,495
1765877651.193793,496
1765877651.1948018,497
1765877651.195789,496
1765877651.1968,496
1765877651.19782,497
1765877651.19881,496
1765877651.199816,498
1765877651.20082,497
1765877651.2018209,496
1765877651.20283,495
1765877651.20381,495
1765877651.2048142,496
1765877651.2058408,496
1765877651.206846,496
1765877651.207864,496
1765877651.208839,497
1765877651.209835,497
1765877651.210829,497
1765877651.2118442,497
1765877651.212832,499
1765877651.21385,498
1765877651.2148612,503
1765877651.2158442,508
1765877651.216841,510
1765877651.217856,510
1765877651.218863,505
1765877651.219867,493
1765877651.2208698,497
1765877651.221868,495
1765877651.222879,493
1765877651.22387,491
1765877651.224873,492
1765877651.2258759,494
1765877651.226874,494
1765877651.227869,491
1765877651.22888,492
1765877651.229892,493
1765877651.2309031,492
1765877651.2318778,494
1765877651.232903,496
1765877651.23389,497
1765877651.234914,496
1765877651.2359092,495
1765877651.236912,495
1765877651.237931,492
1765877651.2389371,493
1765877651.239935,495
1765877651.2409332,496
1765877651.241933,498
1765877651.242937,496
1765877651.243926,495
1765877651.2449229,494
1765877651.245962,495
1765877651.246974,497
1765877651.247992,497
1765877651.249137,496
1765877651.250061,497
1765877651.251014,498
1765877651.252005,498
1765877651.252983,496
1765877651.253984,496
1765877651.254966,496
1765877651.2559528,496
1765877651.2569652,496
1765877651.257962,499
1765877651.258964,499
1765877651.25997,500
1765877651.260982,500
1765877651.261985,494
1765877651.2629771,491
1765877651.263979,496
1765877651.2649732,498
1765877651.2659688,499
1765877651.266976,497
1765877651.2679949,496
1765877651.268987,495
1765877651.269988,496
1765877651.2709901,496
1765877651.272031,496
1765877651.2730129,495
1765877651.274009,495
1765877651.275009,495
1765877651.276006,495
1765877651.277022,495
1765877651.278006,495
1765877651.2790139,495
1765877651.280053,495
1765877651.281045,495
1765877651.282043,495
1765877651.2830489,495
1765877651.2840362,496
1765877651.285034,496
1765877651.286041,496
1765877651.287054,496
1765877651.2880828,496
1765877651.289072,496
1765877651.290058,497
1765877651.291151,496
1765877651.292105,496
1765877651.293088,496
1765877651.294091,498
1765877651.295072,499
1765877651.296082,499
1765877651.297055,497
1765877651.298065,496
1765877651.299068,496
1765877651.300076,497
1765877651.30108,495
1765877651.30208,495
1765877651.303112,496
1765877651.304149,496
1765877651.305106,495
1765877651.306093,495
1765877651.3070998,497
1765877651.308108,497
1765877651.3091059,497
1765877651.310105,497
1765877651.311108,496
1765877651.312108,495
1765877651.313109,496
1765877651.314126,498
1765877651.315135,497
1765877651.316124,498
1765877651.317137,496
1765877651.3181388,498
1765877651.319156,500
1765877651.3201559,500
1765877651.3211389,496
1765877651.322145,491
1765877651.3231392,494
1765877651.324126,496
1765877651.3251488,496
1765877651.32615,495
1765877651.32714,494
1765877651.328171,494
1765877651.329176,494
1765877651.330175,496
1765877651.3311858,495
1765877651.332182,496
1765877651.333202,496
1765877651.3342102,496
1765877651.335169,496
1765877651.3361778,496
1765877651.3371909,495
1765877651.338192,495
1765877651.3391879,495
1765877651.340193,496
1765877651.341206,496
1765877651.3421812,496
1765877651.343182,495
1765877651.344192,498
1765877651.3452,501
1765877651.3462138,501
1765877651.34721,499
1765877651.348206,499
1765877651.349211,492
1765877651.350209,493
1765877651.3512268,496
1765877651.352232,495
1765877651.3532002,495
1765877651.35423,493
1765877651.355228,494
1765877651.356229,495
1765877651.357239,495
1765877651.35824,495
1765877651.359241,495
1765877651.360245,495
1765877651.361247,496
1765877651.362247,496
1765877651.3632472,497
1765877651.3642461,498
1765877651.365257,498
1765877651.366264,497
1765877651.367262,498
1765877651.368265,500
1765877651.369267,500
1765877651.370285,495
1765877651.371295,492
1765877651.372375,495
1765877651.373288,495
1765877651.374399,495
1765877651.375395,494
1765877651.3763862,495
1765877651.3773718,494
1765877651.3783739,495
1765877651.3793669,495
1765877651.380369,496
1765877651.3813848,496
1765877651.382369,496
1765877651.3833752,496
1765877651.384366,495
1765877651.38538,496
1765877651.386367,495
1765877651.387368,495
1765877651.3883672,495
1765877651.389378,496
1765877651.3903658,496
1765877651.3913689,496
1765877651.392365,496
1765877651.393364,495
1765877651.3943622,496
1765877651.3953679,496
1765877651.3963819,496
1765877651.39737,496
1765877651.3983629,496
1765877651.399371,495
1765877651.400384,495
1765877651.401375,496
1765877651.402377,496
1765877651.403372,495
1765877651.404376,496
1765877651.405369,496
1765877651.406368,495
1765877651.407368,495
1765877651.408365,495
1765877651.409398,496
1765877651.410403,495
1765877651.411401,495
1765877651.412391,496
1765877651.413405,497
1765877651.4144099,498
1765877651.415431,497
1765877651.4164622,496
1765877651.417446,496
1765877651.418433,496
1765877651.419445,496
1765877651.420458,496
1765877651.42153,494
1765877651.422466,493
1765877651.423437,495
1765877651.4244428,496
1765877651.425456,496
1765877651.426469,496
1765877651.427548,496
1765877651.42849,495
1765877651.429518,495
1765877651.430484,496
1765877651.4314601,496
1765877651.432483,496
1765877651.433467,494
1765877651.4344661,494
1765877651.43546,493
1765877651.436476,494
1765877651.437483,495
1765877651.438462,497
1765877651.439479,498
1765877651.440479,498
1765877651.441504,498
1765877651.442501,497
1765877651.4434938,494
1765877651.444486,494
1765877651.4455051,495
1765877651.446501,494
1765877651.447523,495
1765877651.4485178,495
1765877651.449507,496
1765877651.450492,495
1765877651.451496,495
1765877651.452511,495
1765877651.4535081,495
1765877651.454529,496
1765877651.455522,495
1765877651.4565089,496
1765877651.4575539,496
1765877651.458544,496
1765877651.459539,497
1765877651.460522,496
1765877651.4615319,494
1765877651.4625258,495
1765877651.463524,497
1765877651.464552,496
1765877651.465562,495
1765877651.466534,494
1765877651.467547,495
1765877651.468551,494
1765877651.469558,497
1765877651.47057,496
1765877651.471571,495
1765877651.4725492,495
1765877651.473562,495
1765877651.474581,495
1765877651.475553,496
1765877651.4765599,496
1765877651.477578,496
1765877651.478585,495
1765877651.479585,495
1765877651.4805918,496
1765877651.481591,496
1765877651.482602,496
1765877651.483579,496
1765877651.484601,496
1765877651.485614,496
1765877651.486589,495
1765877651.487596,495
1765877651.488608,496
1765877651.489614,496
1765877651.490613,495
1765877651.491612,495
1765877651.4926112,496
1765877651.493608,496
1765877651.4946089,496
1765877651.495659,495
1765877651.496672,495
1765877651.497662,494
1765877651.498666,495
1765877651.499774,495
1765877651.5006871,495
1765877651.501649,496
1765877651.502648,496
1765877651.503652,495
1765877651.504659,496
1765877651.505656,496
1765877651.506691,495
1765877651.507649,496
1765877651.508665,496
1765877651.509669,496
1765877651.510685,496
1765877651.51169,497
1765877651.512707,497
1765877651.513691,496
1765877651.514682,494
1765877651.5156841,495
1765877651.516675,496
1765877651.517693,495
1765877651.518687,496
1765877651.519687,496
1765877651.520695,496
1765877651.5216901,496
1765877651.522706,495
1765877651.523699,496
1765877651.5247529,496
1765877651.525711,496
1765877651.526718,496
1765877651.527724,496
1765877651.528725,496
1765877651.52972,496
1765877651.5307279,497
1765877651.531716,498
1765877651.532754,498
1765877651.533744,498
1765877651.5347352,498
1765877651.5357282,497
1765877651.536742,493
1765877651.537757,495
1765877651.53877,497
1765877651.5397792,497
1765877651.540792,497
1765877651.54181,497
1765877651.5427752,497
1765877651.5437849,497
1765877651.544769,496
1765877651.545769,496
1765877651.546779,496
1765877651.547785,497
1765877651.5487869,497
1765877651.5497758,497
1765877651.550784,496
1765877651.5517929,496
1765877651.552784,496
1765877651.553781,496
1765877651.554807,497
1765877651.555815,496
1765877651.5567958,496
1765877651.557821,496
1765877651.558805,497
1765877651.559833,496
1765877651.5608299,496
1765877651.561826,496
1765877651.5628228,494
1765877651.5638359,496
1765877651.56482,496
1765877651.5658271,497
1765877651.566823,496
1765877651.5678358,495
1765877651.568845,495
1765877651.569845,496
1765877651.570854,497
1765877651.5718458,497
1765877651.572839,497
1765877651.5738502,497
1765877651.5748649,495
1765877651.575872,495
1765877651.5768661,495
1765877651.5778592,497
1765877651.578874,496
1765877651.579875,497
1765877651.580894,498
1765877651.581887,498
1765877651.582915,495
1765877651.583914,495
1765877651.584895,496
1765877651.585888,496
1765877651.586889,495
1765877651.587884,495
1765877651.5888891,496
1765877651.589897,496
1765877651.590902,496
1765877651.591923,496
1765877651.592923,495
1765877651.593915,495
1765877651.594901,495
1765877651.595902,495
1765877651.596927,495
1765877651.597928,495
1765877651.598937,495
1765877651.599914,497
1765877651.6009212,499
1765877651.6019251,498
1765877651.6029298,496
1765877651.603934,493
1765877651.604946,494
1765877651.605949,496
1765877651.6069381,496
1765877651.6079419,495
1765877651.6089401,495
1765877651.609942,496
1765877651.610944,495
1765877651.611974,496
1765877651.612959,496
1765877651.613976,495
1765877651.6149702,496
1765877651.615978,496
1765877651.616972,497
1765877651.61797,495
1765877651.6189692,496
1765877651.619977,496
1765877651.620998,497
1765877651.6220071,498
1765877651.623004,496
1765877651.6240199,496
1765877651.625012,494
1765877651.626013,494
1765877651.6270132,495
1765877651.628017,495
1765877651.629022,495
1765877651.630005,494
1765877651.6310122,495
1765877651.632001,495
1765877651.633003,495
1765877651.634006,495
1765877651.6350238,495
1765877651.6360168,495
1765877651.637024,495
1765877651.638037,496
1765877651.639025,495
1765877651.6400309,496
1765877651.641021,496
1765877651.642038,496
1765877651.643035,496
1765877651.644037,496
1765877651.645036,497
1765877651.6460521,496
1765877651.647051,494
1765877651.648067,495
1765877651.649057,495
1765877651.6500711,496
1765877651.651073,495
1765877651.652073,496
1765877651.6530619,496
1765877651.6541069,497
1765877651.6550982,496
1765877651.656111,497
1765877651.657115,496
1765877651.6581151,495
1765877651.659101,496
1765877651.66011,496
1765877651.6611059,494
1765877651.662113,494
1765877651.663116,495
1765877651.6641269,495
1765877651.665151,496
1765877651.6661801,495
1765877651.6671739,495
1765877651.668166,495
1765877651.669152,495
1765877651.670154,495
1765877651.671128,495
1765877651.672121,495
1765877651.67313,495
1765877651.67413,495
1765877651.6751418,495
1765877651.67618,495
1765877651.677258,495
1765877651.678199,494
1765877651.679206,495
1765877651.680183,494
1765877651.681236,494
1765877651.682174,495
1765877651.6831849,495
1765877651.6841788,496
1765877651.685175,496
1765877651.686188,496
1765877651.6871538,494
1765877651.688163,495
1765877651.689177,494
1765877651.6901681,495
1765877651.691189,496
1765877651.692182,496
1765877651.6931698,496
1765877651.694178,496
1765877651.6951838,496
1765877651.6961799,495
1765877651.697185,497
1765877651.698211,498
1765877651.699214,498
1765877651.700206,499
1765877651.701202,499
1765877651.702208,495
1765877651.703213,495
1765877651.704211,494
1765877651.705228,495
1765877651.7062578,496
1765877651.7072902,495
1765877651.7083578,494
1765877651.709331,494
1765877651.710289,495
1765877651.7112682,494
1765877651.71228,494
1765877651.713256,495
1765877651.714245,495
1765877651.715245,495
1765877651.716254,495
1765877651.71728,495
1765877651.718247,495
1765877651.719292,494
1765877651.720292,495
1765877651.721281,495
1765877651.722273,495
1765877651.7232819,495
1765877651.724285,495
1765877651.7252731,495
1765877651.726274,495
1765877651.7272599,495
1765877651.728299,495
1765877651.729287,495
1765877651.7303019,496
1765877651.731311,496
1765877651.732398,495
1765877651.7334,495
1765877651.734397,494
1765877651.735379,494
1765877651.7363908,495
1765877651.737385,495
1765877651.738379,495
1765877651.7393768,495
1765877651.740374,495
1765877651.741397,495
1765877651.7423801,495
1765877651.743381,495
1765877651.744396,495
1765877651.745379,495
1765877651.746388,495
1765877651.747384,495
1765877651.748411,495
1765877651.7494552,495
1765877651.750459,495
1765877651.7514272,495
1765877651.7523851,496
1765877651.753408,495
1765877651.754418,495
1765877651.7554078,496
1765877651.756404,496
1765877651.757411,495
1765877651.7584279,496
1765877651.759409,496
1765877651.760433,496
1765877651.761408,496
1765877651.76241,495
1765877651.7634418,495
1765877651.7644138,495
1765877651.765402,494
1765877651.766422,493
1765877651.767416,494
1765877651.76843,494
1765877651.769412,496
1765877651.77041,497
1765877651.771429,498
1765877651.772448,500
1765877651.773469,498
1765877651.774456,495
1765877651.7754471,493
1765877651.776473,495
1765877651.777428,494
1765877651.7784371,494
1765877651.779443,493
1765877651.780434,493
1765877651.7814279,495
1765877651.782457,495
1765877651.783443,496
1765877651.784461,495
1765877651.7854788,495
1765877651.786458,494
1765877651.78747,493
1765877651.78847,494
1765877651.789637,495
1765877651.790484,495
1765877651.7915049,493
1765877651.792508,495
1765877651.793501,495
1765877651.7944682,495
1765877651.795477,495
1765877651.796513,495
1765877651.7974951,495
1765877651.798484,494
1765877651.79949,496
1765877651.8004742,495
1765877651.801478,495
1765877651.802529,495
1765877651.8034801,495
1765877651.8044841,495
1765877651.805522,495
1765877651.806488,495
1765877651.8075001,495
1765877651.8084989,495
1765877651.8095171,495
1765877651.810493,495
1765877651.811517,494
1765877651.812542,494
1765877651.8135529,495
1765877651.814539,496
1765877651.8155808,495
1765877651.816554,495
1765877651.8175519,495
1765877651.818552,495
1765877651.819548,495
1765877651.8205812,495
1765877651.821561,495
1765877651.822558,495
1765877651.823541,496
1765877651.824563,496
1765877651.825566,496
1765877651.826566,494
1765877651.827589,495
1765877651.828565,496
1765877651.82958,498
1765877651.830575,499
1765877651.831588,499
1765877651.832635,497
1765877651.833612,494
1765877651.834624,495
1765877651.835584,494
1765877651.836627,494
1765877651.837617,494
1765877651.8386052,493
1765877651.839607,494
1765877651.840641,494
1765877651.8416378,494
1765877651.842603,493
1765877651.843616,495
1765877651.844592,495
1765877651.8455942,494
1765877651.846596,494
1765877651.847605,494
1765877651.8486269,495
1765877651.8496242,495
1765877651.8506,495
1765877651.851614,494
1765877651.852606,495
1765877651.853626,495
1765877651.854623,495
1765877651.855628,494
1765877651.85664,495
