timestamp,emg_value
1765877597.553495,494
1765877597.553569,494
1765877597.553578,493
1765877597.553589,493
1765877597.553596,494
1765877597.5536032,495
1765877597.55361,495
1765877597.553617,495
1765877597.553623,497
1765877597.5536299,498
1765877597.553637,498
1765877597.553644,497
1765877597.5536509,492
1765877597.553657,493
1765877597.553664,496
1765877597.55367,496
1765877597.553677,494
1765877597.553684,494
1765877597.553694,495
1765877597.5537002,495
1765877597.5537071,495
1765877597.553714,495
1765877597.55372,495
1765877597.553727,495
1765877597.5537338,495
1765877597.5537431,494
1765877597.553752,494
1765877597.553758,496
1765877597.553765,497
1765877597.553772,498
1765877597.553778,498
1765877597.553785,500
1765877597.553791,498
1765877597.553798,495
1765877597.553805,496
1765877597.5538151,495
1765877597.553822,491
1765877597.553828,492
1765877597.553835,494
1765877597.5538418,494
1765877597.553848,494
1765877597.553855,493
1765877597.5538619,495
1765877597.5538719,495
1765877597.553878,495
1765877597.553885,496
1765877597.5538921,497
1765877597.553899,497
1765877597.553905,496
1765877597.5539122,497
1765877597.553919,495
1765877597.553945,493
1765877597.553958,495
1765877597.553965,495
1765877597.553972,494
1765877597.553979,494
1765877597.553985,494
1765877597.553992,494
1765877597.553998,495
1765877597.554005,495
1765877597.5540118,495
1765877597.554019,495
1765877597.554028,496
1765877597.554035,496
1765877597.554042,497
1765877597.554053,497
1765877597.554059,497
1765877597.554066,498
1765877597.554073,499
1765877597.55408,499
1765877597.554086,498
1765877597.5540931,490
1765877597.5541,492
1765877597.554107,495
1765877597.554113,494
1765877597.5541198,495
1765877597.5541272,495
1765877597.554141,494
1765877597.5541499,494
1765877597.554158,494
1765877597.554165,496
1765877597.5541708,495
1765877597.554178,494
1765877597.554185,493
1765877597.554191,495
1765877597.554198,494
1765877597.554205,495
1765877597.5542111,495
1765877597.554218,495
1765877597.554225,494
1765877597.554231,494
1765877597.5542378,495
1765877597.554244,496
1765877597.554253,496
1765877597.554263,497
1765877597.55427,497
1765877597.5542772,499
1765877597.554284,500
1765877597.5542898,499
1765877597.5542982,500
1765877597.554304,492
1765877597.5543108,490
1765877597.5543182,494
1765877597.554324,494
1765877597.5543308,494
1765877597.5543392,496
1765877597.554347,494
1765877597.554354,495
1765877597.554361,496
1765877597.554372,495
1765877597.554379,494
1765877597.554386,494
1765877597.554392,495
1765877597.554399,497
1765877597.554406,499
1765877597.5544121,500
1765877597.554419,499
1765877597.5544262,495
1765877597.554432,491
1765877597.5544388,493
1765877597.554446,494
1765877597.554453,494
1765877597.5544598,494
1765877597.554467,495
1765877597.554473,495
1765877597.55448,496
1765877597.554487,495
1765877597.554494,495
1765877597.554501,495
1765877597.55451,495
1765877597.554516,495
1765877597.554525,495
1765877597.554533,498
1765877597.55454,499
1765877597.5545459,499
1765877597.554553,497
1765877597.55456,494
1765877597.5545669,492
1765877597.554582,494
1765877597.554589,495
1765877597.5545962,495
1765877597.554603,496
1765877597.55461,497
1765877597.5546172,499
1765877597.554624,499
1765877597.554631,493
1765877597.5546381,492
1765877597.5546439,493
1765877597.5546508,493
1765877597.554658,493
1765877597.55467,495
1765877597.554677,495
1765877597.554684,494
1765877597.554691,495
1765877597.554698,496
1765877597.55471,495
1765877597.554718,496
1765877597.554724,497
1765877597.554733,498
1765877597.554741,497
1765877597.5547478,495
1765877597.554754,490
1765877597.554761,494
1765877597.5547678,495
1765877597.554775,495
1765877597.554785,495
1765877597.554791,495
1765877597.5547981,494
1765877597.554805,495
1765877597.5548108,495
1765877597.5548182,495
1765877597.554825,496
1765877597.554831,497
1765877597.554851,496
1765877597.554858,495
1765877597.5548742,494
1765877597.554881,495
1765877597.5548868,495
1765877597.5548968,495
1765877597.554904,495
1765877597.554911,495
1765877597.5549178,494
1765877597.554924,494
1765877597.554931,495
1765877597.55494,495
1765877597.554948,494
1765877597.554955,494
1765877597.554961,495
1765877597.554968,497
1765877597.554975,499
1765877597.5549812,499
1765877597.5549881,498
1765877597.554995,494
1765877597.555001,493
1765877597.555008,494
1765877597.5550148,495
1765877597.555022,495
1765877597.555028,495
1765877597.5550349,494
1765877597.555041,494
1765877597.555048,494
1765877597.5550551,495
1765877597.555062,496
1765877597.555069,496
1765877597.5550761,494
1765877597.555082,494
1765877597.555089,495
1765877597.5550961,495
1765877597.5551019,497
1765877597.555109,498
1765877597.555116,499
1765877597.555131,498
1765877597.555138,501
1765877597.555145,504
1765877597.555152,503
1765877597.5551622,498
1765877597.555168,497
1765877597.5551748,491
1765877597.555182,490
1765877597.555189,492
1765877597.5551958,492
1765877597.555202,491
1765877597.555209,493
1765877597.5552158,494
1765877597.555222,495
1765877597.555229,495
1765877597.555236,495
1765877597.555243,495
1765877597.555249,495
1765877597.5552561,495
1765877597.555263,494
1765877597.55527,494
1765877597.555276,495
1765877597.5552828,494
1765877597.5552902,494
1765877597.555302,495
1765877597.555309,495
1765877597.55532,495
1765877597.555327,495
1765877597.5553339,495
1765877597.555341,496
1765877597.555351,496
1765877597.555357,498
1765877597.5553641,495
1765877597.555371,496
1765877597.555378,497
1765877597.5553842,496
1765877597.555391,495
1765877597.555398,498
1765877597.5554051,498
1765877597.5554109,497
1765877597.555418,496
1765877597.555425,495
1765877597.5554318,496
1765877597.555439,497
1765877597.555445,496
1765877597.5554519,495
1765877597.555459,496
1765877597.555465,494
1765877597.555472,495
1765877597.555479,495
1765877597.555486,495
1765877597.5554922,496
1765877597.555508,498
1765877597.555516,500
1765877597.5555232,504
1765877597.5555289,506
1765877597.5555358,502
1765877597.555543,499
1765877597.5555499,489
1765877597.555556,488
1765877597.555563,493
1765877597.55557,494
1765877597.555577,493
1765877597.555587,494
1765877597.555594,493
1765877597.5556,495
1765877597.555607,495
1765877597.555614,494
1765877597.5556211,495
1765877597.555627,494
1765877597.555634,495
1765877597.5556412,494
1765877597.555648,495
1765877597.5556538,495
1765877597.555661,495
1765877597.5556679,496
1765877597.555674,498
1765877597.555681,498
1765877597.555688,495
1765877597.5557,493
1765877597.555708,495
1765877597.555718,495
1765877597.555725,496
1765877597.555732,496
1765877597.5557382,495
1765877597.5557451,495
1765877597.555752,494
1765877597.5557592,494
1765877597.555765,494
1765877597.5557718,494
1765877597.555779,494
1765877597.555786,495
1765877597.5557919,495
1765877597.555799,495
1765877597.555806,495
1765877597.555813,495
1765877597.555819,495
1765877597.555826,495
1765877597.555833,495
1765877597.555843,495
1765877597.55585,495
1765877597.555857,495
1765877597.5558631,495
1765877597.55587,495
1765877597.5558772,495
1765877597.555891,496
1765877597.555899,496
1765877597.555906,495
1765877597.555912,495
1765877597.5559192,496
1765877597.555926,496
1765877597.555933,495
1765877597.555939,496
1765877597.5559459,496
1765877597.555956,496
1765877597.5559628,494
1765877597.55597,494
1765877597.555976,494
1765877597.555983,494
1765877597.55599,494
1765877597.555996,494
1765877597.556003,495
1765877597.55601,496
1765877597.5560162,498
1765877597.5560231,498
1765877597.55603,496
1765877597.5560372,492
1765877597.556043,492
1765877597.5560498,494
1765877597.556057,494
1765877597.556064,495
1765877597.5560708,496
1765877597.5560791,496
1765877597.556087,497
1765877597.556093,495
1765877597.5561001,494
1765877597.556107,496
1765877597.556114,496
1765877597.5561202,496
1765877597.556127,499
1765877597.556134,500
1765877597.55614,498
1765877597.5561512,496
1765877597.556158,492
1765877597.5561652,493
1765877597.556171,493
1765877597.5561779,493
1765877597.556185,494
1765877597.556191,495
1765877597.556198,494
1765877597.556205,494
1765877597.556211,494
1765877597.5562181,495
1765877597.5562282,495
1765877597.556234,495
1765877597.5562408,495
1765877597.556248,495
1765877597.5562549,495
1765877597.556263,495
1765877597.556271,495
1765877597.556277,495
1765877597.556284,495
1765877597.556291,495
1765877597.556297,495
1765877597.556304,495
1765877597.5563111,495
1765877597.556318,496
1765877597.556324,496
1765877597.556331,496
1765877597.5563378,495
1765877597.556345,494
1765877597.556351,495
1765877597.5563579,496
1765877597.556365,495
1765877597.556372,496
1765877597.5563788,497
1765877597.556386,496
1765877597.556392,495
1765877597.556399,493
1765877597.556406,494
1765877597.556412,494
1765877597.5564191,495
1765877597.556426,494
1765877597.5564318,494
1765877597.556439,494
1765877597.556447,495
1765877597.556455,495
1765877597.556461,494
1765877597.556468,495
1765877597.556475,496
1765877597.556482,497
1765877597.556488,497
1765877597.5564952,498
1765877597.556502,497
1765877597.556509,494
1765877597.556515,495
1765877597.556522,496
1765877597.5565288,494
1765877597.556535,494
1765877597.556542,493
1765877597.556549,494
1765877597.556556,495
1765877597.556562,494
1765877597.556569,494
1765877597.556576,495
1765877597.556583,495
1765877597.55659,494
1765877597.556596,495
1765877597.556603,496
1765877597.55661,495
1765877597.5566158,495
1765877597.5566232,495
1765877597.5566342,495
1765877597.55664,495
1765877597.5566468,495
1765877597.556654,495
1765877597.556661,495
1765877597.5566669,496
1765877597.556674,495
1765877597.556681,495
1765877597.556687,495
1765877597.556694,495
1765877597.556701,495
1765877597.5567071,495
1765877597.556714,494
1765877597.556721,494
1765877597.556727,494
1765877597.5567338,495
1765877597.5567412,495
1765877597.556747,495
1765877597.5567539,495
1765877597.556761,495
1765877597.556768,495
1765877597.5567749,495
1765877597.556781,495
1765877597.556788,496
1765877597.556795,495
1765877597.556801,495
1765877597.55681,495
1765877597.5568168,495
1765877597.5568252,495
1765877597.556841,496
1765877597.5568562,496
1765877597.556872,495
1765877597.5568871,495
1765877597.556903,495
1765877597.556919,495
1765877597.5569339,495
1765877597.55695,495
1765877597.556965,495
1765877597.55698,496
1765877597.556996,495
1765877597.557011,496
1765877597.5570261,496
1765877597.557042,496
1765877597.557058,495
1765877597.557075,495
1765877597.5570822,495
1765877597.557089,495
1765877597.5570948,495
1765877597.557102,495
1765877597.5571089,496
1765877597.5571158,495
1765877597.557122,495
1765877597.557132,495
1765877597.557141,495
1765877597.557148,495
1765877597.5571551,494
1765877597.5571609,495
1765877597.5571682,495
1765877597.557175,495
1765877597.557181,495
1765877597.557188,495
1765877597.557195,495
1765877597.557201,495
1765877597.557208,495
1765877597.557215,496
1765877597.5572212,495
1765877597.557228,495
1765877597.557235,495
1765877597.5572412,495
1765877597.557248,495
1765877597.557255,495
1765877597.557261,495
1765877597.557268,495
1765877597.5572748,496
1765877597.557281,495
1765877597.557288,495
1765877597.557295,495
1765877597.557302,496
1765877597.557309,495
1765877597.557317,495
1765877597.5573251,495
1765877597.5573308,494
1765877597.557338,496
1765877597.557345,495
1765877597.5573518,495
1765877597.557358,495
1765877597.557365,495
1765877597.557371,495
1765877597.557378,495
1765877597.557385,495
1765877597.5573912,495
1765877597.557398,495
1765877597.557405,496
1765877597.557411,496
1765877597.5574179,495
1765877597.5574248,495
1765877597.557431,495
1765877597.557438,494
1765877597.557445,495
1765877597.557452,494
1765877597.557458,495
1765877597.557465,495
1765877597.557472,495
1765877597.557478,495
1765877597.557485,496
1765877597.557492,495
1765877597.5575,495
1765877597.557508,495
1765877597.557515,495
1765877597.5575209,495
1765877597.557528,496
1765877597.557535,495
1765877597.5575418,495
1765877597.557549,495
1765877597.557556,494
1765877597.557562,495
1765877597.557569,496
1765877597.557576,495
1765877597.557583,495
1765877597.55759,495
1765877597.557597,495
1765877597.557604,495
1765877597.557611,495
1765877597.557617,495
1765877597.557624,496
1765877597.557631,495
1765877597.5576372,495
1765877597.5576441,495
1765877597.557651,494
1765877597.557657,495
1765877597.557664,495
1765877597.5576708,495
1765877597.557683,495
1765877597.5576909,495
1765877597.557704,496
1765877597.557724,495
1765877597.5577412,495
1765877597.557757,495
1765877597.557771,495
1765877597.557778,495
1765877597.557784,495
1765877597.5577989,495
1765877597.5578072,495
1765877597.5578141,495
1765877597.557821,495
1765877597.557827,495
1765877597.557834,495
1765877597.5578408,495
1765877597.5578508,495
1765877597.557858,495
1765877597.557865,495
1765877597.557872,495
1765877597.557879,495
1765877597.557886,495
1765877597.557893,495
1765877597.5579,495
1765877597.5579069,495
1765877597.557913,495
1765877597.55792,495
1765877597.5579278,495
1765877597.5579362,495
1765877597.557943,495
1765877597.55795,495
1765877597.5579572,495
1765877597.557963,495
1765877597.5579698,494
1765877597.5579772,494
1765877597.557983,495
1765877597.5579898,495
1765877597.557997,495
1765877597.558004,495
1765877597.5580292,495
1765877597.558041,495
1765877597.558048,495
1765877597.558054,495
1765877597.5580611,495
1765877597.558068,494
1765877597.558074,495
1765877597.558081,495
1765877597.5580878,495
1765877597.558094,495
1765877597.558101,495
1765877597.5581079,495
1765877597.558114,495
1765877597.558121,496
1765877597.558128,496
1765877597.5581372,496
1765877597.558144,496
1765877597.558151,496
1765877597.558157,496
1765877597.558164,496
1765877597.5581708,497
1765877597.558177,496
1765877597.558184,496
1765877597.558191,497
1765877597.558198,496
1765877597.558204,496
1765877597.558211,496
1765877597.558218,496
1765877597.558224,496
1765877597.558231,496
1765877597.5582368,496
1765877597.558244,497
1765877597.558251,495
1765877597.5582578,496
1765877597.558264,496
1765877597.558271,495
1765877597.5582778,495
1765877597.558284,495
1765877597.558291,495
1765877597.558298,495
1765877597.558304,495
1765877597.558313,495
1765877597.558321,496
1765877597.558327,495
1765877597.5583339,495
1765877597.55834,496
1765877597.558347,495
1765877597.558354,495
1765877597.558361,495
1765877597.558367,495
1765877597.558374,496
1765877597.558387,495
1765877597.558402,495
1765877597.558418,495
1765877597.558433,495
1765877597.558448,495
1765877597.5584629,495
1765877597.558479,495
1765877597.5584939,495
1765877597.558509,495
1765877597.5585248,495
1765877597.55854,495
1765877597.558555,495
1765877597.55857,495
1765877597.5585852,494
1765877597.558601,495
1765877597.5586162,495
1765877597.558631,495
1765877597.55865,495
1765877597.558665,495
1765877597.55868,495
1765877597.5586948,495
1765877597.558711,495
1765877597.5587258,495
1765877597.558741,495
1765877597.558756,495
1765877597.558772,495
1765877597.558787,495
1765877597.558802,495
1765877597.558818,495
1765877597.558833,495
1765877597.558848,495
1765877597.5588632,495
1765877597.558879,496
1765877597.5588942,495
1765877597.558914,495
1765877597.55893,495
1765877597.558945,495
1765877597.558955,495
1765877597.5589619,495
1765877597.558969,495
1765877597.558975,495
1765877597.558982,494
1765877597.558989,495
1765877597.558997,495
1765877597.559005,495
1765877597.559011,495
1765877597.559018,494
1765877597.559024,495
1765877597.559031,495
1765877597.559038,495
1765877597.5590441,495
1765877597.559051,495
1765877597.559058,495
1765877597.559065,495
1765877597.559072,496
1765877597.559078,496
1765877597.5590851,496
1765877597.559092,495
1765877597.559098,494
1765877597.559105,495
1765877597.5591109,494
1765877597.559118,494
1765877597.559125,495
1765877597.559131,494
1765877597.559138,494
1765877597.559145,494
1765877597.5591512,494
1765877597.559158,495
1765877597.5591638,495
1765877597.559171,495
1765877597.55918,494
1765877597.559187,494
1765877597.559194,494
1765877597.5592,494
1765877597.559207,494
1765877597.559214,495
1765877597.55922,495
1765877597.559227,494
1765877597.5592341,495
1765877597.5592399,494
1765877597.559247,495
1765877597.559254,495
1765877597.55926,495
1765877597.559267,495
1765877597.559273,495
1765877597.5592802,494
1765877597.559287,495
1765877597.559293,495
1765877597.5593002,495
1765877597.559307,495
1765877597.5593128,495
1765877597.55932,495
1765877597.559327,495
1765877597.5593338,495
1765877597.55934,495
1765877597.559347,495
1765877597.5593548,495
1765877597.5593631,494
1765877597.55937,493
1765877597.559377,494
1765877597.5593832,495
1765877597.55939,495
1765877597.5593972,495
1765877597.559403,495
1765877597.5594099,495
1765877597.559417,494
1765877597.559423,495
1765877597.55943,495
1765877597.559437,494
1765877597.559443,495
1765877597.5594501,494
1765877597.559457,496
1765877597.559463,495
1765877597.5594702,495
1765877597.559477,495
1765877597.559484,495
1765877597.55949,495
1765877597.5594969,494
1765877597.5595038,494
1765877597.55951,495
1765877597.559517,494
1765877597.559524,495
1765877597.55953,495
1765877597.559538,495
1765877597.559546,495
1765877597.559553,494
1765877597.5595589,495
1765877597.559566,494
1765877597.559573,494
1765877597.559579,494
1765877597.559586,494
1765877597.559593,495
1765877597.5595992,495
1765877597.559606,494
1765877597.559613,495
1765877597.5596192,495
1765877597.559626,495
1765877597.5596328,495
1765877597.5596402,495
1765877597.559646,495
1765877597.559653,495
1765877597.55966,495
1765877597.559666,494
1765877597.559673,494
1765877597.55968,495
1765877597.559687,495
1765877597.559693,494
1765877597.5597,495
1765877597.5597062,495
1765877597.559715,495
1765877597.559722,495
1765877597.5597289,495
1765877597.559735,494
1765877597.559742,495
1765877597.5597491,495
1765877597.559755,494
1765877597.559762,495
1765877597.5597692,495
1765877597.5597749,495
1765877597.5597818,495
1765877597.559789,495
1765877597.559795,496
1765877597.559802,495
1765877597.559808,495
1765877597.559815,495
1765877597.559822,496
1765877597.559829,495
1765877597.559835,495
1765877597.559842,494
1765877597.559849,494
1765877597.5598562,494
1765877597.559863,494
1765877597.55987,495
1765877597.5598772,495
1765877597.559883,494
1765877597.55989,495
1765877597.5598989,495
1765877597.559906,495
1765877597.559913,494
1765877597.5599492,495
1765877597.559958,495
1765877597.559965,495
1765877597.559972,495
1765877597.559979,496
1765877597.5599859,495
1765877597.559993,495
1765877597.559999,495
1765877597.560006,495
1765877597.560013,495
1765877597.560051,495
1765877597.5600598,494
1765877597.5600672,495
1765877597.560074,495
1765877597.560082,495
1765877597.5600882,494
1765877597.560095,495
1765877597.560121,495
1765877597.560128,495
1765877597.560135,495
1765877597.560142,495
1765877597.560149,495
1765877597.560155,494
1765877597.560162,495
1765877597.560171,494
1765877597.560179,495
1765877597.5601861,495
1765877597.560192,495
1765877597.560199,495
1765877597.5602062,495
1765877597.560213,495
1765877597.56022,495
1765877597.5602272,495
1765877597.560234,496
1765877597.56024,496
1765877597.560247,496
1765877597.5602539,496
1765877597.560261,496
1765877597.560268,496
1765877597.5602748,495
1765877597.5602822,495
1765877597.560288,495
1765877597.5602949,495
1765877597.560302,495
1765877597.560309,494
1765877597.5603158,494
1765877597.560323,494
1765877597.56033,494
1765877597.5603368,494
1765877597.560344,495
1765877597.560352,495
1765877597.560359,495
1765877597.5603662,495
1765877597.560373,494
1765877597.56038,495
1765877597.560386,495
1765877597.5603929,495
1765877597.5603998,496
1765877597.560407,496
1765877597.560413,496
1765877597.56042,496
1765877597.560427,496
1765877597.5604339,495
1765877597.560441,494
1765877597.560448,494
1765877597.5604548,495
1765877597.560461,495
1765877597.560468,495
1765877597.5604749,496
1765877597.560481,495
1765877597.560488,495
1765877597.5604951,495
1765877597.560502,495
1765877597.560509,495
1765877597.560516,495
1765877597.560522,494
1765877597.560529,494
1765877597.560538,494
1765877597.5605462,495
1765877597.560552,495
1765877597.560559,495
1765877597.560566,495
1765877597.5605729,495
1765877597.560579,496
1765877597.560586,497
1765877597.560593,498
1765877597.5606,497
1765877597.560606,497
1765877597.5606132,495
1765877597.56062,495
1765877597.560627,495
1765877597.5606341,495
1765877597.56064,495
1765877597.560647,494
1765877597.5606542,494
1765877597.560661,494
1765877597.560668,494
1765877597.5606751,495
1765877597.5606809,494
1765877597.560688,496
1765877597.560695,495
1765877597.5607018,495
1765877597.560708,496
1765877597.560717,496
1765877597.560724,495
1765877597.560731,495
1765877597.560738,494
1765877597.560745,495
1765877597.5607522,495
1765877597.560758,494
1765877597.560765,495
1765877597.5607722,495
1765877597.560779,495
1765877597.560786,494
1765877597.5607932,495
1765877597.560799,495
1765877597.5608058,495
1765877597.560813,495
1765877597.5608199,495
1765877597.560826,496
1765877597.560833,495
1765877597.56084,496
1765877597.560846,495
1765877597.560853,496
1765877597.56086,495
1765877597.560867,495
1765877597.560874,496
1765877597.560881,496
1765877597.560887,495
1765877597.560894,495
1765877597.5609028,495
1765877597.560916,495
1765877597.5609229,496
1765877597.560929,496
1765877597.560936,497
1765877597.5609431,498
1765877597.56095,498
1765877597.560957,498
1765877597.560964,498
1765877597.560971,498
1765877597.560977,497
1765877597.5609841,497
1765877597.560991,495
1765877597.560998,494
1765877597.561004,493
1765877597.561012,492
1765877597.561019,492
1765877597.561026,493
1765877597.561033,495
1765877597.56104,496
1765877597.561047,496
1765877597.561053,496
1765877597.5610602,497
1765877597.561068,496
1765877597.561075,496
1765877597.5610821,497
1765877597.5610912,496
1765877597.561099,496
1765877597.561106,497
1765877597.561114,496
1765877597.561121,497
1765877597.561128,497
1765877597.561135,498
1765877597.561142,497
1765877597.561149,497
1765877597.561156,495
1765877597.561163,495
1765877597.5611699,494
1765877597.561177,495
1765877597.5611851,496
1765877597.561192,495
1765877597.5611992,495
1765877597.561206,496
1765877597.561213,496
1765877597.5612202,497
1765877597.561227,496
1765877597.561234,496
1765877597.5612411,496
1765877597.561249,496
1765877597.561256,496
1765877597.561263,496
1765877597.56127,497
1765877597.561277,497
1765877597.561286,497
1765877597.561295,496
1765877597.561302,495
1765877597.5613089,494
1765877597.561316,495
1765877597.5613241,496
1765877597.561331,495
1765877597.5613382,496
1765877597.561345,495
1765877597.561352,495
1765877597.5613592,495
1765877597.561366,495
1765877597.561374,495
1765877597.561381,495
1765877597.561388,495
1765877597.561395,495
1765877597.561402,496
1765877597.561409,495
1765877597.561416,495
1765877597.561423,496
1765877597.561431,496
1765877597.5614378,495
1765877597.5614452,495
1765877597.5614522,495
1765877597.5614588,495
1765877597.5614662,495
1765877597.561475,495
1765877597.561484,495
1765877597.561491,496
1765877597.5614982,495
1765877597.561506,495
1765877597.561513,495
1765877597.56152,495
1765877597.561528,496
1765877597.561535,496
1765877597.5615418,495
1765877597.5615501,496
1765877597.561557,495
1765877597.561564,496
1765877597.5615711,495
1765877597.561578,496
1765877597.561586,495
1765877597.561593,495
1765877597.5616,495
1765877597.561607,496
1765877597.561614,497
1765877597.561621,497
1765877597.5616279,497
1765877597.5616362,495
1765877597.5616431,494
1765877597.56165,495
1765877597.5616572,495
1765877597.561664,495
1765877597.561673,495
1765877597.561682,495
1765877597.5616891,495
1765877597.561696,495
1765877597.561703,495
1765877597.5617101,495
1765877597.561717,495
1765877597.561724,495
1765877597.561731,495
1765877597.561739,495
1765877597.561746,495
1765877597.561753,495
1765877597.56176,495
1765877597.5617669,496
1765877597.561774,496
1765877597.561781,495
1765877597.5617878,495
1765877597.561795,495
1765877597.561802,495
1765877597.56181,496
1765877597.5618172,495
1765877597.561824,495
1765877597.561831,495
1765877597.5618382,496
1765877597.561845,496
1765877597.561852,495
1765877597.56186,496
1765877597.5618691,495
1765877597.561876,495
1765877597.561883,495
1765877597.5618901,495
1765877597.561898,495
1765877597.561905,495
1765877597.561912,495
1765877597.561919,496
1765877597.561926,496
1765877597.561933,495
1765877597.56194,496
1765877597.5619469,496
1765877597.561954,496
1765877597.561962,495
1765877597.5619688,495
1765877597.561976,495
1765877597.5619829,495
1765877597.5619898,496
1765877597.561997,496
1765877597.5620039,495
1765877597.5620108,496
1765877597.562019,495
1765877597.562026,495
1765877597.562033,496
1765877597.56204,495
1765877597.562048,496
1765877597.562057,495
1765877597.5620658,495
1765877597.562073,495
1765877597.56208,496
1765877597.5620868,496
1765877597.562094,496
1765877597.562101,495
1765877597.562109,496
1765877597.5621161,496
1765877597.562123,496
1765877597.56213,495
1765877597.5621371,495
1765877597.562144,495
1765877597.562151,495
1765877597.562158,495
1765877597.562166,495
1765877597.562173,495
1765877597.56218,496
1765877597.562187,496
1765877597.5621939,495
1765877597.562201,495
1765877597.562208,496
1765877597.562216,495
1765877597.5622232,495
1765877597.56223,496
1765877597.562237,495
1765877597.5622442,495
1765877597.562253,495
1765877597.562261,495
1765877597.562268,495
1765877597.5622752,495
1765877597.562282,495
1765877597.562289,495
1765877597.5622962,495
1765877597.562303,496
1765877597.56231,495
1765877597.562318,496
1765877597.562325,495
1765877597.562332,495
1765877597.562339,495
1765877597.562346,495
1765877597.562353,495
1765877597.56236,495
1765877597.562367,495
1765877597.5623739,496
1765877597.562382,495
1765877597.562389,495
1765877597.5623958,495
1765877597.562403,496
1765877597.5624099,496
1765877597.5624168,495
1765877597.5624242,495
1765877597.5624309,495
1765877597.56244,495
1765877597.562449,495
1765877597.5624561,495
1765877597.562463,495
1765877597.56247,495
1765877597.562478,495
1765877597.562485,495
1765877597.562492,496
1765877597.562499,496
1765877597.562506,496
1765877597.5625129,496
1765877597.56252,496
1765877597.562527,496
1765877597.5625339,496
1765877597.562542,496
1765877597.5625489,495
1765877597.5625558,496
1765877597.5625641,495
1765877597.562571,496
1765877597.562578,495
1765877597.562585,495
1765877597.562592,495
1765877597.562599,495
1765877597.562607,496
1765877597.562614,496
1765877597.5626209,496
1765877597.562628,496
1765877597.562637,496
1765877597.562645,495
1765877597.5626519,495
1765877597.562659,495
1765877597.562666,496
1765877597.5626729,496
1765877597.5626812,496
1765877597.562688,496
1765877597.562695,495
1765877597.5627022,495
1765877597.562709,495
1765877597.562716,495
1765877597.5627232,496
1765877597.56273,495
1765877597.562738,496
1765877597.562745,496
1765877597.562752,495
1765877597.562759,496
1765877597.562767,495
1765877597.562774,495
1765877597.562782,495
1765877597.5627892,495
1765877597.562796,495
1765877597.562803,496
1765877597.5628102,495
1765877597.562817,496
1765877597.562826,495
1765877597.562834,496
1765877597.5628421,496
1765877597.562849,496
1765877597.562856,495
1765877597.562863,495
1765877597.56287,496
1765877597.562878,496
1765877597.562885,496
1765877597.562892,495
1765877597.5628989,495
1765877597.562907,496
1765877597.5629141,495
1765877597.562921,495
1765877597.5629282,496
1765877597.562935,495
1765877597.562942,495
1765877597.5629492,496
1765877597.562956,495
1765877597.562964,495
1765877597.5629709,495
1765877597.562978,496
1765877597.562985,495
1765877597.562992,496
1765877597.563,495
1765877597.5630069,495
1765877597.5630138,495
1765877597.563023,495
1765877597.5630322,495
1765877597.563039,496
1765877597.563046,495
1765877597.5630531,495
1765877597.56306,495
1765877597.563067,495
1765877597.563075,495
1765877597.563082,495
1765877597.563089,495
1765877597.563096,495
1765877597.563104,495
1765877597.5631108,495
1765877597.563118,495
1765877597.563125,495
1765877597.5631318,496
1765877597.563139,495
1765877597.5631459,496
1765877597.563154,496
1765877597.5631611,495
1765877597.563168,496
1765877597.563175,495
1765877597.563182,495
1765877597.563189,495
1765877597.563197,495
1765877597.563204,495
1765877597.563213,495
1765877597.563222,495
1765877597.5632288,495
1765877597.563236,496
1765877597.563243,495
1765877597.5632498,496
1765877597.563257,496
1765877597.563264,495
1765877597.563272,495
1765877597.5632792,495
1765877597.563286,495
1765877597.563293,495
1765877597.5633001,495
1765877597.563307,495
1765877597.563315,495
1765877597.563322,496
1765877597.563329,495
1765877597.563336,495
1765877597.563343,495
1765877597.56335,495
1765877597.563358,495
1765877597.5633652,495
1765877597.5633721,495
1765877597.563379,496
1765877597.5633862,496
1765877597.563393,496
1765877597.5634,496
1765877597.5634089,495
1765877597.5634172,495
1765877597.563424,495
1765877597.563431,495
1765877597.5634382,495
1765877597.563445,495
1765877597.563453,496
1765877597.56352,495
1765877597.563536,495
1765877597.563549,495
1765877597.563562,496
1765877597.563574,496
1765877597.563586,495
1765877597.5635982,495
1765877597.56361,495
1765877597.563622,495
1765877597.563636,495
1765877597.563648,495
1765877597.563663,495
1765877597.5636759,496
1765877597.563688,496
1765877597.5637,496
1765877597.563712,496
1765877597.563724,495
1765877597.563736,495
1765877597.5637481,495
1765877597.56376,495
1765877597.5637782,495
1765877597.563791,496
1765877597.563803,495
1765877597.5638149,496
1765877597.563827,496
1765877597.563839,496
1765877597.563851,496
1765877597.563863,497
1765877597.563875,497
1765877597.5638871,497
1765877597.5638988,496
1765877597.563911,497
1765877597.563923,497
1765877597.563936,497
1765877597.56395,497
1765877597.5639622,497
1765877597.563974,497
1765877597.563988,497
1765877597.564002,497
1765877597.5640152,497
1765877597.5640268,497
1765877597.5640461,497
1765877597.564065,496
1765877597.564079,496
1765877597.5640929,496
1765877597.564105,496
1765877597.5641248,495
1765877597.56414,496
1765877597.5641541,496
1765877597.5641742,496
1765877597.564199,496
1765877597.564211,495
1765877597.564224,495
1765877597.564236,496
1765877597.564249,495
1765877597.5642722,495
1765877597.564309,495
1765877597.564329,496
1765877597.564342,496
1765877597.5643551,496
1765877597.5643678,496
1765877597.564395,495
1765877597.564407,495
1765877597.564419,495
1765877597.564432,494
1765877597.5644438,494
1765877597.564456,495
1765877597.564468,495
1765877597.56448,495
1765877597.564492,495
1765877597.5645041,495
1765877597.564516,495
1765877597.5645308,495
1765877597.564544,495
1765877597.5645561,495
1765877597.564568,494
1765877597.5645802,494
1765877597.5645921,494
1765877597.5646038,495
1765877597.564616,494
1765877597.564628,494
1765877597.56464,494
1765877597.564652,494
1765877597.5646641,494
1765877597.564676,494
1765877597.564688,494
1765877597.5647,494
1765877597.564715,494
1765877597.564728,494
1765877597.5647402,494
1765877597.5647519,494
1765877597.564764,494
1765877597.564776,494
1765877597.5647879,494
1765877597.5648,494
1765877597.564835,494
1765877597.564847,493
1765877597.564866,494
1765877597.564919,494
1765877597.564938,494
1765877597.564953,494
1765877597.564967,493
1765877597.5649831,494
1765877597.5649972,494
1765877597.565011,494
1765877597.5650299,494
1765877597.565042,493
1765877597.565054,494
1765877597.565074,494
1765877597.565086,494
1765877597.5651,493
1765877597.565115,494
1765877597.565126,494
1765877597.565145,494
1765877597.5651572,493
1765877597.5651681,494
1765877597.5651798,494
1765877597.565191,494
1765877597.565203,494
1765877597.5652149,494
1765877597.565226,494
1765877597.565241,494
1765877597.565252,493
1765877597.565264,493
1765877597.565283,493
1765877597.5652978,492
1765877597.565314,493
1765877597.5653272,493
1765877597.5653389,494
1765877597.565353,493
1765877597.565365,493
1765877597.565376,494
1765877597.565388,493
1765877597.565402,493
1765877597.5654159,493
1765877597.565428,494
1765877597.565439,493
1765877597.565456,493
1765877597.5654678,493
1765877597.565481,493
1765877597.565496,493
1765877597.5655098,493
1765877597.5655239,494
1765877597.565535,493
1765877597.565547,493
1765877597.565558,493
1765877597.56557,493
1765877597.565582,492
1765877597.565593,493
1765877597.5656052,493
1765877597.565621,494
1765877597.565635,493
1765877597.56565,493
1765877597.5656629,493
1765877597.565684,493
1765877597.565699,493
1765877597.565714,493
1765877597.565728,493
1765877597.56574,493
1765877597.565752,493
1765877597.565763,493
1765877597.5657752,493
1765877597.5657868,492
1765877597.565799,492
1765877597.56581,493
1765877597.565822,493
1765877597.565834,493
1765877597.565849,493
1765877597.565862,493
1765877597.565875,493
1765877597.565887,493
1765877597.565899,493
1765877597.565911,493
1765877597.565923,493
1765877597.5659351,493
1765877597.565948,493
1765877597.565962,493
1765877597.565975,493
1765877597.565988,493
1765877597.5660002,493
1765877597.566011,493
1765877597.5660229,494
1765877597.566035,493
1765877597.566047,493
1765877597.566059,493
1765877597.566072,492
1765877597.5660858,493
1765877597.566099,493
1765877597.566111,493
1765877597.566124,493
1765877597.566138,493
1765877597.56615,493
1765877597.5661619,493
1765877597.566175,493
1765877597.566187,493
1765877597.566199,493
1765877597.566211,494
1765877597.5662231,493
1765877597.566236,493
1765877597.566249,494
1765877597.566261,493
1765877597.5662751,493
1765877597.56629,493
1765877597.566304,493
1765877597.566318,493
1765877597.5663328,493
1765877597.5663471,493
1765877597.5663612,493
1765877597.566373,493
1765877597.566387,493
1765877597.566401,492
1765877597.566415,493
1765877597.566427,493
1765877597.5664399,493
1765877597.566454,493
1765877597.566466,492
1765877597.5664792,492
1765877597.5664918,492
1765877597.566505,493
1765877597.5665169,493
1765877597.566529,493
1765877597.5665421,493
1765877597.5665548,493
1765877597.566567,492
1765877597.5665789,493
1765877597.566591,492
1765877597.566608,493
1765877597.5666208,493
1765877597.566637,493
1765877597.5666502,492
1765877597.566664,492
1765877597.566678,492
1765877597.566693,493
1765877597.566706,493
1765877597.566719,493
1765877597.5667331,493
1765877597.566747,494
1765877597.566761,493
1765877597.566773,493
1765877597.566785,492
1765877597.566796,493
1765877597.566808,492
1765877597.5668201,493
1765877597.566832,493
1765877597.566844,493
1765877597.566855,493
1765877597.5668669,493
1765877597.566879,493
1765877597.566891,493
1765877597.566903,493
1765877597.5669172,493
1765877597.5669289,493
1765877597.566941,493
1765877597.566954,493
1765877597.566968,493
1765877597.566983,493
1765877597.5669959,493
1765877597.567009,493
1765877597.5670211,493
1765877597.567033,493
1765877597.5670452,493
1765877597.567057,493
1765877597.5670688,493
1765877597.567082,493
1765877597.567096,493
1765877597.567109,493
1765877597.567122,493
1765877597.567134,493
1765877597.567146,493
1765877597.567158,493
1765877597.5671701,493
1765877597.567182,493
1765877597.5671942,493
1765877597.567209,493
1765877597.567221,493
1765877597.567233,494
1765877597.567245,493
1765877597.5672572,494
1765877597.567269,493
1765877597.567285,493
1765877597.5672991,493
1765877597.567314,493
1765877597.567326,493
1765877597.567338,493
1765877597.567351,493
1765877597.567363,493
1765877597.5673752,493
1765877597.5673869,493
1765877597.567399,493
1765877597.567414,493
1765877597.567426,493
1765877597.5674381,493
1765877597.56745,493
1765877597.567462,494
1765877597.567474,494
1765877597.567486,493
1765877597.567498,494
1765877597.5675101,494
1765877597.567522,494
1765877597.5675352,494
1765877597.5675468,493
1765877597.567559,493
1765877597.567573,493
1765877597.5675871,493
1765877597.567599,494
1765877597.567611,493
1765877597.567625,494
1765877597.56764,494
1765877597.567654,494
1765877597.567669,493
1765877597.567682,494
1765877597.5676942,493
1765877597.567706,493
1765877597.567722,493
1765877597.567734,494
1765877597.567747,494
1765877597.567759,494
1765877597.567771,493
1765877597.5677829,494
1765877597.567795,494
1765877597.567807,494
1765877597.567819,494
1765877597.567831,493
1765877597.567843,494
1765877597.5678551,494
1765877597.5678668,494
1765877597.56788,494
1765877597.567892,493
1765877597.567904,494
1765877597.567916,493
1765877597.567928,493
1765877597.56794,494
1765877597.567957,494
1765877597.5679722,493
1765877597.567984,494
1765877597.567997,493
1765877597.568009,494
1765877597.568023,493
1765877597.5680351,494
1765877597.568047,494
1765877597.568059,494
1765877597.5680718,494
1765877597.568087,494
1765877597.568099,494
1765877597.5681112,494
1765877597.5681229,494
1765877597.568135,494
1765877597.568148,494
1765877597.56816,494
1765877597.568172,494
1765877597.5681841,494
1765877597.568197,493
1765877597.568209,494
1765877597.5682209,494
1765877597.568233,494
1765877597.568245,493
1765877597.568257,494
1765877597.568269,493
1765877597.5682812,494
1765877597.568293,494
1765877597.5683048,494
1765877597.568317,494
1765877597.5683289,495
1765877597.568342,495
1765877597.5683541,494
1765877597.568366,494
1765877597.5683782,494
1765877597.56839,494
1765877597.5684018,494
1765877597.568414,495
1765877597.568426,494
1765877597.568438,494
1765877597.56845,494
1765877597.568463,494
1765877597.5684748,494
1765877597.568487,494
1765877597.5684988,494
1765877597.568511,494
1765877597.568523,494
1765877597.568535,494
1765877597.568547,495
1765877597.5685601,495
1765877597.5685718,495
1765877597.568584,496
1765877597.568596,495
1765877597.568608,495
1765877597.56862,495
1765877597.568633,496
1765877597.5686452,495
1765877597.568657,496
1765877597.5686688,495
1765877597.568681,496
1765877597.568694,495
1765877597.568706,495
1765877597.5687182,496
1765877597.56873,495
1765877597.5687418,495
1765877597.568754,495
1765877597.568767,496
1765877597.568779,495
1765877597.5687912,495
1765877597.568803,495
1765877597.568815,494
1765877597.568827,494
1765877597.5688388,495
1765877597.568851,495
1765877597.568863,495
1765877597.568875,495
1765877597.568887,495
1765877597.5688992,495
1765877597.5689118,495
1765877597.568924,495
1765877597.568949,495
1765877597.5689652,495
1765877597.568973,495
1765877597.56898,494
1765877597.568987,495
1765877597.568994,495
1765877597.569001,496
1765877597.569008,495
1765877597.569015,495
1765877597.569023,495
1765877597.5690298,495
1765877597.569037,495
1765877597.5690439,495
1765877597.569054,494
1765877597.569062,495
1765877597.569073,494
1765877597.56908,495
1765877597.569087,495
1765877597.569094,495
1765877597.569101,495
1765877597.569108,495
1765877597.569115,494
1765877597.569123,495
1765877597.56913,496
1765877597.5691369,495
1765877597.569144,495
1765877597.569151,495
1765877597.5691578,495
1765877597.569165,495
1765877597.569172,495
1765877597.569182,495
1765877597.569189,495
1765877597.569196,495
1765877597.569203,495
1765877597.5692108,494
1765877597.5692182,495
1765877597.569225,494
1765877597.569232,494
1765877597.5692391,495
1765877597.569246,495
1765877597.5692532,495
1765877597.5692601,495
1765877597.569267,495
1765877597.5692742,495
1765877597.569281,495
1765877597.569289,495
1765877597.569296,495
1765877597.5693078,495
1765877597.569315,495
1765877597.569323,495
1765877597.56933,495
1765877597.5693371,495
1765877597.569344,495
1765877597.569351,495
1765877597.569358,494
1765877597.569365,494
1765877597.569372,495
1765877597.569379,495
1765877597.569386,495
1765877597.569393,495
1765877597.569401,495
1765877597.569408,495
1765877597.5694149,495
1765877597.569422,495
1765877597.569429,495
1765877597.569439,494
1765877597.5694458,495
1765877597.569453,495
1765877597.569461,495
1765877597.569468,494
1765877597.5694752,494
1765877597.5694878,495
1765877597.569495,495
1765877597.5695019,495
1765877597.569509,495
1765877597.569516,495
1765877597.5695229,495
1765877597.56953,495
1765877597.569538,494
1765877597.569545,495
1765877597.569552,495
1765877597.569559,495
1765877597.569566,494
1765877597.5695732,495
1765877597.56958,495
1765877597.569588,495
1765877597.5695949,495
1765877597.569602,495
1765877597.569609,495
1765877597.5696158,495
1765877597.569623,495
1765877597.56963,495
1765877597.569637,495
1765877597.569654,495
1765877597.5696619,494
1765877597.569669,494
1765877597.569676,495
1765877597.5696828,495
1765877597.5696902,495
1765877597.5696971,495
1765877597.5697038,495
1765877597.5697112,495
1765877597.569719,495
1765877597.569726,495
1765877597.5697331,495
1765877597.56974,495
1765877597.569747,495
1765877597.5697541,495
1765877597.569761,495
1765877597.569768,494
1765877597.569775,495
1765877597.569782,495
1765877597.569789,495
1765877597.569796,495
1765877597.569803,495
1765877597.56981,495
1765877597.569817,495
1765877597.569824,495
1765877597.569831,495
1765877597.569838,495
1765877597.569845,495
1765877597.5698519,495
1765877597.569859,495
1765877597.570103,495
1765877597.571124,495
1765877597.5721369,495
1765877597.57312,495
1765877597.5741282,495
1765877597.57516,495
1765877597.576159,495
1765877597.577208,495
1765877597.578177,496
1765877597.579166,496
1765877597.58017,495
1765877597.581197,494
1765877597.58219,495
1765877597.583155,495
1765877597.5841868,495
1765877597.58517,495
1765877597.586164,495
1765877597.5872178,495
1765877597.588202,496
1765877597.5893319,495
1765877597.5901859,495
1765877597.591237,496
1765877597.592205,496
1765877597.5931919,495
1765877597.594186,495
1765877597.595191,495
1765877597.5962439,495
1765877597.597286,495
1765877597.5981991,496
1765877597.599211,496
1765877597.600214,496
1765877597.6012108,495
1765877597.602205,495
1765877597.6032152,495
1765877597.604223,495
1765877597.6052248,496
1765877597.6062331,495
1765877597.607244,495
1765877597.6082509,495
1765877597.609256,495
1765877597.610234,496
1765877597.611244,495
1765877597.612247,496
1765877597.613255,495
1765877597.614246,496
1765877597.615268,495
1765877597.616277,495
1765877597.617302,495
1765877597.618289,495
1765877597.6193159,495
1765877597.620306,496
1765877597.6212869,496
1765877597.622296,496
1765877597.623263,496
1765877597.624258,495
1765877597.625301,495
1765877597.6263082,495
1765877597.627317,495
1765877597.628271,495
1765877597.629293,496
1765877597.6302872,496
1765877597.631362,496
1765877597.632309,495
1765877597.633326,496
1765877597.634312,496
1765877597.635319,496
1765877597.6362932,496
1765877597.637307,496
1765877597.638314,496
1765877597.639358,496
1765877597.6403399,496
1765877597.641351,496
1765877597.6423209,496
1765877597.643318,496
1765877597.644324,496
1765877597.645341,496
1765877597.646313,495
1765877597.647323,496
1765877597.648331,496
1765877597.649322,496
1765877597.650369,496
1765877597.651341,495
1765877597.6523461,496
1765877597.653375,496
1765877597.6543932,496
1765877597.655426,496
1765877597.656385,496
1765877597.657351,496
1765877597.658347,495
1765877597.65938,496
1765877597.660375,496
1765877597.661431,496
1765877597.662379,496
1765877597.663402,496
1765877597.664375,496
1765877597.665389,496
1765877597.666383,496
1765877597.6673868,496
1765877597.6683788,496
1765877597.6693912,496
1765877597.670387,496
1765877597.6714041,496
1765877597.672388,496
1765877597.673413,496
1765877597.6743839,496
1765877597.675404,496
1765877597.6764019,496
1765877597.6773891,496
1765877597.6784132,495
1765877597.679414,496
1765877597.6804202,496
1765877597.681427,496
1765877597.6823978,496
1765877597.683425,496
1765877597.684416,496
1765877597.685418,496
1765877597.686422,496
1765877597.687424,496
1765877597.688426,496
1765877597.689447,496
1765877597.690447,496
1765877597.691432,496
1765877597.692457,496
1765877597.6934679,496
1765877597.69445,496
1765877597.695461,496
1765877597.69645,496
1765877597.697464,496
1765877597.698462,496
1765877597.69947,496
1765877597.700477,497
1765877597.70147,498
1765877597.7024739,499
1765877597.703498,501
1765877597.704478,501
1765877597.705514,502
1765877597.70651,500
1765877597.7075,498
1765877597.7084749,497
1765877597.7094889,495
1765877597.710486,493
1765877597.711503,495
1765877597.712498,496
1765877597.713505,495
1765877597.7145221,495
1765877597.715512,496
1765877597.716505,496
1765877597.717514,496
1765877597.718521,496
1765877597.719542,496
1765877597.720535,496
1765877597.7215161,496
1765877597.722527,496
1765877597.723548,496
1765877597.724562,496
1765877597.72559,496
1765877597.726576,498
1765877597.727568,500
1765877597.728579,501
1765877597.729589,502
1765877597.730614,502
1765877597.731564,502
1765877597.732578,499
1765877597.733577,495
1765877597.734553,493
1765877597.7355871,500
1765877597.736583,504
1765877597.737581,503
1765877597.738566,503
1765877597.739594,502
1765877597.740584,502
1765877597.74158,498
1765877597.742595,492
1765877597.7435951,493
1765877597.744611,496
1765877597.74562,497
1765877597.7466009,495
1765877597.7475882,496
1765877597.7485929,498
1765877597.7496152,498
1765877597.7506402,498
1765877597.751616,495
1765877597.752639,493
1765877597.7536268,495
1765877597.7546308,496
1765877597.755622,496
1765877597.75669,496
1765877597.757733,496
1765877597.7587059,499
1765877597.759628,504
1765877597.760631,505
1765877597.761622,506
1765877597.762649,503
1765877597.763646,501
1765877597.764651,497
1765877597.7656431,489
1765877597.7666728,492
1765877597.767679,495
1765877597.768679,495
1765877597.7696798,497
1765877597.770679,496
1765877597.77166,497
1765877597.772688,497
1765877597.773704,498
1765877597.774702,496
1765877597.775715,494
1765877597.7767181,494
1765877597.77774,495
1765877597.778718,496
1765877597.779707,496
1765877597.780705,497
1765877597.781721,496
1765877597.782728,496
1765877597.7837272,496
1765877597.7847402,496
1765877597.785731,496
1765877597.786734,497
1765877597.787735,500
1765877597.788735,501
1765877597.7897542,501
1765877597.790813,502
1765877597.791784,501
1765877597.792755,497
1765877597.79377,497
1765877597.7947671,496
1765877597.7957602,497
1765877597.796747,497
1765877597.7977479,497
1765877597.7987788,498
1765877597.79977,499
1765877597.800787,500
1765877597.8019469,500
1765877597.80278,499
1765877597.803862,498
1765877597.804804,501
1765877597.8057861,502
1765877597.806762,500
1765877597.807787,501
1765877597.808795,501
1765877597.809799,501
1765877597.810806,495
1765877597.811784,494
1765877597.812806,493
1765877597.813793,495
1765877597.814796,498
1765877597.815808,500
1765877597.81682,501
1765877597.8178508,502
1765877597.818929,501
1765877597.819829,501
1765877597.8208761,501
1765877597.8218381,503
1765877597.8228412,507
1765877597.823841,507
1765877597.8248599,505
1765877597.8258529,496
1765877597.826859,493
1765877597.827839,496
1765877597.828841,498
1765877597.8298721,496
1765877597.8308532,494
1765877597.831883,492
1765877597.832949,496
1765877597.833963,498
1765877597.83489,501
1765877597.835903,503
1765877597.8368828,501
1765877597.837881,496
1765877597.838881,492
1765877597.8398578,493
1765877597.840873,494
1765877597.841967,493
1765877597.8428879,494
1765877597.8439019,494
1765877597.844873,495
1765877597.84589,497
1765877597.8469,496
1765877597.84788,495
1765877597.848898,496
1765877597.8499148,496
1765877597.850923,497
1765877597.8519151,497
1765877597.8529458,497
1765877597.8539178,496
1765877597.854914,496
1765877597.855896,497
1765877597.856928,498
1765877597.8579469,498
1765877597.858921,498
1765877597.859929,499
1765877597.8609369,499
1765877597.861941,497
1765877597.863025,498
1765877597.864023,500
1765877597.865013,500
1765877597.8660202,499
1765877597.867022,497
1765877597.868028,494
1765877597.869024,495
1765877597.870024,496
1765877597.8710332,496
1765877597.872051,495
1765877597.873047,495
1765877597.8741918,496
1765877597.875073,496
1765877597.876051,496
1765877597.8770509,497
1765877597.8780348,497
1765877597.879023,498
1765877597.880019,498
1765877597.881014,500
1765877597.882022,501
1765877597.883036,502
1765877597.884026,503
1765877597.885026,500
1765877597.886016,493
1765877597.88702,497
1765877597.888033,499
1765877597.889033,500
1765877597.890035,500
1765877597.8910441,498
1765877597.8920372,492
1765877597.893035,492
1765877597.89403,496
1765877597.895034,497
1765877597.89604,497
1765877597.897036,498
1765877597.8980212,497
1765877597.89903,497
1765877597.900046,497
1765877597.901033,497
1765877597.902064,500
1765877597.903042,500
1765877597.904041,498
1765877597.905047,495
1765877597.906068,493
1765877597.9070458,492
1765877597.908096,495
1765877597.909076,495
1765877597.910083,496
1765877597.9110951,497
1765877597.912096,497
1765877597.913075,497
1765877597.914075,496
1765877597.915085,496
1765877597.916099,498
1765877597.9171782,498
1765877597.918128,499
1765877597.919111,499
1765877597.9201338,497
1765877597.92112,497
1765877597.922119,497
1765877597.923126,499
1765877597.924099,499
1765877597.925111,497
1765877597.926116,496
1765877597.9271219,496
1765877597.928138,496
1765877597.9291258,497
1765877597.930138,497
1765877597.931128,497
1765877597.932128,497
1765877597.933119,497
1765877597.934117,497
1765877597.935149,496
1765877597.9361439,496
1765877597.937134,498
1765877597.938136,500
1765877597.9391391,500
1765877597.9401522,500
1765877597.941167,496
1765877597.9421692,495
1765877597.94317,499
1765877597.944164,501
1765877597.945163,500
1765877597.946168,498
1765877597.947166,493
1765877597.948159,496
1765877597.9491851,497
1765877597.950207,496
1765877597.951201,495
1765877597.9521852,496
1765877597.9531898,495
1765877597.954192,496
1765877597.955192,496
1765877597.956199,497
1765877597.9572139,497
1765877597.9582899,497
1765877597.959291,498
1765877597.960233,499
1765877597.9612238,498
1765877597.962236,498
1765877597.9632242,498
1765877597.964216,497
1765877597.9652102,496
1765877597.966229,497
1765877597.967231,495
1765877597.9682372,496
1765877597.969235,496
1765877597.970243,497
1765877597.9712372,498
1765877597.972249,497
1765877597.97326,497
1765877597.974268,497
1765877597.975293,495
1765877597.9762602,496
1765877597.977293,498
1765877597.9782898,499
1765877597.979284,499
1765877597.980267,500
1765877597.981282,499
1765877597.9823282,497
1765877597.98331,500
1765877597.984292,502
1765877597.985312,499
1765877597.986298,495
1765877597.987307,493
1765877597.988281,496
1765877597.989355,497
1765877597.990304,497
1765877597.9913049,496
1765877597.9923022,496
1765877597.993312,496
1765877597.994302,497
1765877597.995309,497
1765877597.996311,496
1765877597.997313,498
1765877597.998322,498
1765877597.999417,498
1765877598.00036,497
1765877598.001378,497
1765877598.0023448,496
1765877598.003351,496
1765877598.004359,496
1765877598.005333,495
1765877598.006326,495
1765877598.007329,495
1765877598.0083368,497
1765877598.009347,499
1765877598.010356,499
1765877598.011369,499
1765877598.012353,496
1765877598.013373,495
1765877598.0143518,496
1765877598.015357,500
1765877598.0163572,501
1765877598.0173702,499
1765877598.0183911,497
1765877598.019416,494
1765877598.0204182,495
1765877598.0214112,495
1765877598.022374,496
1765877598.023425,496
1765877598.02441,497
1765877598.025419,496
1765877598.0264168,497
1765877598.027406,497
1765877598.0283961,498
1765877598.02939,496
1765877598.030399,497
1765877598.0313978,497
1765877598.032403,497
1765877598.03343,498
1765877598.03441,497
1765877598.035428,497
1765877598.036418,497
1765877598.037427,498
1765877598.0384262,500
1765877598.039445,499
1765877598.04044,499
1765877598.041467,495
1765877598.042447,495
1765877598.0434518,496
1765877598.044446,498
1765877598.045454,498
1765877598.046458,501
1765877598.047446,502
1765877598.04845,502
1765877598.0494668,499
1765877598.050477,498
1765877598.051479,493
1765877598.052778,495
1765877598.053528,496
1765877598.0544908,496
1765877598.055496,496
1765877598.056478,496
1765877598.0574698,495
1765877598.0585,496
1765877598.059504,496
1765877598.0605109,496
1765877598.0614989,496
1765877598.062508,497
1765877598.063492,497
1765877598.064497,496
1765877598.065526,495
1765877598.06655,495
1765877598.0675268,496
1765877598.068532,496
1765877598.069542,497
1765877598.070554,496
1765877598.0715442,497
1765877598.072563,496
1765877598.07357,497
1765877598.0745778,498
1765877598.075566,497
1765877598.076579,498
1765877598.077593,497
1765877598.078594,497
1765877598.079606,496
1765877598.080584,496
1765877598.0815969,496
1765877598.082607,496
1765877598.083669,497
1765877598.084626,500
1765877598.0856168,502
1765877598.086632,503
1765877598.087616,501
1765877598.088601,498
1765877598.08958,491
1765877598.0905962,495
1765877598.091603,496
1765877598.092608,497
1765877598.0936341,496
1765877598.094613,497
1765877598.095634,498
1765877598.0966358,499
1765877598.097636,499
1765877598.098615,499
1765877598.0996401,498
1765877598.100648,494
1765877598.1016269,494
1765877598.10263,494
1765877598.103605,494
1765877598.104626,496
1765877598.105609,497
1765877598.106622,498
1765877598.107619,497
1765877598.108629,498
1765877598.109636,497
1765877598.1106298,496
1765877598.1116421,495
1765877598.1126342,495
1765877598.113633,496
1765877598.114626,496
1765877598.115641,496
1765877598.116674,496
1765877598.1177979,496
1765877598.118666,498
1765877598.1196601,498
1765877598.12066,498
1765877598.121654,497
1765877598.122675,497
1765877598.123668,497
1765877598.124695,496
1765877598.125712,496
1765877598.126684,496
1765877598.127671,496
1765877598.128672,497
1765877598.1296809,497
1765877598.130681,496
1765877598.131701,496
1765877598.1326962,498
1765877598.133707,499
1765877598.134701,498
1765877598.1357,498
1765877598.136693,496
1765877598.1377048,495
1765877598.1387022,497
1765877598.139727,502
1765877598.1407108,502
1765877598.141707,503
1765877598.14273,501
1765877598.1437309,497
1765877598.144727,494
1765877598.1457129,497
1765877598.146729,496
1765877598.147724,496
1765877598.148716,496
1765877598.149747,497
1765877598.1507509,497
1765877598.1517398,498
1765877598.152746,497
1765877598.15374,497
1765877598.154751,497
1765877598.1557481,497
1765877598.1567519,497
1765877598.1577442,497
1765877598.158761,498
1765877598.159759,498
1765877598.160779,498
1765877598.161767,498
1765877598.162781,497
1765877598.163788,497
1765877598.1647701,497
1765877598.1657758,497
1765877598.166806,498
1765877598.167808,498
1765877598.168811,499
1765877598.169784,501
1765877598.1708102,500
1765877598.1718001,499
1765877598.172804,498
1765877598.173789,497
1765877598.1748219,495
1765877598.175818,496
1765877598.1768,495
1765877598.177811,496
1765877598.178815,495
1765877598.179819,496
1765877598.180821,496
1765877598.181864,496
1765877598.18287,497
1765877598.183856,496
1765877598.18494,496
1765877598.185842,496
1765877598.186867,497
1765877598.18788,499
1765877598.1888618,501
1765877598.189861,502
1765877598.190858,500
1765877598.1918578,499
1765877598.1928692,495
1765877598.193887,494
1765877598.194859,495
1765877598.1958551,496
1765877598.196852,497
1765877598.197851,497
1765877598.19886,497
1765877598.199884,497
1765877598.2008991,497
1765877598.201885,497
1765877598.2029061,497
1765877598.203906,497
1765877598.204942,497
1765877598.205919,497
1765877598.206932,497
1765877598.20799,496
1765877598.20903,495
1765877598.209936,497
1765877598.210936,497
1765877598.211921,497
1765877598.212945,497
1765877598.213918,497
1765877598.214914,495
1765877598.215915,496
1765877598.216931,496
1765877598.21793,495
1765877598.218938,497
1765877598.219936,496
1765877598.221029,496
1765877598.22194,496
1765877598.223026,496
1765877598.224016,498
1765877598.2250319,497
1765877598.226063,498
1765877598.227042,498
1765877598.2280278,497
1765877598.2290199,497
1765877598.23004,497
1765877598.2310421,496
1765877598.232028,496
1765877598.2330408,496
1765877598.234045,496
1765877598.2350478,497
1765877598.236028,497
1765877598.237026,498
1765877598.238019,499
1765877598.239011,500
1765877598.240012,501
1765877598.241021,501
1765877598.242048,498
1765877598.2430358,498
1765877598.2440279,498
1765877598.2450309,495
1765877598.2460392,494
1765877598.247048,496
1765877598.248078,496
1765877598.249047,495
1765877598.2501261,496
1765877598.251062,497
1765877598.2520478,496
1765877598.253036,497
1765877598.254017,497
1765877598.255017,496
1765877598.256021,497
1765877598.257041,497
1765877598.2580621,497
1765877598.259053,496
1765877598.2600489,496
1765877598.261065,497
1765877598.262042,496
1765877598.263059,497
1765877598.26406,496
1765877598.265064,496
1765877598.2660558,496
1765877598.2670798,497
1765877598.268112,496
1765877598.269116,496
1765877598.270082,497
1765877598.271102,498
1765877598.272109,498
1765877598.273088,498
1765877598.274104,498
1765877598.2750962,496
1765877598.276119,496
1765877598.277094,497
1765877598.278118,497
1765877598.279098,497
1765877598.280094,497
1765877598.281108,496
1765877598.282104,497
1765877598.2831318,497
1765877598.284137,497
1765877598.285131,497
1765877598.286135,497
1765877598.287133,497
1765877598.288128,496
1765877598.289129,496
1765877598.290151,497
1765877598.2911942,498
1765877598.2921531,498
1765877598.2931468,500
1765877598.294162,502
1765877598.2951381,502
1765877598.2961469,502
1765877598.29714,498
1765877598.298144,494
1765877598.2991512,496
1765877598.300176,497
1765877598.301176,496
1765877598.3021598,495
1765877598.3031712,496
1765877598.304186,497
1765877598.305192,497
1765877598.3061912,497
1765877598.307194,495
1765877598.3081799,496
1765877598.3091998,496
1765877598.310205,496
1765877598.311211,497
1765877598.312201,497
1765877598.313204,497
1765877598.31421,497
1765877598.3152199,498
1765877598.3162072,498
1765877598.3172119,500
1765877598.318217,500
1765877598.319217,501
1765877598.3202271,501
1765877598.321218,497
1765877598.322229,495
1765877598.323215,497
1765877598.324217,497
1765877598.325244,497
1765877598.326255,498
1765877598.327253,498
1765877598.328247,497
1765877598.3292642,499
1765877598.330257,498
1765877598.331255,497
1765877598.332267,495
1765877598.3333068,496
1765877598.334302,496
1765877598.335284,498
1765877598.336281,496
1765877598.33727,497
1765877598.338281,497
1765877598.3392682,498
1765877598.3402681,496
1765877598.341281,495
1765877598.3423,496
1765877598.3432992,497
1765877598.3443,496
1765877598.345321,496
1765877598.346299,496
1765877598.347295,498
1765877598.348295,498
1765877598.3493052,499
1765877598.350323,502
1765877598.3513348,499
1765877598.3523,495
1765877598.353313,497
1765877598.354316,497
1765877598.35532,497
1765877598.356313,498
1765877598.357332,498
1765877598.358347,498
1765877598.359348,497
1765877598.3603258,498
1765877598.3613381,497
1765877598.362342,496
1765877598.363329,497
1765877598.364336,497
1765877598.365344,497
1765877598.366368,497
1765877598.367393,497
1765877598.368366,497
1765877598.3693829,497
1765877598.370367,498
1765877598.371362,497
1765877598.3723688,497
1765877598.3733802,497
1765877598.3744938,498
1765877598.375419,498
1765877598.376415,498
1765877598.377406,498
1765877598.378402,497
1765877598.3794,496
1765877598.380387,497
1765877598.381393,497
1765877598.382396,497
1765877598.383405,498
1765877598.3844109,498
1765877598.385418,499
1765877598.386427,499
1765877598.387406,498
1765877598.388424,497
1765877598.389428,498
1765877598.390422,497
1765877598.391447,497
1765877598.3924658,497
1765877598.393467,498
1765877598.3944519,498
1765877598.3954701,497
1765877598.3964741,498
1765877598.397436,496
1765877598.398431,496
1765877598.399461,498
1765877598.400466,497
1765877598.4014552,498
1765877598.402451,497
1765877598.403472,497
1765877598.404474,497
1765877598.405462,496
1765877598.406465,497
1765877598.407478,497
1765877598.408511,497
1765877598.409495,498
1765877598.410499,499
1765877598.411508,498
1765877598.412521,499
1765877598.4135199,497
1765877598.4145112,495
1765877598.4155169,496
1765877598.4165728,497
1765877598.4175181,496
1765877598.418543,498
1765877598.419542,499
1765877598.4205282,499
1765877598.421518,500
1765877598.422513,499
1765877598.423536,499
1765877598.42453,496
1765877598.4255779,495
1765877598.426553,497
1765877598.4275389,497
1765877598.428575,498
1765877598.4295611,497
1765877598.4306,497
1765877598.4315479,498
1765877598.4325628,498
1765877598.433565,498
1765877598.434577,498
1765877598.4355772,498
1765877598.4365911,498
1765877598.437591,498
1765877598.438588,499
1765877598.43957,497
1765877598.440563,497
1765877598.441599,497
1765877598.4425979,497
1765877598.4436,499
1765877598.444603,499
1765877598.4455879,499
1765877598.4465878,499
1765877598.4476001,498
1765877598.44862,496
1765877598.4496489,496
1765877598.4506528,496
1765877598.4516768,495
1765877598.452665,496
1765877598.453632,497
1765877598.4546392,497
1765877598.455621,496
1765877598.456635,498
1765877598.45764,498
1765877598.458733,499
1765877598.459666,499
1765877598.460665,499
1765877598.461663,496
1765877598.462637,496
1765877598.463629,496
1765877598.464664,495
1765877598.4656498,495
1765877598.466676,496
1765877598.467703,497
1765877598.4686668,498
1765877598.469677,498
1765877598.470665,498
1765877598.471773,497
1765877598.472726,497
1765877598.4736798,497
1765877598.474685,497
1765877598.475717,497
1765877598.476696,498
1765877598.477661,497
1765877598.4786692,497
1765877598.479668,497
1765877598.48066,497
1765877598.481676,498
1765877598.482686,497
1765877598.483706,498
1765877598.484701,498
1765877598.4857118,500
1765877598.48671,499
1765877598.4877162,498
1765877598.4887009,495
1765877598.489717,495
1765877598.4907131,498
1765877598.491754,497
1765877598.4927511,497
1765877598.493758,497
1765877598.494735,498
1765877598.49572,498
1765877598.496748,498
1765877598.4977531,498
1765877598.49875,498
1765877598.499825,498
1765877598.500814,498
1765877598.501801,500
1765877598.5027862,500
1765877598.503816,500
1765877598.50476,498
1765877598.5057752,499
1765877598.506774,497
1765877598.507783,498
1765877598.508797,498
1765877598.50981,498
1765877598.510793,496
1765877598.511801,498
1765877598.5128052,498
1765877598.5137951,498
1765877598.514812,499
1765877598.5158331,498
1765877598.516811,497
1765877598.517811,499
1765877598.518825,499
1765877598.5198069,498
1765877598.520791,499
1765877598.521812,499
1765877598.5228028,500
1765877598.523821,499
1765877598.524823,498
1765877598.5258298,497
1765877598.526795,497
1765877598.5278342,497
1765877598.528831,497
1765877598.529867,497
1765877598.530854,497
1765877598.53184,497
1765877598.532852,498
1765877598.53384,497
1765877598.534861,497
1765877598.5358562,498
1765877598.536829,498
1765877598.537854,498
1765877598.538861,499
1765877598.5398972,499
1765877598.540885,500
1765877598.5419781,499
1765877598.542922,495
1765877598.543874,496
1765877598.5448692,497
1765877598.54588,497
1765877598.546873,497
1765877598.547895,497
1765877598.5488598,497
1765877598.5499048,497
1765877598.550869,497
1765877598.551878,497
1765877598.552881,497
1765877598.5539641,497
